energies(eV),real_xx,real_yy,real_zz,real_xy,real_yz,real_xz,real_ave,imag_xx,imag_yy,imag_zz,imag_xy,imag_yz,imag_xz,imag_ave,absorption_xx,absorption_yy,absorption_zz,absorption_xy,absorption_yz,absorption_xz,absorption_ave,band_gap
0.0,2.231076410215751,2.2247005710419376,2.23865714861384,0.0,0.0,0.00609720683275242,2.2314780432905095,0.0,0.0,0.0,0.0,0.0,0.0,0.0,0.0,0.0,0.0,0.0,0.0,0.0,0.0,6.989
0.0153,2.231077826674575,2.2247019640393333,2.2386585659749763,0.0,0.0,0.006097197667317527,2.231479452229628,0.0,0.0,0.0,0.0,0.0,0.0,0.0,0.0,0.0,0.0,0.0,0.0,0.0,0.0,
0.0307,2.231082113170309,2.224706179535107,2.238662855201369,0.0,0.0,0.0060971699300311445,2.231483715968928,0.0,0.0,0.0,0.0,0.0,0.0,0.0,0.0,0.0,0.0,0.0,0.0,0.0,0.0,
0.046,2.231089214114993,2.2247131628594383,2.238669960669898,0.0,0.0,0.006097123978227132,2.2314907792147767,0.0,0.0,0.0,0.0,0.0,0.0,0.0,0.0,0.0,0.0,0.0,0.0,0.0,0.0,
0.0613,2.231099148219008,2.224722932408511,2.238679901103256,0.0,0.0,0.006097059686908914,2.231500660576925,0.0,0.0,0.0,0.0,0.0,0.0,0.0,0.0,0.0,0.0,0.0,0.0,0.0,0.0,
0.0767,2.231112008437588,2.224735579591663,2.238692769516474,0.0,0.0,0.006096976448889236,2.2315134525152414,0.0,0.0,0.0,0.0,0.0,0.0,0.0,0.0,0.0,0.0,0.0,0.0,0.0,0.0,
0.092,2.2311276279974104,2.224750940390483,2.2387083990306986,0.0,0.0,0.006096875336505543,2.2315289891395307,0.0,0.0,0.0,0.0,0.0,0.0,0.0,0.0,0.0,0.0,0.0,0.0,0.0,0.0,
0.1073,2.2311460814417416,2.2247690881039697,2.238726864237562,0.0,0.0,0.006096755858664036,2.2315473445944245,0.0,0.0,0.0,0.0,0.0,0.0,0.0,0.0,0.0,0.0,0.0,0.0,0.0,0.0,
0.1227,2.231167517577715,2.224790169062387,2.2387483140401363,0.0,0.0,0.006096617041397,2.2315686668934127,0.0,0.0,0.0,0.0,0.0,0.0,0.0,0.0,0.0,0.0,0.0,0.0,0.0,0.0,
0.138,2.2311916584182923,2.2248139098717328,2.2387724702753493,0.0,0.0,0.006096460673054596,2.2315926795217913,0.0,0.0,0.0,0.0,0.0,0.0,0.0,0.0,0.0,0.0,0.0,0.0,0.0,0.0,
0.1533,2.2312186343524307,2.224840438746022,2.238799463416664,0.0,0.0,0.006096285895979259,2.2316195121717057,0.0,0.0,0.0,0.0,0.0,0.0,0.0,0.0,0.0,0.0,0.0,0.0,0.0,0.0,
0.1687,2.2312486500647246,2.2248699569607173,2.23882949828082,0.0,0.0,0.006096091368500402,2.2316493684354204,0.0,0.0,0.0,0.0,0.0,0.0,0.0,0.0,0.0,0.0,0.0,0.0,0.0,0.0,
0.184,2.2312813163071015,2.224902081701221,2.2388621853730806,0.0,0.0,0.006095879596663869,2.2316818611271345,0.0,0.0,0.0,0.0,0.0,0.0,0.0,0.0,0.0,0.0,0.0,0.0,0.0,0.0,
0.1993,2.231316819336657,2.2249369961178704,2.2388977110712327,0.0,0.0,0.006095649355434448,2.2317171755085865,0.0,0.0,0.0,0.0,0.0,0.0,0.0,0.0,0.0,0.0,0.0,0.0,0.0,0.0,
0.2147,2.231355419750564,2.2249749564647794,2.2389363361409607,0.0,0.0,0.00609539893416728,2.2317555707854346,0.0,0.0,0.0,0.0,0.0,0.0,0.0,0.0,0.0,0.0,0.0,0.0,0.0,0.0,
0.23,2.2313966169734902,2.2250154704436644,2.238977559689381,0.0,0.0,0.006095131558962684,2.231796549035512,0.0,0.0,0.0,0.0,0.0,0.0,0.0,0.0,0.0,0.0,0.0,0.0,0.0,0.0,
0.2453,2.231440653162696,2.225058776171691,2.2390216240307588,0.0,0.0,0.006094845636245585,2.2318403511217153,0.0,0.0,0.0,0.0,0.0,0.0,0.0,0.0,0.0,0.0,0.0,0.0,0.0,0.0,
0.2607,2.23148784487273,2.2251051849241654,2.2390688459246726,0.0,0.0,0.006094539084774447,2.231887291907189,0.0,0.0,0.0,0.0,0.0,0.0,0.0,0.0,0.0,0.0,0.0,0.0,0.0,0.0,
0.276,2.2315375801157247,2.2251540948380324,2.2391186129945355,0.0,0.0,0.0060942158537423815,2.231936762649431,0.0,0.0,0.0,0.0,0.0,0.0,0.0,0.0,0.0,0.0,0.0,0.0,0.0,0.0,
0.2913,2.231590156990786,2.2252057990368557,2.239171223532922,0.0,0.0,0.006093873979521652,2.2319890598535213,0.0,0.0,0.0,0.0,0.0,0.0,0.0,0.0,0.0,0.0,0.0,0.0,0.0,0.0,
0.3067,2.231645948064267,2.2252606638689176,2.2392270503479548,0.0,0.0,0.006093511008299486,2.2320445540937133,0.0,0.0,0.0,0.0,0.0,0.0,0.0,0.0,0.0,0.0,0.0,0.0,0.0,0.0,
0.322,2.231704229831503,2.225317977807157,2.2392853694746764,0.0,0.0,0.006093131616082275,2.2321025257044456,0.0,0.0,0.0,0.0,0.0,0.0,0.0,0.0,0.0,0.0,0.0,0.0,0.0,0.0,
0.3373,2.2317653563847397,2.225378089030335,2.2393465352354847,0.0,0.0,0.006092733467325363,2.2321633268835197,0.0,0.0,0.0,0.0,0.0,0.0,0.0,0.0,0.0,0.0,0.0,0.0,0.0,0.0,
0.3527,2.2318297563662632,2.225441419020633,2.2394109765513956,0.0,0.0,0.006092313733314677,2.232227383979431,0.0,0.0,0.0,0.0,0.0,0.0,0.0,0.0,0.0,0.0,0.0,0.0,0.0,0.0,
0.368,2.2318965946312335,2.2255071464696288,2.2394778577452863,0.0,0.0,0.0060918778212782475,2.2322938662820495,0.0,0.0,0.0,0.0,0.0,0.0,0.0,0.0,0.0,0.0,0.0,0.0,0.0,0.0,
0.3834,2.231966746166938,2.2255761317813034,2.239548054370358,0.0,0.0,0.006091419986756383,2.2323636441062,0.0,0.0,0.0,0.0,0.0,0.0,0.0,0.0,0.0,0.0,0.0,0.0,0.0,0.0,
0.3987,2.2320393012427306,2.2256474803057653,2.239620656115334,0.0,0.0,0.006090946127782899,2.23243581255461,0.0,0.0,0.0,0.0,0.0,0.0,0.0,0.0,0.0,0.0,0.0,0.0,0.0,0.0,
0.414,2.232114707453766,2.225721632153797,2.2396961108671807,0.0,0.0,0.0060904532835710425,2.2325108168249144,0.0,0.0,0.0,0.0,0.0,0.0,0.0,0.0,0.0,0.0,0.0,0.0,0.0,0.0,
0.4294,2.2321934871119082,2.2257991008981,2.239774941278818,0.0,0.0,0.006089937994144062,2.2325891764296086,0.0,0.0,0.0,0.0,0.0,0.0,0.0,0.0,0.0,0.0,0.0,0.0,0.0,0.0,
0.4447,2.232274618597977,2.22587888187112,2.239856125077515,0.0,0.0,0.006089406897650476,2.232669875182204,0.0,0.0,0.0,0.0,0.0,0.0,0.0,0.0,0.0,0.0,0.0,0.0,0.0,0.0,
0.46,2.232358605684568,2.2259614704140045,2.239940166365062,0.0,0.0,0.006088856654672294,2.2327534141545446,0.0,0.0,0.0,0.0,0.0,0.0,0.0,0.0,0.0,0.0,0.0,0.0,0.0,0.0,
0.4754,2.2324460269782005,2.22604743544128,2.2400276441268456,0.0,0.0,0.006088283422356512,2.2328403688487755,0.0,0.0,0.0,0.0,0.0,0.0,0.0,0.0,0.0,0.0,0.0,0.0,0.0,0.0,
0.4907,2.2325357487964816,2.2261356621015587,2.2401174239533654,0.0,0.0,0.00608769458523657,2.232929611617135,0.0,0.0,0.0,0.0,0.0,0.0,0.0,0.0,0.0,0.0,0.0,0.0,0.0,0.0,
0.506,2.2326283311764428,2.2262267010490504,2.2402100662485687,0.0,0.0,0.006087086422084632,2.233021699491354,0.0,0.0,0.0,0.0,0.0,0.0,0.0,0.0,0.0,0.0,0.0,0.0,0.0,0.0,
0.5214,2.232724409119248,2.2263211766351088,2.24030620643069,0.0,0.0,0.006086454703510534,2.2331172640616823,0.0,0.0,0.0,0.0,0.0,0.0,0.0,0.0,0.0,0.0,0.0,0.0,0.0,0.0,
0.5367,2.2328227366852476,2.226417863639962,2.240404597758701,0.0,0.0,0.006085807567414522,2.23321506602797,0.0,0.0,0.0,0.0,0.0,0.0,0.0,0.0,0.0,0.0,0.0,0.0,0.0,0.0,
0.552,2.232923930272708,2.2265173681228516,2.240505857035884,0.0,0.0,0.006085140907213001,2.2333157184771477,0.0,0.0,0.0,0.0,0.0,0.0,0.0,0.0,0.0,0.0,0.0,0.0,0.0,0.0,
0.5674,2.233028681387354,2.2266203699764127,2.2406106762236697,0.0,0.0,0.006084450102945684,2.233419909195812,0.0,0.0,0.0,0.0,0.0,0.0,0.0,0.0,0.0,0.0,0.0,0.0,0.0,0.0,
0.5827,2.233135631618703,2.2267255334093834,2.2407176960351256,0.0,0.0,0.006083744053581096,2.233526287021071,0.0,0.0,0.0,0.0,0.0,0.0,0.0,0.0,0.0,0.0,0.0,0.0,0.0,0.0,
0.598,2.2332454538329687,2.226833519987423,2.240827589779993,0.0,0.0,0.006083018263263225,2.2336355212001284,0.0,0.0,0.0,0.0,0.0,0.0,0.0,0.0,0.0,0.0,0.0,0.0,0.0,0.0,
0.6134,2.233358896160299,2.2269450652583216,2.2409411060832385,0.0,0.0,0.006082267717050276,2.2337483558339533,0.0,0.0,0.0,0.0,0.0,0.0,0.0,0.0,0.0,0.0,0.0,0.0,0.0,0.0,
0.6287,2.233474487486186,2.227058722637583,2.2410567728779918,0.0,0.0,0.0060815020834106516,2.2338633276672533,0.0,0.0,0.0,0.0,0.0,0.0,0.0,0.0,0.0,0.0,0.0,0.0,0.0,0.0,
0.644,2.2335929572614512,2.227175209308114,2.2411753200975237,0.0,0.0,0.00608071647292279,2.233981162222363,0.0,0.0,0.0,0.0,0.0,0.0,0.0,0.0,0.0,0.0,0.0,0.0,0.0,0.0,
0.6594,2.2337151103705466,2.227295316596239,2.2412975531607833,0.0,0.0,0.0060799054708687034,2.234102660042523,0.0,0.0,0.0,0.0,0.0,0.0,0.0,0.0,0.0,0.0,0.0,0.0,0.0,0.0,
0.6747,2.2338393627420414,2.227417486883771,2.2414218869670344,0.0,0.0,0.006079079524388443,2.2342262455309485,0.0,0.0,0.0,0.0,0.0,0.0,0.0,0.0,0.0,0.0,0.0,0.0,0.0,0.0,
0.69,2.2339665005379676,2.22754249309115,2.241549108200278,0.0,0.0,0.006078233345820138,2.2343527006097985,0.0,0.0,0.0,0.0,0.0,0.0,0.0,0.0,0.0,0.0,0.0,0.0,0.0,0.0,
0.7054,2.2340973855371207,2.227671182456231,2.2416800792139897,0.0,0.0,0.006077361115485071,2.234482882402447,0.0,0.0,0.0,0.0,0.0,0.0,0.0,0.0,0.0,0.0,0.0,0.0,0.0,0.0,
0.7207,2.234230320438299,2.2278018860677546,2.2418131015997087,0.0,0.0,0.006076474069118647,2.234615102701921,0.0,0.0,0.0,0.0,0.0,0.0,0.0,0.0,0.0,0.0,0.0,0.0,0.0,0.0,
0.736,2.234366148251505,2.2279354327135783,2.2419490189294597,0.0,0.0,0.006075566515756051,2.234750199964848,0.0,0.0,0.0,0.0,0.0,0.0,0.0,0.0,0.0,0.0,0.0,0.0,0.0,0.0,
0.7514,2.2345057878000683,2.2280727256857027,2.242088750642033,0.0,0.0,0.006074632225177299,2.234889088042601,0.0,0.0,0.0,0.0,0.0,0.0,0.0,0.0,0.0,0.0,0.0,0.0,0.0,0.0,
0.7667,2.234647428260132,2.22821198450144,2.24223048472727,0.0,0.0,0.006073683232401064,2.235029965829614,0.0,0.0,0.0,0.0,0.0,0.0,0.0,0.0,0.0,0.0,0.0,0.0,0.0,0.0,
0.782,2.234791969636577,2.2283540939555584,2.2423751217926773,0.0,0.0,0.006072713437702501,2.235173728461604,0.0,0.0,0.0,0.0,0.0,0.0,0.0,0.0,0.0,0.0,0.0,0.0,0.0,0.0,
0.7974,2.2349403879577068,2.228500013546528,2.242523638523504,0.0,0.0,0.006071716194336557,2.235321346675913,0.0,0.0,0.0,0.0,0.0,0.0,0.0,0.0,0.0,0.0,0.0,0.0,0.0,0.0,
0.8127,2.235090758563963,2.2286478509227425,2.2426741089935884,0.0,0.0,0.006070704348070359,2.235470906160098,0.0,0.0,0.0,0.0,0.0,0.0,0.0,0.0,0.0,0.0,0.0,0.0,0.0,0.0,
0.828,2.2352440386122323,2.228798547035056,2.242827491003717,0.0,0.0,0.006069671384561326,2.2356233588836685,0.0,0.0,0.0,0.0,0.0,0.0,0.0,0.0,0.0,0.0,0.0,0.0,0.0,0.0,
0.8434,2.2354012615066186,2.228953117750578,2.2429848186571237,0.0,0.0,0.006068610234143904,2.235779732638107,0.0,0.0,0.0,0.0,0.0,0.0,0.0,0.0,0.0,0.0,0.0,0.0,0.0,0.0,
0.8587,2.235560388418399,2.2291095585319427,2.2431440517768797,0.0,0.0,0.00606753456559173,2.2359379995757407,0.0,0.0,0.0,0.0,0.0,0.0,0.0,0.0,0.0,0.0,0.0,0.0,0.0,0.0,
0.874,2.2357224338239345,2.2292688666450773,2.2433062055252107,0.0,0.0,0.00606643744367729,2.2360991686647407,0.0,0.0,0.0,0.0,0.0,0.0,0.0,0.0,0.0,0.0,0.0,0.0,0.0,0.0,
0.8894,2.2358884886844272,2.2294321144977434,2.243472371605387,0.0,0.0,0.0060653113689997165,2.236264324929186,0.0,0.0,0.0,0.0,0.0,0.0,0.0,0.0,0.0,0.0,0.0,0.0,0.0,0.0,
0.9047,2.236056399647957,2.229597185030552,2.243640395234264,0.0,0.0,0.006064170846404971,2.236431326637591,0.0,0.0,0.0,0.0,0.0,0.0,0.0,0.0,0.0,0.0,0.0,0.0,0.0,0.0,
0.92,2.2362272386882687,2.2297651319933136,2.2438113491141713,0.0,0.0,0.006063008513096582,2.2366012399319177,0.0,0.0,0.0,0.0,0.0,0.0,0.0,0.0,0.0,0.0,0.0,0.0,0.0,0.0,
0.9354,2.236402154515492,2.229937084516491,2.243986382741079,0.0,0.0,0.0060618164326954015,2.2367752072576876,0.0,0.0,0.0,0.0,0.0,0.0,0.0,0.0,0.0,0.0,0.0,0.0,0.0,0.0,
0.9507,2.2365788788797305,2.2301108126626934,2.2441632263493148,0.0,0.0,0.006060609960009542,2.2369509726305794,0.0,0.0,0.0,0.0,0.0,0.0,0.0,0.0,0.0,0.0,0.0,0.0,0.0,0.0,
0.966,2.236758541440521,2.230287426844424,2.244343010370544,0.0,0.0,0.006059381297564384,2.2371296595518295,0.0,0.0,0.0,0.0,0.0,0.0,0.0,0.0,0.0,0.0,0.0,0.0,0.0,0.0,
0.9814,2.2369423488594826,2.230468113106941,2.2445269422968357,0.0,0.0,0.006058122064320858,2.237312468087753,0.0,0.0,0.0,0.0,0.0,0.0,0.0,0.0,0.0,0.0,0.0,0.0,0.0,0.0,
0.9967,2.2371279175929244,2.2306505282590825,2.2447126369826003,0.0,0.0,0.006056848479782422,2.2374970276115356,0.0,0.0,0.0,0.0,0.0,0.0,0.0,0.0,0.0,0.0,0.0,0.0,0.0,0.0,
1.012,2.2373164351852894,2.230835839564864,2.244901282788759,0.0,0.0,0.006055552304251157,2.2376845191796373,0.0,0.0,0.0,0.0,0.0,0.0,0.0,0.0,0.0,0.0,0.0,0.0,0.0,0.0,
1.0274,2.2375091664629703,2.231025290186655,2.245094145417747,0.0,0.0,0.006054224703899136,2.237876200689124,0.0,0.0,0.0,0.0,0.0,0.0,0.0,0.0,0.0,0.0,0.0,0.0,0.0,0.0,
1.0427,2.2377036121715186,2.2312164232836516,2.245288723925316,0.0,0.0,0.006052882778519023,2.238069586460162,0.0,0.0,0.0,0.0,0.0,0.0,0.0,0.0,0.0,0.0,0.0,0.0,0.0,0.0,
1.058,2.2379010179500876,2.231410463170412,2.245486264812408,0.0,0.0,0.006051517838200092,2.238265915310969,0.0,0.0,0.0,0.0,0.0,0.0,0.0,0.0,0.0,0.0,0.0,0.0,0.0,0.0,
1.0734,2.238102707014095,2.2316087103389863,2.245688092217052,0.0,0.0,0.006050120587737109,2.2384665031900446,0.0,0.0,0.0,0.0,0.0,0.0,0.0,0.0,0.0,0.0,0.0,0.0,0.0,0.0,
1.0887,2.238306063959885,2.231808593882869,2.2458915889560718,0.0,0.0,0.006048709023688145,2.238668748932942,0.0,0.0,0.0,0.0,0.0,0.0,0.0,0.0,0.0,0.0,0.0,0.0,0.0,0.0,
1.104,2.2385123927420443,2.23201139537638,2.246098059892099,0.0,0.0,0.006047273997484119,2.238873949336841,0.0,0.0,0.0,0.0,0.0,0.0,0.0,0.0,0.0,0.0,0.0,0.0,0.0,0.0,
1.1194,2.2387230752003044,2.2322184728642807,2.2463088878351147,0.0,0.0,0.006045805743484094,2.2390834786332334,0.0,0.0,0.0,0.0,0.0,0.0,0.0,0.0,0.0,0.0,0.0,0.0,0.0,0.0,
1.1347,2.2389353793216626,2.232427140937781,2.2465213389009038,0.0,0.0,0.006044323172390286,2.239294619720116,0.0,0.0,0.0,0.0,0.0,0.0,0.0,0.0,0.0,0.0,0.0,0.0,0.0,0.0,
1.1501,2.2391520845460047,2.2326401312875435,2.2467381944689073,0.0,0.0,0.00604280674255026,2.239510136767485,0.0,0.0,0.0,0.0,0.0,0.0,0.0,0.0,0.0,0.0,0.0,0.0,0.0,0.0,
1.1654,2.23937038076939,2.23285468183379,2.2469566425016234,0.0,0.0,0.006041275984885169,2.2397272350349344,0.0,0.0,0.0,0.0,0.0,0.0,0.0,0.0,0.0,0.0,0.0,0.0,0.0,0.0,
1.1807,2.2395916697018263,2.233072170118928,2.24717808569663,0.0,0.0,0.006039720966007742,2.2399473085057946,0.0,0.0,0.0,0.0,0.0,0.0,0.0,0.0,0.0,0.0,0.0,0.0,0.0,0.0,
1.1961,2.239817431486448,2.233294050675214,2.2474040052492694,0.0,0.0,0.0060381311144145485,2.2401718291369774,0.0,0.0,0.0,0.0,0.0,0.0,0.0,0.0,0.0,0.0,0.0,0.0,0.0,0.0,
1.2114,2.240044738593731,2.2335174461464558,2.2476314716011947,0.0,0.0,0.006036526906220067,2.2403978854471274,0.0,0.0,0.0,0.0,0.0,0.0,0.0,0.0,0.0,0.0,0.0,0.0,0.0,0.0,
1.2267,2.2402750516920635,2.2337437919440912,2.247861946457574,0.0,0.0,0.006034897924535166,2.240626930031243,0.0,0.0,0.0,0.0,0.0,0.0,0.0,0.0,0.0,0.0,0.0,0.0,0.0,0.0,
1.2421,2.240509910231636,2.2339746007998356,2.248096970371605,0.0,0.0,0.006033233100862328,2.240860493801026,0.0,0.0,0.0,0.0,0.0,0.0,0.0,0.0,0.0,0.0,0.0,0.0,0.0,0.0,
1.2574,2.2407462687379693,2.2342068795886787,2.2483334957424272,0.0,0.0,0.006031553876412876,2.2410955480230252,0.0,0.0,0.0,0.0,0.0,0.0,0.0,0.0,0.0,0.0,0.0,0.0,0.0,0.0,
1.2727,2.2409856470995924,2.2344421218390305,2.248573043545791,0.0,0.0,0.006029849340577622,2.2413336041614715,0.0,0.0,0.0,0.0,0.0,0.0,0.0,0.0,0.0,0.0,0.0,0.0,0.0,0.0,
1.2881,2.241229644350846,2.2346818987443573,2.248817213971148,0.0,0.0,0.006028107916971609,2.2415762523554505,0.0,0.0,0.0,0.0,0.0,0.0,0.0,0.0,0.0,0.0,0.0,0.0,0.0,0.0,
1.3034,2.2414750965301384,2.2349231008970305,2.249062840830543,0.0,0.0,0.006026352032800388,2.241820346085904,0.0,0.0,0.0,0.0,0.0,0.0,0.0,0.0,0.0,0.0,0.0,0.0,0.0,0.0,
1.3187,2.241723583019481,2.2351672802012286,2.2493115046449264,0.0,0.0,0.006024570273002135,2.2420674559552123,0.0,0.0,0.0,0.0,0.0,0.0,0.0,0.0,0.0,0.0,0.0,0.0,0.0,0.0,
1.3341,2.2419767627261713,2.235416066585503,2.249564865530244,0.0,0.0,0.006022750541877438,2.2423192316139726,0.0,0.0,0.0,0.0,0.0,0.0,0.0,0.0,0.0,0.0,0.0,0.0,0.0,0.0,
1.3494,2.242231352636341,2.2356662338241193,2.2498196381436424,0.0,0.0,0.006020916274545028,2.2425724082013674,0.0,0.0,0.0,0.0,0.0,0.0,0.0,0.0,0.0,0.0,0.0,0.0,0.0,0.0,
1.3647,2.24248899191051,2.2359193924667666,2.250077462837701,0.0,0.0,0.006019055540228807,2.242828615738326,0.0,0.0,0.0,0.0,0.0,0.0,0.0,0.0,0.0,0.0,0.0,0.0,0.0,0.0,
1.3801,2.2427513996297117,2.2361772314616664,2.250340059957116,0.0,0.0,0.006017155711938388,2.2430895636828314,0.0,0.0,0.0,0.0,0.0,0.0,0.0,0.0,0.0,0.0,0.0,0.0,0.0,0.0,
1.3954,2.2430151731391694,2.2364364072074876,2.250604024412799,0.0,0.0,0.00601524125567607,2.243351868253152,0.0,0.0,0.0,0.0,0.0,0.0,0.0,0.0,0.0,0.0,0.0,0.0,0.0,0.0,
1.4107,2.243282011674844,2.236698589180379,2.250871056687308,0.0,0.0,0.006013299713145372,2.2436172191808432,0.0,0.0,0.0,0.0,0.0,0.0,0.0,0.0,0.0,0.0,0.0,0.0,0.0,0.0,
1.4261,2.243553694804401,2.236965525644092,2.251142937668586,0.0,0.0,0.006011317913521725,2.243887386039026,0.0,0.0,0.0,0.0,0.0,0.0,0.0,0.0,0.0,0.0,0.0,0.0,0.0,0.0,
1.4414,2.2438266996198033,2.237233755041945,2.2514161419059753,0.0,0.0,0.0060093213777446105,2.2441588655225746,0.0,0.0,0.0,0.0,0.0,0.0,0.0,0.0,0.0,0.0,0.0,0.0,0.0,0.0,
1.4567,2.2441027857414246,2.2375050060687687,2.251692430322623,0.0,0.0,0.006007297107628945,2.2444334073776053,0.0,0.0,0.0,0.0,0.0,0.0,0.0,0.0,0.0,0.0,0.0,0.0,0.0,0.0,
1.4721,2.2443837935488,2.237781086611304,2.251973644676581,0.0,0.0,0.006005231375389962,2.244712841612228,0.0,0.0,0.0,0.0,0.0,0.0,0.0,0.0,0.0,0.0,0.0,0.0,0.0,0.0,
1.4874,2.2446660792441016,2.2380584165550883,2.252256138516039,0.0,0.0,0.006003150782072707,2.244993544771743,0.0,0.0,0.0,0.0,0.0,0.0,0.0,0.0,0.0,0.0,0.0,0.0,0.0,0.0,
1.5027,2.2449514631533827,2.2383387841173583,2.252541733527589,0.0,0.0,0.006001041776657706,2.2452773269327766,0.0,0.0,0.0,0.0,0.0,0.0,0.0,0.0,0.0,0.0,0.0,0.0,0.0,0.0,
1.5181,2.2452418468057886,2.238624057126972,2.252832332678918,0.0,0.0,0.005998890060670434,2.2455660788705596,0.0,0.0,0.0,0.0,0.0,0.0,0.0,0.0,0.0,0.0,0.0,0.0,0.0,0.0,
1.5334,2.245533464852669,2.2389105362863515,2.2531241678527794,0.0,0.0,0.00599672334158114,2.2458560563306,0.0,0.0,0.0,0.0,0.0,0.0,0.0,0.0,0.0,0.0,0.0,0.0,0.0,0.0,
1.5487,2.245828198659476,2.23920006965046,2.253419121834669,0.0,0.0,0.0059945275019926735,2.246149130048202,0.0,0.0,0.0,0.0,0.0,0.0,0.0,0.0,0.0,0.0,0.0,0.0,0.0,0.0,
1.5641,2.2461280112554087,2.2394945853213213,2.2537191591542176,0.0,0.0,0.00599228765838939,2.246447251910316,0.0,0.0,0.0,0.0,0.0,0.0,0.0,0.0,0.0,0.0,0.0,0.0,0.0,0.0,
1.5794,2.2464290150550887,2.239790264169544,2.2540203893393826,0.0,0.0,0.005990032652173489,2.2467465561880053,0.0,0.0,0.0,0.0,0.0,0.0,0.0,0.0,0.0,0.0,0.0,0.0,0.0,0.0,
1.5947,2.246733152809701,2.240089014415031,2.2543247566227187,0.0,0.0,0.005987747785410508,2.247048974615817,0.0,0.0,0.0,0.0,0.0,0.0,0.0,0.0,0.0,0.0,0.0,0.0,0.0,0.0,
1.6101,2.247042449411957,2.2403928247760776,2.254634287461256,0.0,0.0,0.005985417574549538,2.2473565205497636,0.0,0.0,0.0,0.0,0.0,0.0,0.0,0.0,0.0,0.0,0.0,0.0,0.0,0.0,
1.6254,2.2473528943284333,2.240697755619099,2.2549449683131524,0.0,0.0,0.005983072023657225,2.2476652060868947,0.0,0.0,0.0,0.0,0.0,0.0,0.0,0.0,0.0,0.0,0.0,0.0,0.0,0.0,
1.6407,2.2476664920553135,2.241005775668155,2.2552588052192846,0.0,0.0,0.005980695839465685,2.247977024314251,0.0,0.0,0.0,0.0,0.0,0.0,0.0,0.0,0.0,0.0,0.0,0.0,0.0,0.0,
1.6561,2.247985329725433,2.2413189346131954,2.255577886942728,0.0,0.0,0.00597827292272971,2.2482940504271185,0.0,0.0,0.0,0.0,0.0,0.0,0.0,0.0,0.0,0.0,0.0,0.0,0.0,0.0,
1.6714,2.248305273120228,2.241633171620019,2.25589807613094,0.0,0.0,0.005975834470179391,2.248612173623729,0.0,0.0,0.0,0.0,0.0,0.0,0.0,0.0,0.0,0.0,0.0,0.0,0.0,0.0,
1.6867,2.2486283888532688,2.2419505162682647,2.2562214410075194,0.0,0.0,0.0059733645777590464,2.248933448709684,0.0,0.0,0.0,0.0,0.0,0.0,0.0,0.0,0.0,0.0,0.0,0.0,0.0,0.0,
1.7021,2.248956826687524,2.2422730795874397,2.256550133033846,0.0,0.0,0.005970846514182733,2.2492600131029366,0.0,0.0,0.0,0.0,0.0,0.0,0.0,0.0,0.0,0.0,0.0,0.0,0.0,0.0,
1.7174,2.249286327955984,2.242596678821776,2.2568798902792455,0.0,0.0,0.005968312700152312,2.2495876323523354,0.0,0.0,0.0,0.0,0.0,0.0,0.0,0.0,0.0,0.0,0.0,0.0,0.0,0.0,
1.7327,2.2496190217753127,2.2429234047703552,2.2572128435379497,0.0,0.0,0.005965746604689169,2.249918423361206,0.0,0.0,0.0,0.0,0.0,0.0,0.0,0.0,0.0,0.0,0.0,0.0,0.0,0.0,
1.7481,2.2499571209423435,2.2432554301828556,2.2575512073756645,0.0,0.0,0.005963130847407853,2.2502545861669545,0.0,0.0,0.0,0.0,0.0,0.0,0.0,0.0,0.0,0.0,0.0,0.0,0.0,0.0,
1.7634,2.2502962415515277,2.2435884496361265,2.257890594489247,0.0,0.0,0.005960499105645295,2.2505917618923004,0.0,0.0,0.0,0.0,0.0,0.0,0.0,0.0,0.0,0.0,0.0,0.0,0.0,0.0,
1.7787,2.250638575621961,2.243924615525196,2.258233198645124,0.0,0.0,0.005957834204659693,2.2509321299307605,0.0,0.0,0.0,0.0,0.0,0.0,0.0,0.0,0.0,0.0,0.0,0.0,0.0,0.0,
1.7941,2.2509863994019543,2.244266162713454,2.258581297933497,0.0,0.0,0.005955118097170268,2.251277953349635,0.0,0.0,0.0,0.0,0.0,0.0,0.0,0.0,0.0,0.0,0.0,0.0,0.0,0.0,
