energies(eV),real_xx,real_yy,real_zz,real_xy,real_yz,real_xz,real_ave,imag_xx,imag_yy,imag_zz,imag_xy,imag_yz,imag_xz,imag_ave,absorption_xx,absorption_yy,absorption_zz,absorption_xy,absorption_yz,absorption_xz,absorption_ave,band_gap
0.0,2.824184799086663,2.824184799086663,2.806187566639322,0.0,0.0,0.0,2.818185721604216,0.0,0.0,0.0,0.0,0.0,0.0,0.0,0.0,0.0,0.0,0.0,0.0,0.0,0.0,5.7579
0.0195,2.8241896659728303,2.8241896659728303,2.8061922681137617,0.0,0.0,0.0,2.8181905333531407,0.0,0.0,0.0,0.0,0.0,0.0,0.0,0.0,0.0,0.0,0.0,0.0,0.0,0.0,
0.039,2.8242042668616394,2.8242042668616394,2.806206372750774,0.0,0.0,0.0,2.818204968824684,0.0,0.0,0.0,0.0,0.0,0.0,0.0,0.0,0.0,0.0,0.0,0.0,0.0,0.0,
0.0586,2.824228752332398,2.824228752332398,2.8062300259851334,0.0,0.0,0.0,2.81822917688331,0.0,0.0,0.0,0.0,0.0,0.0,0.0,0.0,0.0,0.0,0.0,0.0,0.0,0.0,
0.0781,2.8242628736911346,2.8242628736911346,2.8062629875314804,0.0,0.0,0.0,2.8182629116379165,0.0,0.0,0.0,0.0,0.0,0.0,0.0,0.0,0.0,0.0,0.0,0.0,0.0,0.0,
0.0976,2.8243067325170994,2.8243067325170994,2.806305355454861,0.0,0.0,0.0,2.818306273496353,0.0,0.0,0.0,0.0,0.0,0.0,0.0,0.0,0.0,0.0,0.0,0.0,0.0,0.0,
0.1171,2.82436033088633,2.82436033088633,2.8063571316814246,0.0,0.0,0.0,2.8183592644846946,0.0,0.0,0.0,0.0,0.0,0.0,0.0,0.0,0.0,0.0,0.0,0.0,0.0,0.0,
0.1366,2.8244236713363566,2.8244236713363566,2.8064183185653944,0.0,0.0,0.0,2.8184218870793694,0.0,0.0,0.0,0.0,0.0,0.0,0.0,0.0,0.0,0.0,0.0,0.0,0.0,0.0,
0.1562,2.8244971567853803,2.8244971567853803,2.8064893052085886,0.0,0.0,0.0,2.8184945395931162,0.0,0.0,0.0,0.0,0.0,0.0,0.0,0.0,0.0,0.0,0.0,0.0,0.0,0.0,
0.1757,2.8245800408594954,2.8245800408594954,2.8065693704838086,0.0,0.0,0.0,2.8185764840676,0.0,0.0,0.0,0.0,0.0,0.0,0.0,0.0,0.0,0.0,0.0,0.0,0.0,0.0,
0.1952,2.824672677421108,2.824672677421108,2.8066588560712007,0.0,0.0,0.0,2.818668070304472,0.0,0.0,0.0,0.0,0.0,0.0,0.0,0.0,0.0,0.0,0.0,0.0,0.0,0.0,
0.2147,2.8247750708603596,2.8247750708603596,2.80675776604353,0.0,0.0,0.0,2.8187693025880827,0.0,0.0,0.0,0.0,0.0,0.0,0.0,0.0,0.0,0.0,0.0,0.0,0.0,0.0,
0.2342,2.8248872260314695,2.8248872260314695,2.806866104903939,0.0,0.0,0.0,2.818880185655626,0.0,0.0,0.0,0.0,0.0,0.0,0.0,0.0,0.0,0.0,0.0,0.0,0.0,0.0,
0.2538,2.8250097986775238,2.8250097986775238,2.8069845058714593,0.0,0.0,0.0,2.819001367742169,0.0,0.0,0.0,0.0,0.0,0.0,0.0,0.0,0.0,0.0,0.0,0.0,0.0,0.0,
0.2733,2.825141543867703,2.825141543867703,2.8071117661628495,0.0,0.0,0.0,2.8191316179660855,0.0,0.0,0.0,0.0,0.0,0.0,0.0,0.0,0.0,0.0,0.0,0.0,0.0,0.0,
0.2928,2.825283068177516,2.825283068177516,2.807248471471497,0.0,0.0,0.0,2.819271535942176,0.0,0.0,0.0,0.0,0.0,0.0,0.0,0.0,0.0,0.0,0.0,0.0,0.0,0.0,
0.3123,2.825434378327688,2.825434378327688,2.8073946280312043,0.0,0.0,0.0,2.81942112822886,0.0,0.0,0.0,0.0,0.0,0.0,0.0,0.0,0.0,0.0,0.0,0.0,0.0,0.0,
0.3318,2.825595481507367,2.825595481507367,2.8075502425099614,0.0,0.0,0.0,2.819580401841565,0.0,0.0,0.0,0.0,0.0,0.0,0.0,0.0,0.0,0.0,0.0,0.0,0.0,0.0,
0.3514,2.8257672870778574,2.8257672870778574,2.8077161929789733,0.0,0.0,0.0,2.8197502557115626,0.0,0.0,0.0,0.0,0.0,0.0,0.0,0.0,0.0,0.0,0.0,0.0,0.0,0.0,
0.3709,2.8259480500862724,2.8259480500862724,2.807890793638715,0.0,0.0,0.0,2.819928964603753,0.0,0.0,0.0,0.0,0.0,0.0,0.0,0.0,0.0,0.0,0.0,0.0,0.0,0.0,
0.3904,2.826138630558286,2.826138630558286,2.8080748748782947,0.0,0.0,0.0,2.8201173786649556,0.0,0.0,0.0,0.0,0.0,0.0,0.0,0.0,0.0,0.0,0.0,0.0,0.0,0.0,
0.4099,2.8263390375705035,2.8263390375705035,2.8082684451147246,0.0,0.0,0.0,2.8203155067519106,0.0,0.0,0.0,0.0,0.0,0.0,0.0,0.0,0.0,0.0,0.0,0.0,0.0,0.0,
0.4295,2.8265503842109254,2.8265503842109254,2.8084725790735465,0.0,0.0,0.0,2.8205244491651325,0.0,0.0,0.0,0.0,0.0,0.0,0.0,0.0,0.0,0.0,0.0,0.0,0.0,0.0,
0.449,2.8267705239523186,2.8267705239523186,2.808685203093432,0.0,0.0,0.0,2.820742083666023,0.0,0.0,0.0,0.0,0.0,0.0,0.0,0.0,0.0,0.0,0.0,0.0,0.0,0.0,
0.4685,2.827000520371624,2.827000520371624,2.808907344054571,0.0,0.0,0.0,2.820969461599273,0.0,0.0,0.0,0.0,0.0,0.0,0.0,0.0,0.0,0.0,0.0,0.0,0.0,0.0,
0.488,2.8272403844548437,2.8272403844548437,2.809139012142221,0.0,0.0,0.0,2.8212065936839696,0.0,0.0,0.0,0.0,0.0,0.0,0.0,0.0,0.0,0.0,0.0,0.0,0.0,0.0,
0.5075,2.8274901276686943,2.8274901276686943,2.809380217986595,0.0,0.0,0.0,2.8214534911079947,0.0,0.0,0.0,0.0,0.0,0.0,0.0,0.0,0.0,0.0,0.0,0.0,0.0,0.0,
0.5271,2.827751118933322,2.827751118933322,2.809632283215242,0.0,0.0,0.0,2.8217115070272953,0.0,0.0,0.0,0.0,0.0,0.0,0.0,0.0,0.0,0.0,0.0,0.0,0.0,0.0,
0.5466,2.8280207075604284,2.8280207075604284,2.8098926473092765,0.0,0.0,0.0,2.8219780208100445,0.0,0.0,0.0,0.0,0.0,0.0,0.0,0.0,0.0,0.0,0.0,0.0,0.0,0.0,
0.5661,2.828300212687988,2.828300212687988,2.810162583798681,0.0,0.0,0.0,2.8222543363915524,0.0,0.0,0.0,0.0,0.0,0.0,0.0,0.0,0.0,0.0,0.0,0.0,0.0,0.0,
0.5856,2.8285896477262975,2.8285896477262975,2.8104421051118074,0.0,0.0,0.0,2.8225404668548006,0.0,0.0,0.0,0.0,0.0,0.0,0.0,0.0,0.0,0.0,0.0,0.0,0.0,0.0,
0.6051,2.828889026575828,2.828889026575828,2.8107312241302527,0.0,0.0,0.0,2.822836425760636,0.0,0.0,0.0,0.0,0.0,0.0,0.0,0.0,0.0,0.0,0.0,0.0,0.0,0.0,
0.6247,2.829199975663511,2.829199975663511,2.811031510933412,0.0,0.0,0.0,2.823143820753478,0.0,0.0,0.0,0.0,0.0,0.0,0.0,0.0,0.0,0.0,0.0,0.0,0.0,0.0,
0.6442,2.8295193369917557,2.8295193369917557,2.8113399152241705,0.0,0.0,0.0,2.823459529735894,0.0,0.0,0.0,0.0,0.0,0.0,0.0,0.0,0.0,0.0,0.0,0.0,0.0,0.0,
0.6637,2.829848686875733,2.829848686875733,2.8116579586778547,0.0,0.0,0.0,2.8237851108097733,0.0,0.0,0.0,0.0,0.0,0.0,0.0,0.0,0.0,0.0,0.0,0.0,0.0,0.0,
0.6832,2.8301880412013625,2.8301880412013625,2.8119856560107537,0.0,0.0,0.0,2.8241205794711597,0.0,0.0,0.0,0.0,0.0,0.0,0.0,0.0,0.0,0.0,0.0,0.0,0.0,0.0,
0.7027,2.8305374163561883,2.8305374163561883,2.8123230224024445,0.0,0.0,0.0,2.8244659517049406,0.0,0.0,0.0,0.0,0.0,0.0,0.0,0.0,0.0,0.0,0.0,0.0,0.0,0.0,
0.7223,2.8308986982743756,2.8308986982743756,2.8126718782346547,0.0,0.0,0.0,2.8248230915944688,0.0,0.0,0.0,0.0,0.0,0.0,0.0,0.0,0.0,0.0,0.0,0.0,0.0,0.0,
0.7418,2.831268217879974,2.831268217879974,2.81302867993692,0.0,0.0,0.0,2.8251883718989563,0.0,0.0,0.0,0.0,0.0,0.0,0.0,0.0,0.0,0.0,0.0,0.0,0.0,0.0,
0.7613,2.831647810606185,2.831647810606185,2.81339519912496,0.0,0.0,0.0,2.82556360677911,0.0,0.0,0.0,0.0,0.0,0.0,0.0,0.0,0.0,0.0,0.0,0.0,0.0,0.0,
0.7808,2.8320374948758706,2.8320374948758706,2.813771452856651,0.0,0.0,0.0,2.8259488142027975,0.0,0.0,0.0,0.0,0.0,0.0,0.0,0.0,0.0,0.0,0.0,0.0,0.0,0.0,
0.8003,2.8324372896270757,2.8324372896270757,2.814157458664938,0.0,0.0,0.0,2.8263440126396966,0.0,0.0,0.0,0.0,0.0,0.0,0.0,0.0,0.0,0.0,0.0,0.0,0.0,0.0,
0.8199,2.8328493426354666,2.8328493426354666,2.8145552893919303,0.0,0.0,0.0,2.826751324887621,0.0,0.0,0.0,0.0,0.0,0.0,0.0,0.0,0.0,0.0,0.0,0.0,0.0,0.0,
0.8394,2.8332694693426106,2.8332694693426106,2.8149609041116155,0.0,0.0,0.0,2.827166614265612,0.0,0.0,0.0,0.0,0.0,0.0,0.0,0.0,0.0,0.0,0.0,0.0,0.0,0.0,
0.8589,2.8336997665728334,2.8336997665728334,2.8153763264816565,0.0,0.0,0.0,2.827591953209108,0.0,0.0,0.0,0.0,0.0,0.0,0.0,0.0,0.0,0.0,0.0,0.0,0.0,0.0,
0.8784,2.834140255357961,2.834140255357961,2.815801575964236,0.0,0.0,0.0,2.828027362226719,0.0,0.0,0.0,0.0,0.0,0.0,0.0,0.0,0.0,0.0,0.0,0.0,0.0,0.0,
0.8979,2.8345909572606587,2.8345909572606587,2.8162366725102457,0.0,0.0,0.0,2.8284728623438546,0.0,0.0,0.0,0.0,0.0,0.0,0.0,0.0,0.0,0.0,0.0,0.0,0.0,0.0,
0.9175,2.835054284575372,2.835054284575372,2.816683943896114,0.0,0.0,0.0,2.828930837682286,0.0,0.0,0.0,0.0,0.0,0.0,0.0,0.0,0.0,0.0,0.0,0.0,0.0,0.0,
0.937,2.835525532205276,2.835525532205276,2.8171388471562957,0.0,0.0,0.0,2.829396637188949,0.0,0.0,0.0,0.0,0.0,0.0,0.0,0.0,0.0,0.0,0.0,0.0,0.0,0.0,
0.9565,2.8360070609805472,2.8360070609805472,2.817603660406262,0.0,0.0,0.0,2.8298725941224525,0.0,0.0,0.0,0.0,0.0,0.0,0.0,0.0,0.0,0.0,0.0,0.0,0.0,0.0,
0.976,2.8364988946250516,2.8364988946250516,2.8180784055848855,0.0,0.0,0.0,2.8303587316116627,0.0,0.0,0.0,0.0,0.0,0.0,0.0,0.0,0.0,0.0,0.0,0.0,0.0,0.0,
0.9955,2.8370010574114874,2.8370010574114874,2.8185631051354356,0.0,0.0,0.0,2.8308550733194706,0.0,0.0,0.0,0.0,0.0,0.0,0.0,0.0,0.0,0.0,0.0,0.0,0.0,0.0,
1.0151,2.837516229184594,2.837516229184594,2.819060344567704,0.0,0.0,0.0,2.8313642676456308,0.0,0.0,0.0,0.0,0.0,0.0,0.0,0.0,0.0,0.0,0.0,0.0,0.0,0.0,
1.0346,2.838039178581738,2.838039178581738,2.8195650735739535,0.0,0.0,0.0,2.831881143579143,0.0,0.0,0.0,0.0,0.0,0.0,0.0,0.0,0.0,0.0,0.0,0.0,0.0,0.0,
1.0541,2.8385725334059213,2.8385725334059213,2.820079827466861,0.0,0.0,0.0,2.832408298092901,0.0,0.0,0.0,0.0,0.0,0.0,0.0,0.0,0.0,0.0,0.0,0.0,0.0,0.0,
1.0736,2.8391163201680376,2.8391163201680376,2.8206046307446853,0.0,0.0,0.0,2.83294575702692,0.0,0.0,0.0,0.0,0.0,0.0,0.0,0.0,0.0,0.0,0.0,0.0,0.0,0.0,
1.0931,2.8396705659483876,2.8396705659483876,2.82113950842784,0.0,0.0,0.0,2.8334935467748714,0.0,0.0,0.0,0.0,0.0,0.0,0.0,0.0,0.0,0.0,0.0,0.0,0.0,0.0,
1.1127,2.840238221539998,2.840238221539998,2.8216873068946686,0.0,0.0,0.0,2.8340545833248885,0.0,0.0,0.0,0.0,0.0,0.0,0.0,0.0,0.0,0.0,0.0,0.0,0.0,0.0,
1.1322,2.840813522893412,2.840813522893412,2.822242462554227,0.0,0.0,0.0,2.834623169447017,0.0,0.0,0.0,0.0,0.0,0.0,0.0,0.0,0.0,0.0,0.0,0.0,0.0,0.0,
1.1517,2.841399368115768,2.841399368115768,2.8228077709901402,0.0,0.0,0.0,2.835202169073892,0.0,0.0,0.0,0.0,0.0,0.0,0.0,0.0,0.0,0.0,0.0,0.0,0.0,0.0,
1.1712,2.8419957866128787,2.8419957866128787,2.8233832593535837,0.0,0.0,0.0,2.8357916108597805,0.0,0.0,0.0,0.0,0.0,0.0,0.0,0.0,0.0,0.0,0.0,0.0,0.0,0.0,
1.1908,2.8426059486949744,2.8426059486949744,2.8239719852631793,0.0,0.0,0.0,2.8363946275510425,0.0,0.0,0.0,0.0,0.0,0.0,0.0,0.0,0.0,0.0,0.0,0.0,0.0,0.0,
1.2103,2.8432236589465605,2.8432236589465605,2.8245679696739545,0.0,0.0,0.0,2.8370050958556923,0.0,0.0,0.0,0.0,0.0,0.0,0.0,0.0,0.0,0.0,0.0,0.0,0.0,0.0,
1.2298,2.843852034426874,2.843852034426874,2.8251742188858566,0.0,0.0,0.0,2.837626095913201,0.0,0.0,0.0,0.0,0.0,0.0,0.0,0.0,0.0,0.0,0.0,0.0,0.0,0.0,
1.2493,2.8444911069451244,2.8444911069451244,2.8257907622482312,0.0,0.0,0.0,2.838257658712827,0.0,0.0,0.0,0.0,0.0,0.0,0.0,0.0,0.0,0.0,0.0,0.0,0.0,0.0,
1.2688,2.8451409089236104,2.8451409089236104,2.8264176296705843,0.0,0.0,0.0,2.838899815839268,0.0,0.0,0.0,0.0,0.0,0.0,0.0,0.0,0.0,0.0,0.0,0.0,0.0,0.0,
1.2884,2.845804888708721,2.845804888708721,2.8270581461715816,0.0,0.0,0.0,2.839555974529675,0.0,0.0,0.0,0.0,0.0,0.0,0.0,0.0,0.0,0.0,0.0,0.0,0.0,0.0,
1.3079,2.8464763048071138,2.8464763048071138,2.827705807046759,0.0,0.0,0.0,2.8402194722203284,0.0,0.0,0.0,0.0,0.0,0.0,0.0,0.0,0.0,0.0,0.0,0.0,0.0,0.0,
1.3274,2.847158551543827,2.847158551543827,2.8283638852822564,0.0,0.0,0.0,2.84089366278997,0.0,0.0,0.0,0.0,0.0,0.0,0.0,0.0,0.0,0.0,0.0,0.0,0.0,0.0,
1.3469,2.8478516638525324,2.8478516638525324,2.8290324130791307,0.0,0.0,0.0,2.841578580261398,0.0,0.0,0.0,0.0,0.0,0.0,0.0,0.0,0.0,0.0,0.0,0.0,0.0,0.0,
1.3664,2.8485556773085223,2.8485556773085223,2.829711423223211,0.0,0.0,0.0,2.842274259280085,0.0,0.0,0.0,0.0,0.0,0.0,0.0,0.0,0.0,0.0,0.0,0.0,0.0,0.0,
1.386,2.8492743228009227,2.8492743228009227,2.8304045122803094,0.0,0.0,0.0,2.8429843859607185,0.0,0.0,0.0,0.0,0.0,0.0,0.0,0.0,0.0,0.0,0.0,0.0,0.0,0.0,
1.4055,2.850000304248898,2.850000304248898,2.831104642031238,0.0,0.0,0.0,2.843701750176345,0.0,0.0,0.0,0.0,0.0,0.0,0.0,0.0,0.0,0.0,0.0,0.0,0.0,0.0,
1.425,2.8507372976756757,2.8507372976756757,2.8318153562273167,0.0,0.0,0.0,2.844429983859556,0.0,0.0,0.0,0.0,0.0,0.0,0.0,0.0,0.0,0.0,0.0,0.0,0.0,0.0,
1.4445,2.851485341288803,2.851485341288803,2.832536690050267,0.0,0.0,0.0,2.8451691242092907,0.0,0.0,0.0,0.0,0.0,0.0,0.0,0.0,0.0,0.0,0.0,0.0,0.0,0.0,
1.464,2.85224447396934,2.85224447396934,2.833268679294,0.0,0.0,0.0,2.8459192090775596,0.0,0.0,0.0,0.0,0.0,0.0,0.0,0.0,0.0,0.0,0.0,0.0,0.0,0.0,
1.4836,2.8530187140870225,2.8530187140870225,2.8340151966105154,0.0,0.0,0.0,2.8466842082615202,0.0,0.0,0.0,0.0,0.0,0.0,0.0,0.0,0.0,0.0,0.0,0.0,0.0,0.0,
1.5031,2.8538002016550656,2.8538002016550656,2.834768661672313,0.0,0.0,0.0,2.8474563549941485,0.0,0.0,0.0,0.0,0.0,0.0,0.0,0.0,0.0,0.0,0.0,0.0,0.0,0.0,
1.5226,2.8545928992553766,2.8545928992553766,2.835532893464066,0.0,0.0,0.0,2.8482395639916063,0.0,0.0,0.0,0.0,0.0,0.0,0.0,0.0,0.0,0.0,0.0,0.0,0.0,0.0,
1.5421,2.85539684853622,2.85539684853622,2.8363079302916985,0.0,0.0,0.0,2.8490338757880465,0.0,0.0,0.0,0.0,0.0,0.0,0.0,0.0,0.0,0.0,0.0,0.0,0.0,0.0,
1.5616,2.85621209185495,2.85621209185495,2.837093811103998,0.0,0.0,0.0,2.849839331604633,0.0,0.0,0.0,0.0,0.0,0.0,0.0,0.0,0.0,0.0,0.0,0.0,0.0,0.0,
1.5812,2.8570429404533275,2.8570429404533275,2.8378946895890715,0.0,0.0,0.0,2.8506601901652417,0.0,0.0,0.0,0.0,0.0,0.0,0.0,0.0,0.0,0.0,0.0,0.0,0.0,0.0,
1.6007,2.857880960272091,2.857880960272091,2.8387024339454445,0.0,0.0,0.0,2.851488118163209,0.0,0.0,0.0,0.0,0.0,0.0,0.0,0.0,0.0,0.0,0.0,0.0,0.0,0.0,
1.6202,2.8587304057622127,2.8587304057622127,2.839521143266923,0.0,0.0,0.0,2.8523273182637827,0.0,0.0,0.0,0.0,0.0,0.0,0.0,0.0,0.0,0.0,0.0,0.0,0.0,0.0,
1.6397,2.8595913221986624,2.8595913221986624,2.840350859143414,0.0,0.0,0.0,2.853177834513579,0.0,0.0,0.0,0.0,0.0,0.0,0.0,0.0,0.0,0.0,0.0,0.0,0.0,0.0,
1.6592,2.8604637556051014,2.8604637556051014,2.841191623841563,0.0,0.0,0.0,2.8540397116839222,0.0,0.0,0.0,0.0,0.0,0.0,0.0,0.0,0.0,0.0,0.0,0.0,0.0,0.0,
1.6788,2.861352315965383,2.861352315965383,2.8420478774679596,0.0,0.0,0.0,2.8549175031329086,0.0,0.0,0.0,0.0,0.0,0.0,0.0,0.0,0.0,0.0,0.0,0.0,0.0,0.0,
1.6983,2.862247984088996,2.862247984088996,2.8429109265712,0.0,0.0,0.0,2.855802298249731,0.0,0.0,0.0,0.0,0.0,0.0,0.0,0.0,0.0,0.0,0.0,0.0,0.0,0.0,
1.7178,2.8631553120809468,2.8631553120809468,2.8437851556589324,0.0,0.0,0.0,2.856698593273608,0.0,0.0,0.0,0.0,0.0,0.0,0.0,0.0,0.0,0.0,0.0,0.0,0.0,0.0,
1.7373,2.864074349049966,2.864074349049966,2.8446706097823102,0.0,0.0,0.0,2.857606435960747,0.0,0.0,0.0,0.0,0.0,0.0,0.0,0.0,0.0,0.0,0.0,0.0,0.0,0.0,
1.7568,2.8650051448975513,2.8650051448975513,2.8455673347068955,0.0,0.0,0.0,2.8585258748339992,0.0,0.0,0.0,0.0,0.0,0.0,0.0,0.0,0.0,0.0,0.0,0.0,0.0,0.0,
1.7764,2.8659526147261047,2.8659526147261047,2.846480062796,0.0,0.0,0.0,2.8594617640827367,0.0,0.0,0.0,0.0,0.0,0.0,0.0,0.0,0.0,0.0,0.0,0.0,0.0,0.0,
1.7959,2.8669071422141,2.8669071422141,2.8473995279203175,0.0,0.0,0.0,2.8604046041161726,0.0,0.0,0.0,0.0,0.0,0.0,0.0,0.0,0.0,0.0,0.0,0.0,0.0,0.0,
1.8154,2.8678735834074076,2.8678735834074076,2.848330405758115,0.0,0.0,0.0,2.8613591908576432,0.0,0.0,0.0,0.0,0.0,0.0,0.0,0.0,0.0,0.0,0.0,0.0,0.0,0.0,
1.8349,2.86885199147896,2.86885199147896,2.849272745018444,0.0,0.0,0.0,2.8623255759921213,0.0,0.0,0.0,0.0,0.0,0.0,0.0,0.0,0.0,0.0,0.0,0.0,0.0,0.0,
1.8544,2.8698424204434807,2.8698424204434807,2.8502265951665606,0.0,0.0,0.0,2.863303812017841,0.0,0.0,0.0,0.0,0.0,0.0,0.0,0.0,0.0,0.0,0.0,0.0,0.0,0.0,
1.874,2.870850097435765,2.870850097435765,2.8511969871433225,0.0,0.0,0.0,2.8642990606716174,0.0,0.0,0.0,0.0,0.0,0.0,0.0,0.0,0.0,0.0,0.0,0.0,0.0,0.0,
1.8935,2.8718647960081154,2.8718647960081154,2.85217407021456,0.0,0.0,0.0,2.865301220743597,0.0,0.0,0.0,0.0,0.0,0.0,0.0,0.0,0.0,0.0,0.0,0.0,0.0,0.0,
1.913,2.872891682966791,2.872891682966791,2.853162817464211,0.0,0.0,0.0,2.8663153944659308,0.0,0.0,0.0,0.0,0.0,0.0,0.0,0.0,0.0,0.0,0.0,0.0,0.0,0.0,
1.9325,2.873930815805138,2.873930815805138,2.8541632814772706,0.0,0.0,0.0,2.867341637695849,0.0,0.0,0.0,0.0,0.0,0.0,0.0,0.0,0.0,0.0,0.0,0.0,0.0,0.0,
1.9521,2.8749876767110605,2.8749876767110605,2.855180737013397,0.0,0.0,0.0,2.868385363478506,0.0,0.0,0.0,0.0,0.0,0.0,0.0,0.0,0.0,0.0,0.0,0.0,0.0,0.0,
1.9716,2.8760515409434104,2.8760515409434104,2.8562048563071913,0.0,0.0,0.0,2.869435979398004,0.0,0.0,0.0,0.0,0.0,0.0,0.0,0.0,0.0,0.0,0.0,0.0,0.0,0.0,
1.9911,2.877127829271906,2.877127829271906,2.857240855258742,0.0,0.0,0.0,2.8704988379341843,0.0,0.0,0.0,0.0,0.0,0.0,0.0,0.0,0.0,0.0,0.0,0.0,0.0,0.0,
2.0106,2.8782166028510723,2.8782166028510723,2.8582887897275193,0.0,0.0,0.0,2.8715739984765545,0.0,0.0,0.0,0.0,0.0,0.0,0.0,0.0,0.0,0.0,0.0,0.0,0.0,0.0,
2.0301,2.8793179237799293,2.8793179237799293,2.8593487164163234,0.0,0.0,0.0,2.8726615213253943,0.0,0.0,0.0,0.0,0.0,0.0,0.0,0.0,0.0,0.0,0.0,0.0,0.0,0.0,
2.0497,2.8804376001930674,2.8804376001930674,2.8604262213526073,0.0,0.0,0.0,2.873767140579581,0.0,0.0,0.0,0.0,0.0,0.0,0.0,0.0,0.0,0.0,0.0,0.0,0.0,0.0,
2.0692,2.881564271123623,2.881564271123623,2.861510368261853,0.0,0.0,0.0,2.8748796368363663,0.0,0.0,0.0,0.0,0.0,0.0,0.0,0.0,0.0,0.0,0.0,0.0,0.0,0.0,
2.0887,2.882703681831743,2.882703681831743,2.862606682973439,0.0,0.0,0.0,2.876004682212308,0.0,0.0,0.0,0.0,0.0,0.0,0.0,0.0,0.0,0.0,0.0,0.0,0.0,0.0,
2.1082,2.883855898328891,2.883855898328891,2.8637152256769944,0.0,0.0,0.0,2.8771423407782586,0.0,0.0,0.0,0.0,0.0,0.0,0.0,0.0,0.0,0.0,0.0,0.0,0.0,0.0,
2.1277,2.8850209876372563,2.8850209876372563,2.864836057461277,0.0,0.0,0.0,2.8782926775785964,0.0,0.0,0.0,0.0,0.0,0.0,0.0,0.0,0.0,0.0,0.0,0.0,0.0,0.0,
2.1473,2.886205092454535,2.886205092454535,2.865975083460028,0.0,0.0,0.0,2.879461756123033,0.0,0.0,0.0,0.0,0.0,0.0,0.0,0.0,0.0,0.0,0.0,0.0,0.0,0.0,
2.1668,2.8873961994629345,2.8873961994629345,2.8671207441533664,0.0,0.0,0.0,2.8806377143597452,0.0,0.0,0.0,0.0,0.0,0.0,0.0,0.0,0.0,0.0,0.0,0.0,0.0,0.0,
2.1863,2.8886003869182115,2.8886003869182115,2.8682788830381822,0.0,0.0,0.0,2.8818265522915354,0.0,0.0,0.0,0.0,0.0,0.0,0.0,0.0,0.0,0.0,0.0,0.0,0.0,0.0,
2.2058,2.8898177260350337,2.8898177260350337,2.8694495649258367,0.0,0.0,0.0,2.883028338998635,0.0,0.0,0.0,0.0,0.0,0.0,0.0,0.0,0.0,0.0,0.0,0.0,0.0,0.0,
2.2253,2.891048289112509,2.891048289112509,2.8706328555887426,0.0,0.0,0.0,2.884243144604587,0.0,0.0,0.0,0.0,0.0,0.0,0.0,0.0,0.0,0.0,0.0,0.0,0.0,0.0,
2.2449,2.8922985627199713,2.8922985627199713,2.8718349877178566,0.0,0.0,0.0,2.8854773710525996,0.0,0.0,0.0,0.0,0.0,0.0,0.0,0.0,0.0,0.0,0.0,0.0,0.0,0.0,
2.2644,2.8935558638007954,2.8935558638007954,2.8730437626856284,0.0,0.0,0.0,2.886718496762407,0.0,0.0,0.0,0.0,0.0,0.0,0.0,0.0,0.0,0.0,0.0,0.0,0.0,0.0,
2.2839,2.894826612796569,2.894826612796569,2.874265350001054,0.0,0.0,0.0,2.887972858531397,0.0,0.0,0.0,0.0,0.0,0.0,0.0,0.0,0.0,0.0,0.0,0.0,0.0,0.0,
2.3034,2.8961108865112,2.8961108865112,2.8754998194210097,0.0,0.0,0.0,2.88924053081447,0.0,0.0,0.0,0.0,0.0,0.0,0.0,0.0,0.0,0.0,0.0,0.0,0.0,0.0,
2.3229,2.897408762915491,2.897408762915491,2.8767472417324234,0.0,0.0,0.0,2.890521589187802,0.0,0.0,0.0,0.0,0.0,0.0,0.0,0.0,0.0,0.0,0.0,0.0,0.0,0.0,
2.3425,2.8987270825038234,2.8987270825038234,2.8780141862909114,0.0,0.0,0.0,2.891822783766186,0.0,0.0,0.0,0.0,0.0,0.0,0.0,0.0,0.0,0.0,0.0,0.0,0.0,0.0,
2.362,2.9000524737400655,2.9000524737400655,2.8792877982966445,0.0,0.0,0.0,2.8931309152589253,0.0,0.0,0.0,0.0,0.0,0.0,0.0,0.0,0.0,0.0,0.0,0.0,0.0,0.0,
2.3815,2.9013917091787693,2.9013917091787693,2.880574582265126,0.0,0.0,0.0,2.8944526668742214,0.0,0.0,0.0,0.0,0.0,0.0,0.0,0.0,0.0,0.0,0.0,0.0,0.0,0.0,
2.401,2.902744871644413,2.902744871644413,2.881874613258927,0.0,0.0,0.0,2.8957881188492514,0.0,0.0,0.0,0.0,0.0,0.0,0.0,0.0,0.0,0.0,0.0,0.0,0.0,0.0,
2.4205,2.9041120452203977,2.9041120452203977,2.883187967447368,0.0,0.0,0.0,2.8971373526293878,0.0,0.0,0.0,0.0,0.0,0.0,0.0,0.0,0.0,0.0,0.0,0.0,0.0,0.0,
2.4401,2.905500435183798,2.905500435183798,2.8845215606639876,0.0,0.0,0.0,2.898507477010528,0.0,0.0,0.0,0.0,0.0,0.0,0.0,0.0,0.0,0.0,0.0,0.0,0.0,0.0,
2.4596,2.906895961324985,2.906895961324985,2.885861863585408,0.0,0.0,0.0,2.8998845954117924,0.0,0.0,0.0,0.0,0.0,0.0,0.0,0.0,0.0,0.0,0.0,0.0,0.0,0.0,
2.4791,2.908305759034099,2.908305759034099,2.887215725426163,0.0,0.0,0.0,2.9012757478314537,0.0,0.0,0.0,0.0,0.0,0.0,0.0,0.0,0.0,0.0,0.0,0.0,0.0,0.0,
2.4986,2.9097299176386446,2.9097299176386446,2.8885832269556557,0.0,0.0,0.0,2.9026810207443154,0.0,0.0,0.0,0.0,0.0,0.0,0.0,0.0,0.0,0.0,0.0,0.0,0.0,0.0,
2.5181,2.911168527828181,2.911168527828181,2.889964450135479,0.0,0.0,0.0,2.904100501930614,0.0,0.0,0.0,0.0,0.0,0.0,0.0,0.0,0.0,0.0,0.0,0.0,0.0,0.0,
2.5377,2.9126291713905523,2.9126291713905523,2.89136666785085,0.0,0.0,0.0,2.9055416702106514,0.0,0.0,0.0,0.0,0.0,0.0,0.0,0.0,0.0,0.0,0.0,0.0,0.0,0.0,
