energies(eV),real_xx,real_yy,real_zz,real_xy,real_yz,real_xz,real_ave,imag_xx,imag_yy,imag_zz,imag_xy,imag_yz,imag_xz,imag_ave,absorption_xx,absorption_yy,absorption_zz,absorption_xy,absorption_yz,absorption_xz,absorption_ave,band_gap
0.0,3.498294753036889,3.478107161551485,3.5269170923200877,0.0,0.0,0.0,3.501106335636154,0.0,0.0,0.0,0.0,0.0,0.0,0.0,0.0,0.0,0.0,0.0,0.0,0.0,0.0,5.810699999999999
0.0247,3.498308451843256,3.4781206142405194,3.5269310106764267,0.0,0.0,0.0,3.5011200255867343,0.0,0.0,0.0,0.0,0.0,0.0,0.0,0.0,0.0,0.0,0.0,0.0,0.0,0.0,
0.0494,3.4983495495660963,3.478160973573897,3.5269727670739757,0.0,0.0,0.0,3.5011610967379894,0.0,0.0,0.0,0.0,0.0,0.0,0.0,0.0,0.0,0.0,0.0,0.0,0.0,0.0,
0.0741,3.498418050117128,3.4782282433508644,3.527042365498659,0.0,0.0,0.0,3.5012295529888835,0.0,0.0,0.0,0.0,0.0,0.0,0.0,0.0,0.0,0.0,0.0,0.0,0.0,0.0,
0.0987,3.4985135164465984,3.478321994304691,3.527139361915113,0.0,0.0,0.0,3.5013249575554677,0.0,0.0,0.0,0.0,0.0,0.0,0.0,0.0,0.0,0.0,0.0,0.0,0.0,0.0,
0.1234,3.49863673379905,3.4784429974722477,3.5272645541802192,0.0,0.0,0.0,3.5014480951505056,0.0,0.0,0.0,0.0,0.0,0.0,0.0,0.0,0.0,0.0,0.0,0.0,0.0,0.0,
0.1481,3.4987873813241275,3.4785909376415103,3.5274176163359505,0.0,0.0,0.0,3.5015986451005294,0.0,0.0,0.0,0.0,0.0,0.0,0.0,0.0,0.0,0.0,0.0,0.0,0.0,0.0,
0.1728,3.498965473372985,3.478765828750866,3.5275985630059057,0.0,0.0,0.0,3.5017766217099187,0.0,0.0,0.0,0.0,0.0,0.0,0.0,0.0,0.0,0.0,0.0,0.0,0.0,0.0,
0.1975,3.4991710269175904,3.478967687284001,3.527807411484295,0.0,0.0,0.0,3.5019820418952956,0.0,0.0,0.0,0.0,0.0,0.0,0.0,0.0,0.0,0.0,0.0,0.0,0.0,0.0,
0.2222,3.4994040615555426,3.479196532274506,3.5280441817408263,0.0,0.0,0.0,3.5022149251902914,0.0,0.0,0.0,0.0,0.0,0.0,0.0,0.0,0.0,0.0,0.0,0.0,0.0,0.0,
0.2469,3.4996645995155693,3.4794523853112858,3.528308896426423,0.0,0.0,0.0,3.502475293751093,0.0,0.0,0.0,0.0,0.0,0.0,0.0,0.0,0.0,0.0,0.0,0.0,0.0,0.0,
0.2715,3.499951443868689,3.479734070725706,3.5286003394958256,0.0,0.0,0.0,3.502761951363407,0.0,0.0,0.0,0.0,0.0,0.0,0.0,0.0,0.0,0.0,0.0,0.0,0.0,0.0,
0.2962,3.5002669540954447,3.4800439052661103,3.528920908338326,0.0,0.0,0.0,3.5030772558999606,0.0,0.0,0.0,0.0,0.0,0.0,0.0,0.0,0.0,0.0,0.0,0.0,0.0,0.0,
0.3209,3.500610050056784,3.480380827891321,3.529269505588069,0.0,0.0,0.0,3.5034201278453914,0.0,0.0,0.0,0.0,0.0,0.0,0.0,0.0,0.0,0.0,0.0,0.0,0.0,0.0,
0.3456,3.50098076456588,3.480744870468584,3.529646164681812,0.0,0.0,0.0,3.5037905999054253,0.0,0.0,0.0,0.0,0.0,0.0,0.0,0.0,0.0,0.0,0.0,0.0,0.0,0.0,
0.3703,3.501379133106115,3.481136067457834,3.530050921777519,0.0,0.0,0.0,3.504188707447156,0.0,0.0,0.0,0.0,0.0,0.0,0.0,0.0,0.0,0.0,0.0,0.0,0.0,0.0,
0.395,3.501805193841224,3.4815544559215783,3.5304838157645326,0.0,0.0,0.0,3.504614488509111,0.0,0.0,0.0,0.0,0.0,0.0,0.0,0.0,0.0,0.0,0.0,0.0,0.0,0.0,
0.4197,3.50225898762611,3.4820000755351606,3.5309448882748518,0.0,0.0,0.0,3.5050679838120407,0.0,0.0,0.0,0.0,0.0,0.0,0.0,0.0,0.0,0.0,0.0,0.0,0.0,0.0,
0.4443,3.502738552279486,3.482470999006065,3.5314321457794664,0.0,0.0,0.0,3.5055472323550063,0.0,0.0,0.0,0.0,0.0,0.0,0.0,0.0,0.0,0.0,0.0,0.0,0.0,0.0,
0.469,3.5032478328126824,3.4829710997592254,3.5319495967107746,0.0,0.0,0.0,3.506056176427561,0.0,0.0,0.0,0.0,0.0,0.0,0.0,0.0,0.0,0.0,0.0,0.0,0.0,0.0,
0.4937,3.503784985024682,3.483498566283948,3.5324953674326385,0.0,0.0,0.0,3.506592972913756,0.0,0.0,0.0,0.0,0.0,0.0,0.0,0.0,0.0,0.0,0.0,0.0,0.0,0.0,
0.5184,3.504350060648935,3.4840534488163324,3.5330695106636667,0.0,0.0,0.0,3.507157673376311,0.0,0.0,0.0,0.0,0.0,0.0,0.0,0.0,0.0,0.0,0.0,0.0,0.0,0.0,
0.5431,3.5049431141764704,3.484635800269084,3.533672081932939,0.0,0.0,0.0,3.5077503321261645,0.0,0.0,0.0,0.0,0.0,0.0,0.0,0.0,0.0,0.0,0.0,0.0,0.0,0.0,
0.5678,3.505564202871613,3.4852456762466684,3.5343031395960334,0.0,0.0,0.0,3.508371006238105,0.0,0.0,0.0,0.0,0.0,0.0,0.0,0.0,0.0,0.0,0.0,0.0,0.0,0.0,
0.5925,3.5062133867884797,3.4858831350611035,3.534962744851981,0.0,0.0,0.0,3.509019755567188,0.0,0.0,0.0,0.0,0.0,0.0,0.0,0.0,0.0,0.0,0.0,0.0,0.0,0.0,
0.6171,3.506887929656619,3.4865454892079857,3.535648117685161,0.0,0.0,0.0,3.5096938455165887,0.0,0.0,0.0,0.0,0.0,0.0,0.0,0.0,0.0,0.0,0.0,0.0,0.0,0.0,
0.6418,3.5075933810241136,3.4872381872379616,3.536364896941082,0.0,0.0,0.0,3.5103988217343858,0.0,0.0,0.0,0.0,0.0,0.0,0.0,0.0,0.0,0.0,0.0,0.0,0.0,0.0,
0.6665,3.508327124409901,3.48795865918266,3.537110424341372,0.0,0.0,0.0,3.511132069311311,0.0,0.0,0.0,0.0,0.0,0.0,0.0,0.0,0.0,0.0,0.0,0.0,0.0,0.0,
0.6912,3.509089231198458,3.488706974348506,3.537884772633773,0.0,0.0,0.0,3.5118936593935786,0.0,0.0,0.0,0.0,0.0,0.0,0.0,0.0,0.0,0.0,0.0,0.0,0.0,0.0,
0.7159,3.5098797756596793,3.4894832048412243,3.538688017507187,0.0,0.0,0.0,3.512683666002697,0.0,0.0,0.0,0.0,0.0,0.0,0.0,0.0,0.0,0.0,0.0,0.0,0.0,0.0,
0.7406,3.510698834970679,3.490287425586833,3.5395202376140356,0.0,0.0,0.0,3.5135021660571826,0.0,0.0,0.0,0.0,0.0,0.0,0.0,0.0,0.0,0.0,0.0,0.0,0.0,0.0,
0.7653,3.511546489238458,3.4911197143532826,3.5403815145934328,0.0,0.0,0.0,3.5143492393950577,0.0,0.0,0.0,0.0,0.0,0.0,0.0,0.0,0.0,0.0,0.0,0.0,0.0,0.0,
0.7899,3.51241921568762,3.491976611359668,3.5412682692935045,0.0,0.0,0.0,3.5152213654469313,0.0,0.0,0.0,0.0,0.0,0.0,0.0,0.0,0.0,0.0,0.0,0.0,0.0,0.0,
0.8146,3.5133241953977428,3.4928651664817836,3.542187798486323,0.0,0.0,0.0,3.51612572012195,0.0,0.0,0.0,0.0,0.0,0.0,0.0,0.0,0.0,0.0,0.0,0.0,0.0,0.0,
0.8393,3.5142580278398245,3.493782039856513,3.5431366472623353,0.0,0.0,0.0,3.5170589049862246,0.0,0.0,0.0,0.0,0.0,0.0,0.0,0.0,0.0,0.0,0.0,0.0,0.0,0.0,
0.864,3.515220805074101,3.4947273208439014,3.5441149094464426,0.0,0.0,0.0,3.5180210117881483,0.0,0.0,0.0,0.0,0.0,0.0,0.0,0.0,0.0,0.0,0.0,0.0,0.0,0.0,
0.8887,3.5162126222185086,3.495701101768568,3.5451226819809083,0.0,0.0,0.0,3.5190121353226615,0.0,0.0,0.0,0.0,0.0,0.0,0.0,0.0,0.0,0.0,0.0,0.0,0.0,0.0,
0.9134,3.517233577477088,3.496703477946952,3.5461600649544174,0.0,0.0,0.0,3.520032373459486,0.0,0.0,0.0,0.0,0.0,0.0,0.0,0.0,0.0,0.0,0.0,0.0,0.0,0.0,
0.9381,3.5182837721694917,3.497734547715738,3.547227161632392,0.0,0.0,0.0,3.521081827172541,0.0,0.0,0.0,0.0,0.0,0.0,0.0,0.0,0.0,0.0,0.0,0.0,0.0,0.0,
0.9627,3.519358880856742,3.4987900633182107,3.5483195772629004,0.0,0.0,0.0,3.522156173812618,0.0,0.0,0.0,0.0,0.0,0.0,0.0,0.0,0.0,0.0,0.0,0.0,0.0,0.0,
0.9874,3.520467751534447,3.4998787102897246,3.5494463026112655,0.0,0.0,0.0,3.5232642548118123,0.0,0.0,0.0,0.0,0.0,0.0,0.0,0.0,0.0,0.0,0.0,0.0,0.0,0.0,
1.0121,3.5216061841552024,3.5009963638395045,3.5506030703749523,0.0,0.0,0.0,3.5244018727898863,0.0,0.0,0.0,0.0,0.0,0.0,0.0,0.0,0.0,0.0,0.0,0.0,0.0,0.0,
1.0368,3.52277429280499,3.502143134675934,3.5517899968367797,0.0,0.0,0.0,3.5255691414392345,0.0,0.0,0.0,0.0,0.0,0.0,0.0,0.0,0.0,0.0,0.0,0.0,0.0,0.0,
1.0615,3.523972194849209,3.5033191366845506,3.553007201623744,0.0,0.0,0.0,3.5267661777191677,0.0,0.0,0.0,0.0,0.0,0.0,0.0,0.0,0.0,0.0,0.0,0.0,0.0,0.0,
1.0862,3.52520001096876,3.5045244869627243,3.5542548077439857,0.0,0.0,0.0,3.5279931018918234,0.0,0.0,0.0,0.0,0.0,0.0,0.0,0.0,0.0,0.0,0.0,0.0,0.0,0.0,
1.1109,3.5264578651974814,3.505759305855379,3.555532941624992,0.0,0.0,0.0,3.5292500375592843,0.0,0.0,0.0,0.0,0.0,0.0,0.0,0.0,0.0,0.0,0.0,0.0,0.0,0.0,
1.1355,3.5277406093146624,3.507018538088507,3.5568363724153884,0.0,0.0,0.0,3.530531839939519,0.0,0.0,0.0,0.0,0.0,0.0,0.0,0.0,0.0,0.0,0.0,0.0,0.0,0.0,
1.1602,3.5290588025425156,3.508312547839836,3.5581758300423503,0.0,0.0,0.0,3.531849060141567,0.0,0.0,0.0,0.0,0.0,0.0,0.0,0.0,0.0,0.0,0.0,0.0,0.0,0.0,
1.1849,3.530407425938678,3.5096364065664845,3.5595462150674524,0.0,0.0,0.0,3.533196682524205,0.0,0.0,0.0,0.0,0.0,0.0,0.0,0.0,0.0,0.0,0.0,0.0,0.0,0.0,
1.2096,3.531786617331754,3.5109902479707995,3.5609476679877416,0.0,0.0,0.0,3.5345748444300984,0.0,0.0,0.0,0.0,0.0,0.0,0.0,0.0,0.0,0.0,0.0,0.0,0.0,0.0,
1.2343,3.533196518108259,3.512374209199107,3.5623803329293393,0.0,0.0,0.0,3.5359836867455683,0.0,0.0,0.0,0.0,0.0,0.0,0.0,0.0,0.0,0.0,0.0,0.0,0.0,0.0,
1.259,3.534637273257458,3.513788430884692,3.563844357693354,0.0,0.0,0.0,3.5374233539451683,0.0,0.0,0.0,0.0,0.0,0.0,0.0,0.0,0.0,0.0,0.0,0.0,0.0,0.0,
1.2837,3.5361090314177503,3.5152330571922064,3.5653398938033636,0.0,0.0,0.0,3.5388939941377733,0.0,0.0,0.0,0.0,0.0,0.0,0.0,0.0,0.0,0.0,0.0,0.0,0.0,0.0,
1.3083,3.5376057972340074,3.516702201681713,3.5668608494919343,0.0,0.0,0.0,3.5403896161358848,0.0,0.0,0.0,0.0,0.0,0.0,0.0,0.0,0.0,0.0,0.0,0.0,0.0,0.0,
1.333,3.5391398950813566,3.5182079594654447,3.5684197488245486,0.0,0.0,0.0,3.541922534457117,0.0,0.0,0.0,0.0,0.0,0.0,0.0,0.0,0.0,0.0,0.0,0.0,0.0,0.0,
1.3577,3.5407054635789237,3.5197445753815186,3.570010636236,0.0,0.0,0.0,3.5434868917321474,0.0,0.0,0.0,0.0,0.0,0.0,0.0,0.0,0.0,0.0,0.0,0.0,0.0,0.0,
1.3824,3.542302666437422,3.5213122081754618,3.5716336786265184,0.0,0.0,0.0,3.5450828510798007,0.0,0.0,0.0,0.0,0.0,0.0,0.0,0.0,0.0,0.0,0.0,0.0,0.0,0.0,
1.4071,3.5439316712697826,3.522911020366261,3.5732890468775795,0.0,0.0,0.0,3.5467105795045413,0.0,0.0,0.0,0.0,0.0,0.0,0.0,0.0,0.0,0.0,0.0,0.0,0.0,0.0,
1.4318,3.545592649646306,3.524541178299331,3.5749769159086293,0.0,0.0,0.0,3.5483702479514228,0.0,0.0,0.0,0.0,0.0,0.0,0.0,0.0,0.0,0.0,0.0,0.0,0.0,0.0,
1.4565,3.547285777151545,3.5262028522009543,3.5766974647350622,0.0,0.0,0.0,3.5500620313625206,0.0,0.0,0.0,0.0,0.0,0.0,0.0,0.0,0.0,0.0,0.0,0.0,0.0,0.0,
1.4811,3.549004182366833,3.5278892963813866,3.578443711190226,0.0,0.0,0.0,3.5517790633128157,0.0,0.0,0.0,0.0,0.0,0.0,0.0,0.0,0.0,0.0,0.0,0.0,0.0,0.0,
1.5058,3.5507620192286584,3.529614399317706,3.580230039148463,0.0,0.0,0.0,3.553535485898276,0.0,0.0,0.0,0.0,0.0,0.0,0.0,0.0,0.0,0.0,0.0,0.0,0.0,0.0,
1.5305,3.55255255588277,3.531371552008342,3.5820496083476305,0.0,0.0,0.0,3.5553245720795807,0.0,0.0,0.0,0.0,0.0,0.0,0.0,0.0,0.0,0.0,0.0,0.0,0.0,0.0,
1.5552,3.5543759845560143,3.533160940762395,3.583902614786267,0.0,0.0,0.0,3.5571465133682256,0.0,0.0,0.0,0.0,0.0,0.0,0.0,0.0,0.0,0.0,0.0,0.0,0.0,0.0,
1.5799,3.556232501799364,3.534982756066115,3.585789258876035,0.0,0.0,0.0,3.5590015055805044,0.0,0.0,0.0,0.0,0.0,0.0,0.0,0.0,0.0,0.0,0.0,0.0,0.0,0.0,
1.6046,3.558122308555518,3.5368371926474436,3.58770974551091,0.0,0.0,0.0,3.5608897489046236,0.0,0.0,0.0,0.0,0.0,0.0,0.0,0.0,0.0,0.0,0.0,0.0,0.0,0.0,
1.6293,3.560045610228245,3.538724449542399,3.5896642841382076,0.0,0.0,0.0,3.562811447969617,0.0,0.0,0.0,0.0,0.0,0.0,0.0,0.0,0.0,0.0,0.0,0.0,0.0,0.0,
1.6539,3.5619946254121615,3.5406368888916155,3.5916449676152986,0.0,0.0,0.0,3.5647588273063584,0.0,0.0,0.0,0.0,0.0,0.0,0.0,0.0,0.0,0.0,0.0,0.0,0.0,0.0,
1.6786,3.563985413568969,3.542590266131684,3.5936681170883413,0.0,0.0,0.0,3.5667479322629982,0.0,0.0,0.0,0.0,0.0,0.0,0.0,0.0,0.0,0.0,0.0,0.0,0.0,0.0,
1.7033,3.566010339448285,3.544577086465517,3.5957259740429004,0.0,0.0,0.0,3.5687711333189007,0.0,0.0,0.0,0.0,0.0,0.0,0.0,0.0,0.0,0.0,0.0,0.0,0.0,0.0,
1.728,3.5680696270143515,3.546597566845276,3.5978187668725456,0.0,0.0,0.0,3.5708286535773914,0.0,0.0,0.0,0.0,0.0,0.0,0.0,0.0,0.0,0.0,0.0,0.0,0.0,0.0,
1.7527,3.570163505070597,3.548651928892391,3.599946728911071,0.0,0.0,0.0,3.57292072095802,0.0,0.0,0.0,0.0,0.0,0.0,0.0,0.0,0.0,0.0,0.0,0.0,0.0,0.0,
1.7774,3.5722922073419294,3.550740398976007,3.6021100985168983,0.0,0.0,0.0,3.575047568278278,0.0,0.0,0.0,0.0,0.0,0.0,0.0,0.0,0.0,0.0,0.0,0.0,0.0,0.0,
1.8021,3.574455972559446,3.552863208293894,3.60430911915959,0.0,0.0,0.0,3.577209433337643,0.0,0.0,0.0,0.0,0.0,0.0,0.0,0.0,0.0,0.0,0.0,0.0,0.0,0.0,
1.8267,3.5766460699079325,3.5550117885758574,3.6065349185325024,0.0,0.0,0.0,3.5793975923387635,0.0,0.0,0.0,0.0,0.0,0.0,0.0,0.0,0.0,0.0,0.0,0.0,0.0,0.0,
1.8514,3.5788805532140633,3.55720384823802,3.6088058456605925,0.0,0.0,0.0,3.5816300823708915,0.0,0.0,0.0,0.0,0.0,0.0,0.0,0.0,0.0,0.0,0.0,0.0,0.0,0.0,
1.8761,3.581150845539886,3.5594309695356134,3.6111131847450584,0.0,0.0,0.0,3.583898333273519,0.0,0.0,0.0,0.0,0.0,0.0,0.0,0.0,0.0,0.0,0.0,0.0,0.0,0.0,
1.9008,3.5834572065155346,3.5616934038150676,3.613457200595501,0.0,0.0,0.0,3.5862026036420342,0.0,0.0,0.0,0.0,0.0,0.0,0.0,0.0,0.0,0.0,0.0,0.0,0.0,0.0,
1.9255,3.5857999012381043,3.5639914076911015,3.6158381636044767,0.0,0.0,0.0,3.588543157511227,0.0,0.0,0.0,0.0,0.0,0.0,0.0,0.0,0.0,0.0,0.0,0.0,0.0,0.0,
1.9502,3.5881792003721604,3.566325243142358,3.618256349850282,0.0,0.0,0.0,3.5909202644549336,0.0,0.0,0.0,0.0,0.0,0.0,0.0,0.0,0.0,0.0,0.0,0.0,0.0,0.0,
1.9749,3.5905953802528705,3.568695177609934,3.6207120412026224,0.0,0.0,0.0,3.5933341996884756,0.0,0.0,0.0,0.0,0.0,0.0,0.0,0.0,0.0,0.0,0.0,0.0,0.0,0.0,
1.9995,3.5930387151223293,3.5710916682657134,3.623195353767492,0.0,0.0,0.0,3.595775245718512,0.0,0.0,0.0,0.0,0.0,0.0,0.0,0.0,0.0,0.0,0.0,0.0,0.0,0.0,
2.0242,3.5955293565071362,3.5735344764952073,3.625726769857373,0.0,0.0,0.0,3.598263534286572,0.0,0.0,0.0,0.0,0.0,0.0,0.0,0.0,0.0,0.0,0.0,0.0,0.0,0.0,
2.0489,3.598057741543424,3.5760142187027064,3.6282965712885424,0.0,0.0,0.0,3.6007895105115573,0.0,0.0,0.0,0.0,0.0,0.0,0.0,0.0,0.0,0.0,0.0,0.0,0.0,0.0,
2.0736,3.6006241703177575,3.5785311851972743,3.6309050641907863,0.0,0.0,0.0,3.603353473235273,0.0,0.0,0.0,0.0,0.0,0.0,0.0,0.0,0.0,0.0,0.0,0.0,0.0,0.0,
2.0983,3.6032289491500054,3.581085672286296,3.6335525610613906,0.0,0.0,0.0,3.6059557274992304,0.0,0.0,0.0,0.0,0.0,0.0,0.0,0.0,0.0,0.0,0.0,0.0,0.0,0.0,
2.123,3.6058723907159242,3.5836779823923672,3.636239380890676,0.0,0.0,0.0,3.608596584666323,0.0,0.0,0.0,0.0,0.0,0.0,0.0,0.0,0.0,0.0,0.0,0.0,0.0,0.0,
2.1477,3.608554814173445,3.5863084241734393,3.638965849291263,0.0,0.0,0.0,3.611276362546049,0.0,0.0,0.0,0.0,0.0,0.0,0.0,0.0,0.0,0.0,0.0,0.0,0.0,0.0,
2.1723,3.6112654464466543,3.5889664294888166,3.641721017373353,0.0,0.0,0.0,3.613984297769608,0.0,0.0,0.0,0.0,0.0,0.0,0.0,0.0,0.0,0.0,0.0,0.0,0.0,0.0,
2.197,3.614026656577695,3.5916739285441954,3.64452762298019,0.0,0.0,0.0,3.616742736034027,0.0,0.0,0.0,0.0,0.0,0.0,0.0,0.0,0.0,0.0,0.0,0.0,0.0,0.0,
2.2217,3.616827844898502,3.5944205225740844,3.6473748936647197,0.0,0.0,0.0,3.619541087045769,0.0,0.0,0.0,0.0,0.0,0.0,0.0,0.0,0.0,0.0,0.0,0.0,0.0,0.0,
2.2464,3.6196693578060595,3.5972065464243177,3.6502631828706242,0.0,0.0,0.0,3.622379695700334,0.0,0.0,0.0,0.0,0.0,0.0,0.0,0.0,0.0,0.0,0.0,0.0,0.0,0.0,
2.2711,3.6225515488687714,3.600032341831486,3.6531928513695555,0.0,0.0,0.0,3.6252589140232705,0.0,0.0,0.0,0.0,0.0,0.0,0.0,0.0,0.0,0.0,0.0,0.0,0.0,0.0,
2.2958,3.6254747789768715,3.6028982575662374,3.6561642674153183,0.0,0.0,0.0,3.628179101319476,0.0,0.0,0.0,0.0,0.0,0.0,0.0,0.0,0.0,0.0,0.0,0.0,0.0,0.0,
2.3205,3.628439416497501,3.605804649580367,3.6591778069025693,0.0,0.0,0.0,3.6311406243268123,0.0,0.0,0.0,0.0,0.0,0.0,0.0,0.0,0.0,0.0,0.0,0.0,0.0,0.0,
2.3451,3.6314335809383067,3.6087398662158816,3.6622213946509716,0.0,0.0,0.0,3.6341316139350535,0.0,0.0,0.0,0.0,0.0,0.0,0.0,0.0,0.0,0.0,0.0,0.0,0.0,0.0,
2.3698,3.634481997594962,3.611728140531654,3.6653201656118997,0.0,0.0,0.0,3.637176767912839,0.0,0.0,0.0,0.0,0.0,0.0,0.0,0.0,0.0,0.0,0.0,0.0,0.0,0.0,
2.3945,3.6375729716468213,3.6147580020629424,3.6684622335694357,0.0,0.0,0.0,3.6402644024264,0.0,0.0,0.0,0.0,0.0,0.0,0.0,0.0,0.0,0.0,0.0,0.0,0.0,0.0,
2.4192,3.6407069029824495,3.617829837018827,3.6716480066342716,0.0,0.0,0.0,3.643394915545183,0.0,0.0,0.0,0.0,0.0,0.0,0.0,0.0,0.0,0.0,0.0,0.0,0.0,0.0,
2.4439,3.6438841998155693,3.6209440395951114,3.6748779014268536,0.0,0.0,0.0,3.6465687136125116,0.0,0.0,0.0,0.0,0.0,0.0,0.0,0.0,0.0,0.0,0.0,0.0,0.0,0.0,
2.4686,3.647105278870962,3.6241010121504593,3.678152343267284,0.0,0.0,0.0,3.6497862114295683,0.0,0.0,0.0,0.0,0.0,0.0,0.0,0.0,0.0,0.0,0.0,0.0,0.0,0.0,
2.4933,3.65037056557592,3.6273011653881237,3.6814717663717342,0.0,0.0,0.0,3.653047832445259,0.0,0.0,0.0,0.0,0.0,0.0,0.0,0.0,0.0,0.0,0.0,0.0,0.0,0.0,
2.5179,3.653667003142559,3.6305316974666626,3.684822899005216,0.0,0.0,0.0,3.6563405332048124,0.0,0.0,0.0,0.0,0.0,0.0,0.0,0.0,0.0,0.0,0.0,0.0,0.0,0.0,
2.5426,3.657021833793895,3.6338192993738794,3.688233437224804,0.0,0.0,0.0,3.659691523464193,0.0,0.0,0.0,0.0,0.0,0.0,0.0,0.0,0.0,0.0,0.0,0.0,0.0,0.0,
2.5673,3.660422200746028,3.6371513642553794,3.6916903128966405,0.0,0.0,0.0,3.663087959299349,0.0,0.0,0.0,0.0,0.0,0.0,0.0,0.0,0.0,0.0,0.0,0.0,0.0,0.0,
2.592,3.6638685662355037,3.640528338087132,3.6951939978681407,0.0,0.0,0.0,3.6665303007302583,0.0,0.0,0.0,0.0,0.0,0.0,0.0,0.0,0.0,0.0,0.0,0.0,0.0,0.0,
2.6167,3.6673614022522374,3.643950676185376,3.6987449739587577,0.0,0.0,0.0,3.6700190174654566,0.0,0.0,0.0,0.0,0.0,0.0,0.0,0.0,0.0,0.0,0.0,0.0,0.0,0.0,
2.6414,3.6709011907704228,3.647418843425169,3.7023437331965146,0.0,0.0,0.0,3.673554589130702,0.0,0.0,0.0,0.0,0.0,0.0,0.0,0.0,0.0,0.0,0.0,0.0,0.0,0.0,
2.6661,3.674488423986689,3.650933314465879,3.7059907780619548,0.0,0.0,0.0,3.677137505504841,0.0,0.0,0.0,0.0,0.0,0.0,0.0,0.0,0.0,0.0,0.0,0.0,0.0,0.0,
2.6907,3.678108789884424,3.6544800609386683,3.709671559727778,0.0,0.0,0.0,3.6807534701836233,0.0,0.0,0.0,0.0,0.0,0.0,0.0,0.0,0.0,0.0,0.0,0.0,0.0,0.0,
2.7154,3.681792233967573,3.658088411424781,3.713416525608166,0.0,0.0,0.0,3.6844323903335066,0.0,0.0,0.0,0.0,0.0,0.0,0.0,0.0,0.0,0.0,0.0,0.0,0.0,0.0,
2.7401,3.6855246610282895,3.6617445486925932,3.717211347642709,0.0,0.0,0.0,3.6881601857878636,0.0,0.0,0.0,0.0,0.0,0.0,0.0,0.0,0.0,0.0,0.0,0.0,0.0,0.0,
2.7648,3.689306606648329,3.6654489888979165,3.721056572677308,0.0,0.0,0.0,3.691937389407851,0.0,0.0,0.0,0.0,0.0,0.0,0.0,0.0,0.0,0.0,0.0,0.0,0.0,0.0,
2.7895,3.6931386179438963,3.66920225922121,3.7249527593540104,0.0,0.0,0.0,3.6957645455063726,0.0,0.0,0.0,0.0,0.0,0.0,0.0,0.0,0.0,0.0,0.0,0.0,0.0,0.0,
2.8142,3.69702125385488,3.673004898140609,3.7289004784069064,0.0,0.0,0.0,3.6996422101341317,0.0,0.0,0.0,0.0,0.0,0.0,0.0,0.0,0.0,0.0,0.0,0.0,0.0,0.0,
2.8389,3.700955085443588,3.676857455714163,3.7329003129684195,0.0,0.0,0.0,3.70357095137539,0.0,0.0,0.0,0.0,0.0,0.0,0.0,0.0,0.0,0.0,0.0,0.0,0.0,0.0,
2.8635,3.704924454940732,3.6807445895579143,3.7369363447336394,0.0,0.0,0.0,3.707535129744095,0.0,0.0,0.0,0.0,0.0,0.0,0.0,0.0,0.0,0.0,0.0,0.0,0.0,0.0,
2.8882,3.7089622278517593,3.6846984745281532,3.7410419937784196,0.0,0.0,0.0,3.7115675653861104,0.0,0.0,0.0,0.0,0.0,0.0,0.0,0.0,0.0,0.0,0.0,0.0,0.0,0.0,
2.9129,3.713052983011714,3.6887039983710537,3.7452015827897984,0.0,0.0,0.0,3.7156528547241887,0.0,0.0,0.0,0.0,0.0,0.0,0.0,0.0,0.0,0.0,0.0,0.0,0.0,0.0,
2.9376,3.717197343114939,3.6927617604276963,3.7494157477104157,0.0,0.0,0.0,3.7197916170843506,0.0,0.0,0.0,0.0,0.0,0.0,0.0,0.0,0.0,0.0,0.0,0.0,0.0,0.0,
2.9623,3.721395944631057,3.6968723731775883,3.7536851385735055,0.0,0.0,0.0,3.723984485460717,0.0,0.0,0.0,0.0,0.0,0.0,0.0,0.0,0.0,0.0,0.0,0.0,0.0,0.0,
2.987,3.7256494381708016,3.701036462583273,3.758010419877433,0.0,0.0,0.0,3.728232106877169,0.0,0.0,0.0,0.0,0.0,0.0,0.0,0.0,0.0,0.0,0.0,0.0,0.0,0.0,
3.0117,3.7299584888648143,3.7052546684470147,3.762392270973517,0.0,0.0,0.0,3.732535142761782,0.0,0.0,0.0,0.0,0.0,0.0,0.0,0.0,0.0,0.0,0.0,0.0,0.0,0.0,
3.0363,3.734305989218186,3.709510233965875,3.766813297941961,0.0,0.0,0.0,3.7368765070420076,0.0,0.0,0.0,0.0,0.0,0.0,0.0,0.0,0.0,0.0,0.0,0.0,0.0,0.0,
3.061,3.738727977747182,3.7138384235510054,3.77131015194044,0.0,0.0,0.0,3.7412921844128757,0.0,0.0,0.0,0.0,0.0,0.0,0.0,0.0,0.0,0.0,0.0,0.0,0.0,0.0,
3.0857,3.7432076070212004,3.7182227329954958,3.7758657040145573,0.0,0.0,0.0,3.745765348010418,0.0,0.0,0.0,0.0,0.0,0.0,0.0,0.0,0.0,0.0,0.0,0.0,0.0,0.0,
3.1104,3.7477456042471355,3.7226638612192327,3.780480697019131,0.0,0.0,0.0,3.7502967208284996,0.0,0.0,0.0,0.0,0.0,0.0,0.0,0.0,0.0,0.0,0.0,0.0,0.0,0.0,
3.1351,3.7523427132558838,3.7271625229601972,3.7851558908158642,0.0,0.0,0.0,3.754887042343982,0.0,0.0,0.0,0.0,0.0,0.0,0.0,0.0,0.0,0.0,0.0,0.0,0.0,0.0,
3.1598,3.7569996949703013,3.731719449214049,3.789892062752495,0.0,0.0,0.0,3.7595370689789482,0.0,0.0,0.0,0.0,0.0,0.0,0.0,0.0,0.0,0.0,0.0,0.0,0.0,0.0,
3.1845,3.761717327890554,3.7363353876895573,3.794690008159412,0.0,0.0,0.0,3.7642475745798407,0.0,0.0,0.0,0.0,0.0,0.0,0.0,0.0,0.0,0.0,0.0,0.0,0.0,0.0,
3.2091,3.766476935120858,3.7409920516981643,3.7995307353021075,0.0,0.0,0.0,3.76899990737371,0.0,0.0,0.0,0.0,0.0,0.0,0.0,0.0,0.0,0.0,0.0,0.0,0.0,0.0,
