energies(eV),real_xx,real_yy,real_zz,real_xy,real_yz,real_xz,real_ave,imag_xx,imag_yy,imag_zz,imag_xy,imag_yz,imag_xz,imag_ave,absorption_xx,absorption_yy,absorption_zz,absorption_xy,absorption_yz,absorption_xz,absorption_ave,band_gap
0.0,2.590391539500055,4.648331908295434,3.894201368472332,0.0,0.0,-0.13243465577718183,3.7109749387559408,0.0,0.0,0.0,0.0,0.0,0.0,0.0,0.0,0.0,0.0,0.0,0.0,0.0,0.0,3.4329
0.0142,2.5903943572895938,4.648346495710156,3.894212697095578,0.0,0.0,-0.13243530737914808,3.710984516698442,0.0,0.0,0.0,0.0,0.0,0.0,0.0,0.0,0.0,0.0,0.0,0.0,523.7617291425277,0.0,
0.0285,2.5904028902686953,4.648390670506096,3.894247003489823,0.0,0.0,-0.13243728061935942,3.7110135214215383,0.0,0.0,0.0,0.0,0.0,0.0,0.0,0.0,0.0,0.0,0.0,0.0,1051.2197524839403,0.0,
0.0427,2.590417019381957,4.648463817577478,3.894303810364166,0.0,0.0,-0.13244054803995198,3.711061549107867,0.0,0.0,0.0,0.0,0.0,0.0,0.0,0.0,0.0,0.0,0.0,0.0,1575.0048120178815,0.0,
0.057,2.5904369441139523,4.64856697174932,3.8943839220557304,0.0,0.0,-0.13244515589643427,3.711129279306334,0.0,0.0,0.0,0.0,0.0,0.0,0.0,0.0,0.0,0.0,0.0,0.0,2102.502013981291,0.0,
0.0712,2.590462386467166,4.648698696666991,3.89448622400485,0.0,0.0,-0.1324510400700238,3.7112157690463357,0.0,0.0,0.0,0.0,0.0,0.0,0.0,0.0,0.0,0.0,0.0,0.0,2626.341556082349,0.0,
0.0854,2.5904934667848876,4.64885961905832,3.894611204145124,0.0,0.0,-0.13245822861076675,3.71132142999611,0.0,0.0,0.0,0.0,0.0,0.0,0.0,0.0,0.0,0.0,0.0,0.0,3150.2198772792467,0.0,
0.0997,2.590530464699036,4.649051191397756,3.8947599920549165,0.0,0.0,-0.13246678647039767,3.7114472160505696,0.0,0.0,0.0,0.0,0.0,0.0,0.0,0.0,0.0,0.0,0.0,0.0,3677.8345145181383,0.0,
0.1139,2.5905728640011514,4.649270746171731,3.8949305177201414,0.0,0.0,-0.13247659456583405,3.7115913759643413,0.0,0.0,0.0,0.0,0.0,0.0,0.0,0.0,0.0,0.0,0.0,0.0,4201.814034053912,0.0,
0.1281,2.590620904989438,4.649519533756621,3.8951237542710286,0.0,0.0,-0.13248770884393857,3.7117547310056955,0.0,0.0,0.0,0.0,0.0,0.0,0.0,0.0,0.0,0.0,0.0,0.0,4725.855627248821,0.0,
0.1424,2.590674987356314,4.649799631278641,3.895341317412753,0.0,0.0,-0.13250022220485738,3.711938645349236,0.0,0.0,0.0,0.0,0.0,0.0,0.0,0.0,0.0,0.0,0.0,0.0,5253.658243019242,0.0,
0.1566,2.5907343565261174,4.650107138587053,3.895580180314465,0.0,0.0,-0.13251396052540515,3.7121405584758786,0.0,0.0,0.0,0.0,0.0,0.0,0.0,0.0,0.0,0.0,0.0,0.0,5777.847836172121,0.0,
0.1709,2.590799850717092,4.650446406081091,3.895843725119557,0.0,0.0,-0.13252911829545658,3.7123633273059133,0.0,0.0,0.0,0.0,0.0,0.0,0.0,0.0,0.0,0.0,0.0,0.0,6305.815249142964,0.0,
0.1851,2.590870556133388,4.6508127097282035,3.896128285301737,0.0,0.0,-0.13254548459588902,3.712603850387776,0.0,0.0,0.0,0.0,0.0,0.0,0.0,0.0,0.0,0.0,0.0,0.0,6830.184147349928,0.0,
0.1993,2.5909469132756713,4.651208341564628,3.89643564467373,0.0,0.0,-0.13256316198081555,3.712863633171343,0.0,0.0,0.0,0.0,0.0,0.0,0.0,0.0,0.0,0.0,0.0,0.0,7354.654088693629,0.0,
0.2136,2.591029522323341,4.651636423084586,3.896768232135406,0.0,0.0,-0.13258229009695027,3.7131447258477777,0.0,0.0,0.0,0.0,0.0,0.0,0.0,0.0,0.0,0.0,0.0,0.0,7882.9274920371445,0.0,
0.2278,2.5911172306920527,4.652090993628271,3.8971214206643983,0.0,0.0,-0.13260260278040484,3.713443214994907,0.0,0.0,0.0,0.0,0.0,0.0,0.0,0.0,0.0,0.0,0.0,0.0,8407.623771976605,0.0,
0.242,2.5912105991185084,4.6525749715699005,3.8974974817819343,0.0,0.0,-0.13262423062092188,3.7137610174901146,0.0,0.0,0.0,0.0,0.0,0.0,0.0,0.0,0.0,0.0,0.0,0.0,8932.444574540003,0.0,
0.2563,2.591310348254431,4.653092106990828,3.897899334184683,0.0,0.0,-0.13264734141659448,3.7141005964766474,0.0,0.0,0.0,0.0,0.0,0.0,0.0,0.0,0.0,0.0,0.0,0.0,9461.095071549054,0.0,
0.2705,2.591415086377271,4.6536351992905125,3.898321387296101,0.0,0.0,-0.13267161358873808,3.7144572243212948,0.0,0.0,0.0,0.0,0.0,0.0,0.0,0.0,0.0,0.0,0.0,0.0,9986.189439089845,0.0,
0.2848,2.591526292271131,4.654211931907053,3.898769617302855,0.0,0.0,-0.13269739076098835,3.714835947160346,0.0,0.0,0.0,0.0,0.0,0.0,0.0,0.0,0.0,0.0,0.0,0.0,10515.13134947655,0.0,
0.299,2.591642414370596,4.654814274456742,3.899237788485825,0.0,0.0,-0.1327243142558786,3.7152314924377206,0.0,0.0,0.0,0.0,0.0,0.0,0.0,0.0,0.0,0.0,0.0,0.0,11040.530930598985,0.0,
0.3132,2.591764214304752,4.655446193576635,3.8997289892184686,0.0,0.0,-0.13275256161127472,3.7156464656999524,0.0,0.0,0.0,0.0,0.0,0.0,0.0,0.0,0.0,0.0,0.0,0.0,11566.094431481757,0.0,
0.3275,2.5918926141216447,4.656112492414524,3.90024695951566,0.0,0.0,-0.13278234782077167,3.716084022017276,0.0,0.0,0.0,0.0,0.0,0.0,0.0,0.0,0.0,0.0,0.0,0.0,12095.532742528208,0.0,
0.3417,2.5920258223716495,4.656803893569515,3.900784493564988,0.0,0.0,-0.13281325842875197,3.716538069835384,0.0,0.0,0.0,0.0,0.0,0.0,0.0,0.0,0.0,0.0,0.0,0.0,12621.44909595309,0.0,
0.3559,2.5921647214671797,4.657524995257392,3.9013451723497985,0.0,0.0,-0.1328454992793758,3.717011629691457,0.0,0.0,0.0,0.0,0.0,0.0,0.0,0.0,0.0,0.0,0.0,0.0,13147.553177597127,0.0,
0.3702,2.5923103546084656,4.658281235724592,3.9019332317722037,0.0,0.0,-0.13287931385393498,3.717508274035087,0.0,0.0,0.0,0.0,0.0,0.0,0.0,0.0,0.0,0.0,0.0,0.0,13677.559988878013,0.0,
0.3844,2.5924606899157663,4.659062085367989,3.9025404911285624,0.0,0.0,-0.13291423165224162,3.7180210888041056,0.0,0.0,0.0,0.0,0.0,0.0,0.0,0.0,0.0,0.0,0.0,0.0,14204.06486496326,0.0,
0.3987,2.59261784998354,4.659878591644004,3.9031755495150713,0.0,0.0,-0.13295074702880327,3.7185573303808717,0.0,0.0,0.0,0.0,0.0,0.0,0.0,0.0,0.0,0.0,0.0,0.0,14734.491480492863,0.0,
0.4129,2.5927796421168825,4.660719385931558,3.903829572538936,0.0,0.0,-0.13298835191012268,3.7191095335291258,0.0,0.0,0.0,0.0,0.0,0.0,0.0,0.0,0.0,0.0,0.0,0.0,15261.42933925495,0.0,
0.4271,2.592947150757727,4.661590125610472,3.9045069682452604,0.0,0.0,-0.13302729965186297,3.7196814148711526,0.0,0.0,0.0,0.0,0.0,0.0,0.0,0.0,0.0,0.0,0.0,0.0,15788.594995200918,0.0,
0.4414,2.593121621863335,4.662497315044591,3.905212806084384,0.0,0.0,-0.1330678816054863,3.7202772476641037,0.0,0.0,0.0,0.0,0.0,0.0,0.0,0.0,0.0,0.0,0.0,0.0,16319.711452574847,0.0,
0.4556,2.593300621231959,4.663428323169397,3.905937267278281,0.0,0.0,-0.1331095331262465,3.7208887372265456,0.0,0.0,0.0,0.0,0.0,0.0,0.0,0.0,0.0,0.0,0.0,0.0,16847.358633009826,0.0,
0.4698,2.593485354906854,4.664389446795378,3.906685259847895,0.0,0.0,-0.13315253628221418,3.7215200205167096,0.0,0.0,0.0,0.0,0.0,0.0,0.0,0.0,0.0,0.0,0.0,0.0,17375.257897433323,0.0,
0.4841,2.593677190951324,4.665387834547783,3.9074623577356222,0.0,0.0,-0.1331972113866895,3.7221757944115765,0.0,0.0,0.0,0.0,0.0,0.0,0.0,0.0,0.0,0.0,0.0,0.0,17907.13774488533,0.0,
0.4983,2.5938734529099685,4.666409585804434,3.9082577511696734,0.0,0.0,-0.13324293685745153,3.7228469299613587,0.0,0.0,0.0,0.0,0.0,0.0,0.0,0.0,0.0,0.0,0.0,0.0,18435.567493578837,0.0,
0.5126,2.594076911871751,4.667469156886022,3.9090827040877856,0.0,0.0,-0.1332903600956778,3.723542924281853,0.0,0.0,0.0,0.0,0.0,0.0,0.0,0.0,0.0,0.0,0.0,0.0,18967.998116689396,0.0,
0.5268,2.594284729236282,4.6685517954818305,3.9099257412577604,0.0,0.0,-0.13333882129353306,3.724254088658624,0.0,0.0,0.0,0.0,0.0,0.0,0.0,0.0,0.0,0.0,0.0,0.0,19496.991282431678,0.0,
0.541,2.5944983146704708,4.66966487289158,3.9107926121695815,0.0,0.0,-0.13338865082401305,3.7249852665772107,0.0,0.0,0.0,0.0,0.0,0.0,0.0,0.0,0.0,0.0,0.0,0.0,20026.277528068822,0.0,
0.5553,2.5947192408186543,4.670816621411676,3.9116897408402336,0.0,0.0,-0.1334402177800253,3.725741867690188,0.0,0.0,0.0,0.0,0.0,0.0,0.0,0.0,0.0,0.0,0.0,0.0,20559.5956900906,0.0,
0.5695,2.594944425410326,4.671991005653824,3.9126046484546957,0.0,0.0,-0.13349280471945418,3.726513359839615,0.0,0.0,0.0,0.0,0.0,0.0,0.0,0.0,0.0,0.0,0.0,0.0,21089.49510964103,0.0,
0.5837,2.5951754008097883,4.67319604690241,3.9135435944244485,0.0,0.0,-0.13354677127471934,3.7273050140455486,0.0,0.0,0.0,0.0,0.0,0.0,0.0,0.0,0.0,0.0,0.0,0.0,21619.712531456233,0.0,
0.598,2.595413863003449,4.67444063363552,3.914513518511993,0.0,0.0,-0.1336025161189394,3.7281226717169873,0.0,0.0,0.0,0.0,0.0,0.0,0.0,0.0,0.0,0.0,0.0,0.0,22153.993705421297,0.0,
0.6122,2.595656485096975,4.675707438263929,3.915500929802205,0.0,0.0,-0.13365926370491474,3.72895495105437,0.0,0.0,0.0,0.0,0.0,0.0,0.0,0.0,0.0,0.0,0.0,0.0,22684.874597921225,0.0,
0.6265,2.59590669283797,4.677014385198422,3.9165198127160834,0.0,0.0,-0.13371781754578443,3.7298136302508254,0.0,0.0,0.0,0.0,0.0,0.0,0.0,0.0,0.0,0.0,0.0,0.0,23219.840947685734,0.0,
0.6407,2.5961609954884826,4.678343278912448,3.9175559957063455,0.0,0.0,-0.1337773630301724,3.7306867567024256,0.0,0.0,0.0,0.0,0.0,0.0,0.0,0.0,0.0,0.0,0.0,0.0,23751.419205414964,0.0,
0.6549,2.596421131101702,4.679703235107258,3.9186165984850447,0.0,0.0,-0.13383830912962846,3.731580321564668,0.0,0.0,0.0,0.0,0.0,0.0,0.0,0.0,0.0,0.0,0.0,0.0,24283.357658699628,0.0,
0.6692,2.596689002548277,4.681104248194223,3.919709431973663,0.0,0.0,-0.13390110445345982,3.732500894238721,0.0,0.0,0.0,0.0,0.0,0.0,0.0,0.0,0.0,0.0,0.0,0.0,24819.41479549996,0.0,
0.6834,2.596960872698367,4.682526813494146,3.9208192966507545,0.0,0.0,-0.13396487540913793,3.7334356609477557,0.0,0.0,0.0,0.0,0.0,0.0,0.0,0.0,0.0,0.0,0.0,0.0,25352.101918336673,0.0,
0.6976,2.597238603686085,4.683980710073097,3.9219538348331144,0.0,0.0,-0.13403006092303194,3.7343910495307657,0.0,0.0,0.0,0.0,0.0,0.0,0.0,0.0,0.0,0.0,0.0,0.0,25885.174962490422,0.0,
0.7119,2.5975242232536013,4.685476603342428,3.9231213872704283,0.0,0.0,-0.13409713995573908,3.735374071288819,0.0,0.0,0.0,0.0,0.0,0.0,0.0,0.0,0.0,0.0,0.0,0.0,26422.40079241994,0.0,
0.7261,2.5978137467101696,4.686993668233901,3.9243057159110677,0.0,0.0,-0.1341651793519813,3.7363710436183797,0.0,0.0,0.0,0.0,0.0,0.0,0.0,0.0,0.0,0.0,0.0,0.0,26956.27448139228,0.0,
0.7404,2.598111262160044,4.688553371543086,3.925523595883855,0.0,0.0,-0.13423514259305147,3.737396076528995,0.0,0.0,0.0,0.0,0.0,0.0,0.0,0.0,0.0,0.0,0.0,0.0,27494.324221437317,0.0,
0.7546,2.5984126189870445,4.690134000252064,3.926758089701565,0.0,0.0,-0.1343060564235718,3.738434902980224,0.0,0.0,0.0,0.0,0.0,0.0,0.0,0.0,0.0,0.0,0.0,0.0,28029.033644977742,0.0,
0.7688,2.5987198875689126,4.69174645260952,3.928017723540639,0.0,0.0,-0.134378410398266,3.739494687906357,0.0,0.0,0.0,0.0,0.0,0.0,0.0,0.0,0.0,0.0,0.0,0.0,28564.172671145043,0.0,
0.7831,2.599035305335447,4.693402527195956,3.929311735294363,0.0,0.0,-0.13445273483368939,3.7405831892752555,0.0,0.0,0.0,0.0,0.0,0.0,0.0,0.0,0.0,0.0,0.0,0.0,29103.523385864453,0.0,
0.7973,2.599354471974645,4.695079170025666,3.930622129541208,0.0,0.0,-0.13452799584467237,3.7416852571805066,0.0,0.0,0.0,0.0,0.0,0.0,0.0,0.0,0.0,0.0,0.0,0.0,29639.55135706224,0.0,
0.8116,2.5996818942555047,4.696800107056029,3.931967468506696,0.0,0.0,-0.13460525924140193,3.74281648993941,0.0,0.0,0.0,0.0,0.0,0.0,0.0,0.0,0.0,0.0,0.0,0.0,30179.815339222503,0.0,
0.8258,2.6000130044366374,4.698541381828672,3.933329043606717,0.0,0.0,-0.134683450284712,3.743961143290676,0.0,0.0,0.0,0.0,0.0,0.0,0.0,0.0,0.0,0.0,0.0,0.0,30716.76821987549,0.0,
0.84,2.6003500829952055,4.700315029843782,3.934716282174917,0.0,0.0,-0.13476311010100575,3.745127131671302,0.0,0.0,0.0,0.0,0.0,0.0,0.0,0.0,0.0,0.0,0.0,0.0,31254.195473432985,0.0,
0.8543,2.6006955790665236,4.702134002547114,3.9361393381698027,0.0,0.0,-0.1348448213927571,3.746322973261147,0.0,0.0,0.0,0.0,0.0,0.0,0.0,0.0,0.0,0.0,0.0,0.0,31795.89600974819,0.0,
0.8685,2.601044672839705,4.703972979546629,3.9375784233098026,0.0,0.0,-0.13492744759737232,3.747532025232046,0.0,0.0,0.0,0.0,0.0,0.0,0.0,0.0,0.0,0.0,0.0,0.0,32334.302771388335,0.0,
0.8827,2.6013997717686013,4.705844687907462,3.9390435145400944,0.0,0.0,-0.1350115612685709,3.7487626580720526,0.0,0.0,0.0,0.0,0.0,0.0,0.0,0.0,0.0,0.0,0.0,0.0,32873.21133199725,0.0,
0.897,2.601763453008498,4.707762780815239,3.940545325190535,0.0,0.0,-0.1350977770678696,3.7500238530047576,0.0,0.0,0.0,0.0,0.0,0.0,0.0,0.0,0.0,0.0,0.0,0.0,33416.43147792249,0.0,
0.9112,2.6021306431375137,4.7097005589822825,3.942062973042013,0.0,0.0,-0.13518489583002538,3.75129805838727,0.0,0.0,0.0,0.0,0.0,0.0,0.0,0.0,0.0,0.0,0.0,0.0,33956.37505508455,0.0,
0.9255,2.602506527247815,4.7116854459832,3.943617959290348,0.0,0.0,-0.13527415142937543,3.7526033108404544,0.0,0.0,0.0,0.0,0.0,0.0,0.0,0.0,0.0,0.0,0.0,0.0,34500.65637585378,0.0,
0.9397,2.6028858617428687,4.7136898134091005,3.945188663187459,0.0,0.0,-0.13536430245872788,3.753921446113143,0.0,0.0,0.0,0.0,0.0,0.0,0.0,0.0,0.0,0.0,0.0,0.0,35041.67255481225,0.0,
0.9539,2.603271267578826,4.7157275588738985,3.9467859949539363,0.0,0.0,-0.13545597478776078,3.755261607135554,0.0,0.0,0.0,0.0,0.0,0.0,0.0,0.0,0.0,0.0,0.0,0.0,35583.23732094107,0.0,
0.9682,2.6036655372909214,4.717813524487226,3.948421618910205,0.0,0.0,-0.1355498373564318,3.7566335602294507,0.0,0.0,0.0,0.0,0.0,0.0,0.0,0.0,0.0,0.0,0.0,0.0,36129.179942091825,0.0,
0.9824,2.6040631708981445,4.719918675932272,3.9500727945385563,0.0,0.0,-0.13564458474494298,3.758018213789658,0.0,0.0,0.0,0.0,0.0,0.0,0.0,0.0,0.0,0.0,0.0,0.0,36671.87447197328,0.0,
0.9966,2.6044669185401297,4.722057624052056,3.9517510026740963,0.0,0.0,-0.13574087538772267,3.7594251817554274,0.0,0.0,0.0,0.0,0.0,0.0,0.0,0.0,0.0,0.0,0.0,0.0,37215.146333571494,0.0,
1.0109,2.6048797031470037,4.7242459360821085,3.9534684897827335,0.0,0.0,-0.13583941141411837,3.760864709670615,0.0,0.0,0.0,0.0,0.0,0.0,0.0,0.0,0.0,0.0,0.0,0.0,37762.837303593136,0.0,
1.0251,2.605295766564594,4.726453154314472,3.9552013787733173,0.0,0.0,-0.13593882247703837,3.762316766550794,0.0,0.0,0.0,0.0,0.0,0.0,0.0,0.0,0.0,0.0,0.0,0.0,38307.29716848113,0.0,
1.0394,2.605720984305881,4.728710518539328,3.9569742244895476,0.0,0.0,-0.13604051673498077,3.7638019091115855,0.0,0.0,0.0,0.0,0.0,0.0,0.0,0.0,0.0,0.0,0.0,0.0,38856.204334119786,0.0,
1.0536,2.606149424856544,4.730986610788307,3.958762381377413,0.0,0.0,-0.13614307996963781,3.7652994723407542,0.0,0.0,0.0,0.0,0.0,0.0,0.0,0.0,0.0,0.0,0.0,0.0,39401.89170721122,0.0,
1.0678,2.6065840558250173,4.733297251528287,3.9605783016416236,0.0,0.0,-0.1362472259879854,3.766819869664976,0.0,0.0,0.0,0.0,0.0,0.0,0.0,0.0,0.0,0.0,0.0,0.0,39948.20559023428,0.0,
1.0821,2.60702801977771,4.735659238986323,3.962435223950158,0.0,0.0,-0.13635371341674382,3.7683741609047305,0.0,0.0,0.0,0.0,0.0,0.0,0.0,0.0,0.0,0.0,0.0,0.0,40499.01003370202,0.0,
1.0963,2.6074751238278484,4.7380397004127435,3.9643073358381797,0.0,0.0,-0.1364610614638763,3.7699407200262574,0.0,0.0,0.0,0.0,0.0,0.0,0.0,0.0,0.0,0.0,0.0,0.0,41046.61161369073,0.0,
1.1105,2.6079284673236645,4.740455194777017,3.96620768490943,0.0,0.0,-0.13657001783469092,3.7715304490033703,0.0,0.0,0.0,0.0,0.0,0.0,0.0,0.0,0.0,0.0,0.0,0.0,41594.87000248455,0.0,
1.1248,2.608391325962759,4.7429232725791595,3.9681501187394224,0.0,0.0,-0.13668137578110895,3.7731549057604474,0.0,0.0,0.0,0.0,0.0,0.0,0.0,0.0,0.0,0.0,0.0,0.0,42147.66347958128,0.0,
1.139,2.608857243432948,4.745409586066193,3.9701076382950915,0.0,0.0,-0.1367935868739127,3.7747914892647443,0.0,0.0,0.0,0.0,0.0,0.0,0.0,0.0,0.0,0.0,0.0,0.0,42697.27101959092,0.0,
1.1533,2.609332799636599,4.747949329188551,3.9721079869899167,0.0,0.0,-0.1369082408271429,3.7764633719383554,0.0,0.0,0.0,0.0,0.0,0.0,0.0,0.0,0.0,0.0,0.0,0.0,43251.444099072396,0.0,
1.1675,2.6098113612450975,4.750507157915171,3.9741233623100616,0.0,0.0,-0.137023743446102,3.778147293823443,0.0,0.0,0.0,0.0,0.0,0.0,0.0,0.0,0.0,0.0,0.0,0.0,43802.44254968347,0.0,
1.1817,2.6102962496458346,4.753100886198889,3.97616782799821,0.0,0.0,-0.13714090020870318,3.7798549879476444,0.0,0.0,0.0,0.0,0.0,0.0,0.0,0.0,0.0,0.0,0.0,0.0,44354.149794182864,0.0,
1.196,2.6107909650548713,4.75574934415976,3.978256272100065,0.0,0.0,-0.1372605634436977,3.781598860438232,0.0,0.0,0.0,0.0,0.0,0.0,0.0,0.0,0.0,0.0,0.0,0.0,44910.46933692153,0.0,
1.2102,2.6112886070618027,4.758415676598457,3.980359670156011,0.0,0.0,-0.13738106941196238,3.78335465127209,0.0,0.0,0.0,0.0,0.0,0.0,0.0,0.0,0.0,0.0,0.0,0.0,45463.63122839984,0.0,
1.2244,2.61179263172603,4.761118465186179,3.9824927103395553,0.0,0.0,-0.13750325904004007,3.785134602417255,0.0,0.0,0.0,0.0,0.0,0.0,0.0,0.0,0.0,0.0,0.0,0.0,46017.53403245863,0.0,
1.2387,2.6123066755216473,4.763877323586546,3.9846709208668054,0.0,0.0,-0.13762802094561763,3.7869516399916656,0.0,0.0,0.0,0.0,0.0,0.0,0.0,0.0,0.0,0.0,0.0,0.0,46576.09730563166,0.0,
1.2529,2.6128235686185297,4.766653862211534,3.986864032466739,0.0,0.0,-0.1377536206169519,3.788780487765601,0.0,0.0,0.0,0.0,0.0,0.0,0.0,0.0,0.0,0.0,0.0,0.0,47131.51997103117,0.0,
1.2672,2.613350611291377,4.7694873882664774,3.9891031347945436,0.0,0.0,-0.13788183775763305,3.7906470447841323,0.0,0.0,0.0,0.0,0.0,0.0,0.0,0.0,0.0,0.0,0.0,0.0,47691.636072024216,0.0,
1.2814,2.6138804525300046,4.77233847452591,3.991357114363733,0.0,0.0,-0.13801088990268823,3.7925253471398825,0.0,0.0,0.0,0.0,0.0,0.0,0.0,0.0,0.0,0.0,0.0,0.0,48248.62299125162,0.0,
1.2956,2.6144167756559185,4.775227009896035,3.9936417277942526,0.0,0.0,-0.13814167853246015,3.794428504448735,0.0,0.0,0.0,0.0,0.0,0.0,0.0,0.0,0.0,0.0,0.0,0.0,48806.40608644426,0.0,
1.3099,2.6149634472227685,4.778173943512123,3.995973600048022,0.0,0.0,-0.13827515432258464,3.7963703302609715,0.0,0.0,0.0,0.0,0.0,0.0,0.0,0.0,0.0,0.0,0.0,0.0,49368.93327596021,0.0,
1.3241,2.6155128426496095,4.781138272347129,3.9983203317545764,0.0,0.0,-0.1384094618381957,3.7983238155837715,0.0,0.0,0.0,0.0,0.0,0.0,0.0,0.0,0.0,0.0,0.0,0.0,49928.34849961226,0.0,
1.3383,2.6160687832703258,4.784140686582328,4.000698337818548,0.0,0.0,-0.13854553980007037,3.800302602557067,0.0,0.0,0.0,0.0,0.0,0.0,0.0,0.0,0.0,0.0,0.0,0.0,50488.59413932164,0.0,
1.3526,2.6166352754487923,4.7872029547250925,4.00312491976923,0.0,0.0,-0.13868437709149212,3.8023210499810385,0.0,0.0,0.0,0.0,0.0,0.0,0.0,0.0,0.0,0.0,0.0,0.0,51053.63610929047,0.0,
1.3668,2.6172044183860166,4.790282471418106,4.005566365844075,0.0,0.0,-0.13882404389559977,3.804351085216066,0.0,0.0,0.0,0.0,0.0,0.0,0.0,0.0,0.0,0.0,0.0,0.0,51615.58347247323,0.0,
1.3811,2.6177842508992386,4.793422839523032,4.008057295447224,0.0,0.0,-0.13896651963610915,3.806421461956498,0.0,0.0,0.0,0.0,0.0,0.0,0.0,0.0,0.0,0.0,0.0,0.0,52182.36294188334,0.0,
1.3953,2.61836668629443,4.796580368792693,4.010563105375365,0.0,0.0,-0.1391098240275209,3.808503386820829,0.0,0.0,0.0,0.0,0.0,0.0,0.0,0.0,0.0,0.0,0.0,0.0,52746.05948606325,0.0,
1.4095,2.618955779101714,4.799777116515117,4.013101339891155,0.0,0.0,-0.13925495955213135,3.810611411835995,0.0,0.0,0.0,0.0,0.0,0.0,0.0,0.0,0.0,0.0,0.0,0.0,53310.645525799584,0.0,
1.4238,2.61955577206881,4.803036250535504,4.015690462726825,0.0,0.0,-0.13940298058343648,3.812760828443713,0.0,0.0,0.0,0.0,0.0,0.0,0.0,0.0,0.0,0.0,0.0,0.0,53880.11869105008,0.0,
1.438,2.6201582975928766,4.806312431053033,4.0182945107178245,0.0,0.0,-0.1395518299316553,3.814921746454578,0.0,0.0,0.0,0.0,0.0,0.0,0.0,0.0,0.0,0.0,0.0,0.0,54446.5266002003,0.0,
1.4523,2.620771866445514,4.809652050215883,4.0209504159481195,0.0,0.0,-0.1397036174501553,3.8171247775365056,0.0,0.0,0.0,0.0,0.0,0.0,0.0,0.0,0.0,0.0,0.0,0.0,55017.85933615974,0.0,
1.4665,2.6213879218785774,4.813008650515561,4.02362129058122,0.0,0.0,-0.13985623372381706,3.819339287658453,0.0,0.0,0.0,0.0,0.0,0.0,0.0,0.0,0.0,0.0,0.0,0.0,55586.13873586991,0.0,
1.4807,2.6220107557202024,4.816405698023616,4.026325851258704,0.0,0.0,-0.1400107472420962,3.8215807683341745,0.0,0.0,0.0,0.0,0.0,0.0,0.0,0.0,0.0,0.0,0.0,0.0,56155.36940447156,0.0,
1.495,2.6226448514540315,4.819867804330626,4.029083770130271,0.0,0.0,-0.1401682802693678,3.823865475304976,0.0,0.0,0.0,0.0,0.0,0.0,0.0,0.0,0.0,0.0,0.0,0.0,56729.58291011383,0.0,
1.5092,2.623281366368389,4.823346811186479,4.031856747281621,0.0,0.0,-0.1403266437399773,3.826161641612163,0.0,0.0,0.0,0.0,0.0,0.0,0.0,0.0,0.0,0.0,0.0,0.0,57300.76115494469,0.0,
1.5234,2.6239247367056038,4.826867050997597,4.034664224840116,0.0,0.0,-0.14048694689013,3.8284853375144388,0.0,0.0,0.0,0.0,0.0,0.0,0.0,0.0,0.0,0.0,0.0,0.0,57872.92911637325,0.0,
1.5377,2.624579592552289,4.830454024050876,4.03752662371649,0.0,0.0,-0.14065035394031686,3.830853413439885,0.0,0.0,0.0,0.0,0.0,0.0,0.0,0.0,0.0,0.0,0.0,0.0,58450.139826656574,0.0,
