energies(eV),real_xx,real_yy,real_zz,real_xy,real_yz,real_xz,real_ave,imag_xx,imag_yy,imag_zz,imag_xy,imag_yz,imag_xz,imag_ave,absorption_xx,absorption_yy,absorption_zz,absorption_xy,absorption_yz,absorption_xz,absorption_ave,band_gap
0.0,4.433751543761518,4.433751543761518,4.076750221039465,0.0,0.0,0.0,4.314751102854166,0.0,0.0,0.0,0.0,0.0,0.0,0.0,0.0,0.0,0.0,0.0,0.0,0.0,0.0,3.6185
0.0141,4.43376667912914,4.43376667912914,4.076760683398726,0.0,0.0,0.0,4.314764680552336,0.0,0.0,0.0,0.0,0.0,0.0,0.0,0.0,0.0,0.0,0.0,0.0,0.0,0.0,
0.0281,4.4338116577953235,4.4338116577953235,4.076791774775539,0.0,0.0,0.0,4.314805030122062,0.0,0.0,0.0,0.0,0.0,0.0,0.0,0.0,0.0,0.0,0.0,0.0,0.0,0.0,
0.0422,4.433887125864411,4.433887125864411,4.076843941078669,0.0,0.0,0.0,4.31487273093583,0.0,0.0,0.0,0.0,0.0,0.0,0.0,0.0,0.0,0.0,0.0,0.0,0.0,0.0,
0.0562,4.433992018729628,4.433992018729628,4.076916445242459,0.0,0.0,0.0,4.314966827567238,0.0,0.0,0.0,0.0,0.0,0.0,0.0,0.0,0.0,0.0,0.0,0.0,0.0,0.0,
0.0703,4.434127843146033,4.434127843146033,4.077010327113657,0.0,0.0,0.0,4.315088671135241,0.0,0.0,0.0,0.0,0.0,0.0,0.0,0.0,0.0,0.0,0.0,0.0,0.0,0.0,
0.0843,4.434292683080528,4.434292683080528,4.077124260222238,0.0,0.0,0.0,4.3152365421277645,0.0,0.0,0.0,0.0,0.0,0.0,0.0,0.0,0.0,0.0,0.0,0.0,0.0,0.0,
0.0984,4.4344889064161235,4.4344889064161235,4.077259878586352,0.0,0.0,0.0,4.315412563806199,0.0,0.0,0.0,0.0,0.0,0.0,0.0,0.0,0.0,0.0,0.0,0.0,0.0,0.0,
0.1124,4.434713745099213,4.434713745099213,4.07741526603821,0.0,0.0,0.0,4.315614252078879,0.0,0.0,0.0,0.0,0.0,0.0,0.0,0.0,0.0,0.0,0.0,0.0,0.0,0.0,
0.1265,4.434970428890961,4.434970428890961,4.077592651134397,0.0,0.0,0.0,4.315844502972106,0.0,0.0,0.0,0.0,0.0,0.0,0.0,0.0,0.0,0.0,0.0,0.0,0.0,0.0,
0.1405,4.4352553368584395,4.4352553368584395,4.077789527585291,0.0,0.0,0.0,4.316100067100724,0.0,0.0,0.0,0.0,0.0,0.0,0.0,0.0,0.0,0.0,0.0,0.0,0.0,0.0,
0.1546,4.4355725616649515,4.4355725616649515,4.078008718986645,0.0,0.0,0.0,4.316384614105516,0.0,0.0,0.0,0.0,0.0,0.0,0.0,0.0,0.0,0.0,0.0,0.0,0.0,0.0,
0.1686,4.435917628374004,4.435917628374004,4.078247128372068,0.0,0.0,0.0,4.316694128373359,0.0,0.0,0.0,0.0,0.0,0.0,0.0,0.0,0.0,0.0,0.0,0.0,0.0,0.0,
0.1827,4.436295493849728,4.436295493849728,4.078508175011328,0.0,0.0,0.0,4.317033054236927,0.0,0.0,0.0,0.0,0.0,0.0,0.0,0.0,0.0,0.0,0.0,0.0,0.0,0.0,
0.1968,4.436703831134345,4.436703831134345,4.078790245131502,0.0,0.0,0.0,4.317399302466731,0.0,0.0,0.0,0.0,0.0,0.0,0.0,0.0,0.0,0.0,0.0,0.0,0.0,0.0,
0.2108,4.43713945274832,4.43713945274832,4.079091130776656,0.0,0.0,0.0,4.317790012091098,0.0,0.0,0.0,0.0,0.0,0.0,0.0,0.0,0.0,0.0,0.0,0.0,0.0,0.0,
0.2249,4.43760861644003,4.43760861644003,4.079415147275338,0.0,0.0,0.0,4.318210793385132,0.0,0.0,0.0,0.0,0.0,0.0,0.0,0.0,0.0,0.0,0.0,0.0,0.0,0.0,
0.2389,4.438104704064884,4.438104704064884,4.079757716623584,0.0,0.0,0.0,4.318655708251117,0.0,0.0,0.0,0.0,0.0,0.0,0.0,0.0,0.0,0.0,0.0,0.0,0.0,0.0,
0.253,4.43863484203321,4.43863484203321,4.080123752002573,0.0,0.0,0.0,4.319131145356331,0.0,0.0,0.0,0.0,0.0,0.0,0.0,0.0,0.0,0.0,0.0,0.0,0.0,0.0,
0.267,4.439191552150474,4.439191552150474,4.080508081750807,0.0,0.0,0.0,4.319630395350585,0.0,0.0,0.0,0.0,0.0,0.0,0.0,0.0,0.0,0.0,0.0,0.0,0.0,0.0,
0.2811,4.439782831761044,4.439782831761044,4.08091621801039,0.0,0.0,0.0,4.320160627177493,0.0,0.0,0.0,0.0,0.0,0.0,0.0,0.0,0.0,0.0,0.0,0.0,0.0,0.0,
0.2951,4.440400340285035,4.440400340285035,4.081342394312502,0.0,0.0,0.0,4.3207143582941905,0.0,0.0,0.0,0.0,0.0,0.0,0.0,0.0,0.0,0.0,0.0,0.0,0.0,0.0,
0.3092,4.441052948555148,4.441052948555148,4.081792723005196,0.0,0.0,0.0,4.321299540038498,0.0,0.0,0.0,0.0,0.0,0.0,0.0,0.0,0.0,0.0,0.0,0.0,0.0,0.0,
0.3232,4.441731450996558,4.441731450996558,4.08226084152852,0.0,0.0,0.0,4.321907914507212,0.0,0.0,0.0,0.0,0.0,0.0,0.0,0.0,0.0,0.0,0.0,0.0,0.0,0.0,
0.3373,4.442445594769189,4.442445594769189,4.082753463819126,0.0,0.0,0.0,4.322548217785834,0.0,0.0,0.0,0.0,0.0,0.0,0.0,0.0,0.0,0.0,0.0,0.0,0.0,0.0,
0.3513,4.443185306417345,4.443185306417345,4.083263629807379,0.0,0.0,0.0,4.323211414214023,0.0,0.0,0.0,0.0,0.0,0.0,0.0,0.0,0.0,0.0,0.0,0.0,0.0,0.0,
0.3654,4.443961212554582,4.443961212554582,4.083798656539533,0.0,0.0,0.0,4.323907027216232,0.0,0.0,0.0,0.0,0.0,0.0,0.0,0.0,0.0,0.0,0.0,0.0,0.0,0.0,
0.3795,4.444768201596963,4.444768201596963,4.084355005770089,0.0,0.0,0.0,4.324630469654672,0.0,0.0,0.0,0.0,0.0,0.0,0.0,0.0,0.0,0.0,0.0,0.0,0.0,0.0,
0.3935,4.445600284274633,4.445600284274633,4.084928536651637,0.0,0.0,0.0,4.325376368400301,0.0,0.0,0.0,0.0,0.0,0.0,0.0,0.0,0.0,0.0,0.0,0.0,0.0,0.0,
0.4076,4.446469414457077,4.446469414457077,4.0855274751310375,0.0,0.0,0.0,4.326155434681731,0.0,0.0,0.0,0.0,0.0,0.0,0.0,0.0,0.0,0.0,0.0,0.0,0.0,0.0,
0.4216,4.4473633329580124,4.4473633329580124,4.086143359193989,0.0,0.0,0.0,4.326956675036672,0.0,0.0,0.0,0.0,0.0,0.0,0.0,0.0,0.0,0.0,0.0,0.0,0.0,0.0,
0.4357,4.448294882201015,4.448294882201015,4.086785022315331,0.0,0.0,0.0,4.327791595572454,0.0,0.0,0.0,0.0,0.0,0.0,0.0,0.0,0.0,0.0,0.0,0.0,0.0,0.0,
0.4497,4.449250922792553,4.449250922792553,4.087443398927803,0.0,0.0,0.0,4.3286484148376365,0.0,0.0,0.0,0.0,0.0,0.0,0.0,0.0,0.0,0.0,0.0,0.0,0.0,0.0,
0.4638,4.450245189868336,4.450245189868336,4.088127932048577,0.0,0.0,0.0,4.32953943726175,0.0,0.0,0.0,0.0,0.0,0.0,0.0,0.0,0.0,0.0,0.0,0.0,0.0,0.0,
0.4778,4.451263659660147,4.451263659660147,4.088828950519705,0.0,0.0,0.0,4.330452089946666,0.0,0.0,0.0,0.0,0.0,0.0,0.0,0.0,0.0,0.0,0.0,0.0,0.0,0.0,
0.4919,4.4523209644768915,4.4523209644768915,4.08955650905874,0.0,0.0,0.0,4.331399479337508,0.0,0.0,0.0,0.0,0.0,0.0,0.0,0.0,0.0,0.0,0.0,0.0,0.0,0.0,
0.5059,4.453402191713771,4.453402191713771,4.090300328738385,0.0,0.0,0.0,4.332368237388642,0.0,0.0,0.0,0.0,0.0,0.0,0.0,0.0,0.0,0.0,0.0,0.0,0.0,0.0,
0.52,4.454522875621436,4.454522875621436,4.0910710782799775,0.0,0.0,0.0,4.333372276507617,0.0,0.0,0.0,0.0,0.0,0.0,0.0,0.0,0.0,0.0,0.0,0.0,0.0,0.0,
0.534,4.455667209997982,4.455667209997982,4.09185786866572,0.0,0.0,0.0,4.334397429553895,0.0,0.0,0.0,0.0,0.0,0.0,0.0,0.0,0.0,0.0,0.0,0.0,0.0,0.0,
0.5481,4.456851636116333,4.456851636116333,4.092671985070837,0.0,0.0,0.0,4.335458419101168,0.0,0.0,0.0,0.0,0.0,0.0,0.0,0.0,0.0,0.0,0.0,0.0,0.0,0.0,
0.5622,4.458068190513046,4.458068190513046,4.093507931595459,0.0,0.0,0.0,4.336548104207184,0.0,0.0,0.0,0.0,0.0,0.0,0.0,0.0,0.0,0.0,0.0,0.0,0.0,0.0,
0.5762,4.459308002683292,4.459308002683292,4.09435959544694,0.0,0.0,0.0,4.3376585336045075,0.0,0.0,0.0,0.0,0.0,0.0,0.0,0.0,0.0,0.0,0.0,0.0,0.0,0.0,
0.5903,4.460588886288142,4.460588886288142,4.095239192507132,0.0,0.0,0.0,4.338805655027805,0.0,0.0,0.0,0.0,0.0,0.0,0.0,0.0,0.0,0.0,0.0,0.0,0.0,0.0,
0.6043,4.4618927766857475,4.4618927766857475,4.096134296328872,0.0,0.0,0.0,4.339973283233456,0.0,0.0,0.0,0.0,0.0,0.0,0.0,0.0,0.0,0.0,0.0,0.0,0.0,0.0,
0.6184,4.463238408670412,4.463238408670412,4.0970577460320445,0.0,0.0,0.0,4.341178187790956,0.0,0.0,0.0,0.0,0.0,0.0,0.0,0.0,0.0,0.0,0.0,0.0,0.0,0.0,
0.6324,4.464606804911153,4.464606804911153,4.09799649580528,0.0,0.0,0.0,4.342403368542528,0.0,0.0,0.0,0.0,0.0,0.0,0.0,0.0,0.0,0.0,0.0,0.0,0.0,0.0,
0.6465,4.4660176275504195,4.4660176275504195,4.098964010984595,0.0,0.0,0.0,4.343666422028478,0.0,0.0,0.0,0.0,0.0,0.0,0.0,0.0,0.0,0.0,0.0,0.0,0.0,0.0,
0.6605,4.4674509804029405,4.4674509804029405,4.099946623411702,0.0,0.0,0.0,4.344949528072528,0.0,0.0,0.0,0.0,0.0,0.0,0.0,0.0,0.0,0.0,0.0,0.0,0.0,0.0,
0.6746,4.468927459511388,4.468927459511388,4.100958427771962,0.0,0.0,0.0,4.346271115598246,0.0,0.0,0.0,0.0,0.0,0.0,0.0,0.0,0.0,0.0,0.0,0.0,0.0,0.0,
0.6886,4.470426243343733,4.470426243343733,4.101985130425364,0.0,0.0,0.0,4.34761253903761,0.0,0.0,0.0,0.0,0.0,0.0,0.0,0.0,0.0,0.0,0.0,0.0,0.0,0.0,
0.7027,4.471968868738793,4.471968868738793,4.103041458697305,0.0,0.0,0.0,4.348993065391631,0.0,0.0,0.0,0.0,0.0,0.0,0.0,0.0,0.0,0.0,0.0,0.0,0.0,0.0,
0.7167,4.473533581991543,4.473533581991543,4.1041124901767745,0.0,0.0,0.0,4.350393218053287,0.0,0.0,0.0,0.0,0.0,0.0,0.0,0.0,0.0,0.0,0.0,0.0,0.0,0.0,
0.7308,4.4751428679838625,4.4751428679838625,4.1052135882796135,0.0,0.0,0.0,4.351833108082446,0.0,0.0,0.0,0.0,0.0,0.0,0.0,0.0,0.0,0.0,0.0,0.0,0.0,0.0,
0.7449,4.476785804508248,4.476785804508248,4.106337247179644,0.0,0.0,0.0,4.35330295206538,0.0,0.0,0.0,0.0,0.0,0.0,0.0,0.0,0.0,0.0,0.0,0.0,0.0,0.0,
0.7589,4.4784505195832995,4.4784505195832995,4.107475323590969,0.0,0.0,0.0,4.354792120919189,0.0,0.0,0.0,0.0,0.0,0.0,0.0,0.0,0.0,0.0,0.0,0.0,0.0,0.0,
0.773,4.480160936243642,4.480160936243642,4.108644143034812,0.0,0.0,0.0,4.356322005174032,0.0,0.0,0.0,0.0,0.0,0.0,0.0,0.0,0.0,0.0,0.0,0.0,0.0,0.0,
0.787,4.481892936537092,4.481892936537092,4.10982719461125,0.0,0.0,0.0,4.3578710225618105,0.0,0.0,0.0,0.0,0.0,0.0,0.0,0.0,0.0,0.0,0.0,0.0,0.0,0.0,
0.8011,4.483671411257946,4.483671411257946,4.1110414492796625,0.0,0.0,0.0,4.359461423931852,0.0,0.0,0.0,0.0,0.0,0.0,0.0,0.0,0.0,0.0,0.0,0.0,0.0,0.0,
0.8151,4.485471283646648,4.485471283646648,4.112269754601363,0.0,0.0,0.0,4.361070773964887,0.0,0.0,0.0,0.0,0.0,0.0,0.0,0.0,0.0,0.0,0.0,0.0,0.0,0.0,
0.8292,4.4873184207939865,4.4873184207939865,4.113529731003499,0.0,0.0,0.0,4.362722190863824,0.0,0.0,0.0,0.0,0.0,0.0,0.0,0.0,0.0,0.0,0.0,0.0,0.0,0.0,
0.8432,4.489186778715926,4.489186778715926,4.114803580495147,0.0,0.0,0.0,4.364392379309,0.0,0.0,0.0,0.0,0.0,0.0,0.0,0.0,0.0,0.0,0.0,0.0,0.0,0.0,
0.8573,4.491103209724276,4.491103209724276,4.116109577172417,0.0,0.0,0.0,4.366105332206989,0.0,0.0,0.0,0.0,0.0,0.0,0.0,0.0,0.0,0.0,0.0,0.0,0.0,0.0,
0.8713,4.493040693817923,4.493040693817923,4.117429273310659,0.0,0.0,0.0,4.367836886982168,0.0,0.0,0.0,0.0,0.0,0.0,0.0,0.0,0.0,0.0,0.0,0.0,0.0,0.0,
0.8854,4.495027077851475,4.495027077851475,4.118781601050758,0.0,0.0,0.0,4.369611918917903,0.0,0.0,0.0,0.0,0.0,0.0,0.0,0.0,0.0,0.0,0.0,0.0,0.0,0.0,
0.8994,4.497034356629448,4.497034356629448,4.120147458581547,0.0,0.0,0.0,4.371405390613481,0.0,0.0,0.0,0.0,0.0,0.0,0.0,0.0,0.0,0.0,0.0,0.0,0.0,0.0,
0.9135,4.49909138127832,4.49909138127832,4.121546440642585,0.0,0.0,0.0,4.373243067733075,0.0,0.0,0.0,0.0,0.0,0.0,0.0,0.0,0.0,0.0,0.0,0.0,0.0,0.0,
0.9276,4.501184120133069,4.501184120133069,4.122968958659017,0.0,0.0,0.0,4.3751123996417185,0.0,0.0,0.0,0.0,0.0,0.0,0.0,0.0,0.0,0.0,0.0,0.0,0.0,0.0,
0.9416,4.503297533850521,4.503297533850521,4.124404759154531,0.0,0.0,0.0,4.376999942285191,0.0,0.0,0.0,0.0,0.0,0.0,0.0,0.0,0.0,0.0,0.0,0.0,0.0,0.0,
0.9557,4.505462000947531,4.505462000947531,4.125874440898666,0.0,0.0,0.0,4.378932814264576,0.0,0.0,0.0,0.0,0.0,0.0,0.0,0.0,0.0,0.0,0.0,0.0,0.0,0.0,
0.9697,4.507647008675393,4.507647008675393,4.12735724548011,0.0,0.0,0.0,4.380883754276965,0.0,0.0,0.0,0.0,0.0,0.0,0.0,0.0,0.0,0.0,0.0,0.0,0.0,0.0,
0.9838,4.509883966017062,4.509883966017062,4.1288744464613,0.0,0.0,0.0,4.382880792831808,0.0,0.0,0.0,0.0,0.0,0.0,0.0,0.0,0.0,0.0,0.0,0.0,0.0,0.0,
0.9978,4.512141339719893,4.512141339719893,4.130404614706895,0.0,0.0,0.0,4.3848957647155595,0.0,0.0,0.0,0.0,0.0,0.0,0.0,0.0,0.0,0.0,0.0,0.0,0.0,0.0,
1.0119,4.514451580474892,4.514451580474892,4.13196970377639,0.0,0.0,0.0,4.386957621575392,0.0,0.0,0.0,0.0,0.0,0.0,0.0,0.0,0.0,0.0,0.0,0.0,0.0,0.0,
1.0259,4.516782123491943,4.516782123491943,4.133547608646679,0.0,0.0,0.0,4.389037285210189,0.0,0.0,0.0,0.0,0.0,0.0,0.0,0.0,0.0,0.0,0.0,0.0,0.0,0.0,
1.04,4.519166472871217,4.519166472871217,4.135160968272816,0.0,0.0,0.0,4.391164638005083,0.0,0.0,0.0,0.0,0.0,0.0,0.0,0.0,0.0,0.0,0.0,0.0,0.0,0.0,
1.054,4.521571020808421,4.521571020808421,4.136786996390205,0.0,0.0,0.0,4.393309679335682,0.0,0.0,0.0,0.0,0.0,0.0,0.0,0.0,0.0,0.0,0.0,0.0,0.0,0.0,
1.0681,4.524030336986485,4.524030336986485,4.1384490229460855,0.0,0.0,0.0,4.395503232306352,0.0,0.0,0.0,0.0,0.0,0.0,0.0,0.0,0.0,0.0,0.0,0.0,0.0,0.0,
1.0821,4.5265097586544645,4.5265097586544645,4.1401235748865375,0.0,0.0,0.0,4.3977143640651555,0.0,0.0,0.0,0.0,0.0,0.0,0.0,0.0,0.0,0.0,0.0,0.0,0.0,0.0,
1.0962,4.52904493373815,4.52904493373815,4.141834678950559,0.0,0.0,0.0,4.399974848808953,0.0,0.0,0.0,0.0,0.0,0.0,0.0,0.0,0.0,0.0,0.0,0.0,0.0,0.0,
1.1103,4.531618520324283,4.531618520324283,4.143570568342753,0.0,0.0,0.0,4.402269202997107,0.0,0.0,0.0,0.0,0.0,0.0,0.0,0.0,0.0,0.0,0.0,0.0,0.0,0.0,
1.1243,4.534212093185223,4.534212093185223,4.1453187762189625,0.0,0.0,0.0,4.404580987529803,0.0,0.0,0.0,0.0,0.0,0.0,0.0,0.0,0.0,0.0,0.0,0.0,0.0,0.0,
1.1384,4.536862944415847,4.536862944415847,4.147104387095523,0.0,0.0,0.0,4.4069434253090725,0.0,0.0,0.0,0.0,0.0,0.0,0.0,0.0,0.0,0.0,0.0,0.0,0.0,0.0,
1.1524,4.539533716635742,4.539533716635742,4.148902184108758,0.0,0.0,0.0,4.409323205793414,0.0,0.0,0.0,0.0,0.0,0.0,0.0,0.0,0.0,0.0,0.0,0.0,0.0,0.0,
1.1665,4.542262814085028,4.542262814085028,4.150737963993134,0.0,0.0,0.0,4.411754530721063,0.0,0.0,0.0,0.0,0.0,0.0,0.0,0.0,0.0,0.0,0.0,0.0,0.0,0.0,
1.1805,4.545011778862179,4.545011778862179,4.152585802077706,0.0,0.0,0.0,4.4142031199340215,0.0,0.0,0.0,0.0,0.0,0.0,0.0,0.0,0.0,0.0,0.0,0.0,0.0,0.0,
1.1946,4.5478201418374695,4.5478201418374695,4.1544722138608545,0.0,0.0,0.0,4.416704165845265,0.0,0.0,0.0,0.0,0.0,0.0,0.0,0.0,0.0,0.0,0.0,0.0,0.0,0.0,
1.2086,4.550648330430766,4.550648330430766,4.156370560389087,0.0,0.0,0.0,4.41922240708354,0.0,0.0,0.0,0.0,0.0,0.0,0.0,0.0,0.0,0.0,0.0,0.0,0.0,0.0,
1.2227,4.553537017185912,4.553537017185912,4.158308082694895,0.0,0.0,0.0,4.421794039022239,0.0,0.0,0.0,0.0,0.0,0.0,0.0,0.0,0.0,0.0,0.0,0.0,0.0,0.0,
1.2367,4.556445500149804,4.556445500149804,4.160257420847875,0.0,0.0,0.0,4.424382807049161,0.0,0.0,0.0,0.0,0.0,0.0,0.0,0.0,0.0,0.0,0.0,0.0,0.0,0.0,
1.2508,4.559415609160929,4.559415609160929,4.162246548414764,0.0,0.0,0.0,4.427025922245541,0.0,0.0,0.0,0.0,0.0,0.0,0.0,0.0,0.0,0.0,0.0,0.0,0.0,0.0,
1.2648,4.562405497644432,4.562405497644432,4.164247377569472,0.0,0.0,0.0,4.429686124286112,0.0,0.0,0.0,0.0,0.0,0.0,0.0,0.0,0.0,0.0,0.0,0.0,0.0,0.0,
1.2789,4.565458168951202,4.565458168951202,4.1662886216487065,0.0,0.0,0.0,4.432401653183703,0.0,0.0,0.0,0.0,0.0,0.0,0.0,0.0,0.0,0.0,0.0,0.0,0.0,0.0,
1.293,4.568552711304667,4.568552711304667,4.168356214650151,0.0,0.0,0.0,4.435153879086495,0.0,0.0,0.0,0.0,0.0,0.0,0.0,0.0,0.0,0.0,0.0,0.0,0.0,0.0,
1.307,4.571667032679904,4.571667032679904,4.170435346553366,0.0,0.0,0.0,4.4379231373043915,0.0,0.0,0.0,0.0,0.0,0.0,0.0,0.0,0.0,0.0,0.0,0.0,0.0,0.0,
1.3211,4.574845930609923,4.574845930609923,4.172555855790733,0.0,0.0,0.0,4.440749239003527,0.0,0.0,0.0,0.0,0.0,0.0,0.0,0.0,0.0,0.0,0.0,0.0,0.0,0.0,
1.3351,4.578044624324696,4.578044624324696,4.174687801669661,0.0,0.0,0.0,4.443592350106351,0.0,0.0,0.0,0.0,0.0,0.0,0.0,0.0,0.0,0.0,0.0,0.0,0.0,0.0,
1.3492,4.581309128194153,4.581309128194153,4.176861781566986,0.0,0.0,0.0,4.446493345985098,0.0,0.0,0.0,0.0,0.0,0.0,0.0,0.0,0.0,0.0,0.0,0.0,0.0,0.0,
1.3632,4.5845934587894845,4.5845934587894845,4.17904710081595,0.0,0.0,0.0,4.449411339464973,0.0,0.0,0.0,0.0,0.0,0.0,0.0,0.0,0.0,0.0,0.0,0.0,0.0,0.0,
1.3773,4.587944865793402,4.587944865793402,4.181275123847549,0.0,0.0,0.0,4.452388285144784,0.0,0.0,0.0,0.0,0.0,0.0,0.0,0.0,0.0,0.0,0.0,0.0,0.0,0.0,
1.3913,4.5913161451361315,4.5913161451361315,4.183514394020406,0.0,0.0,0.0,4.455382228097556,0.0,0.0,0.0,0.0,0.0,0.0,0.0,0.0,0.0,0.0,0.0,0.0,0.0,0.0,
1.4054,4.59475580098663,4.59475580098663,4.185797051194003,0.0,0.0,0.0,4.458436217722421,0.0,0.0,0.0,0.0,0.0,0.0,0.0,0.0,0.0,0.0,0.0,0.0,0.0,0.0,
1.4194,4.5982153899856595,4.5982153899856595,4.18809086849434,0.0,0.0,0.0,4.46150721615522,0.0,0.0,0.0,0.0,0.0,0.0,0.0,0.0,0.0,0.0,0.0,0.0,0.0,0.0,
1.4335,4.60174469068536,4.60174469068536,4.190428769855501,0.0,0.0,0.0,4.464639383742074,0.0,0.0,0.0,0.0,0.0,0.0,0.0,0.0,0.0,0.0,0.0,0.0,0.0,0.0,
1.4475,4.605294001098379,4.605294001098379,4.192777749648284,0.0,0.0,0.0,4.467788583948347,0.0,0.0,0.0,0.0,0.0,0.0,0.0,0.0,0.0,0.0,0.0,0.0,0.0,0.0,
1.4616,4.608914394807521,4.608914394807521,4.19517152480699,0.0,0.0,0.0,4.471000104807344,0.0,0.0,0.0,0.0,0.0,0.0,0.0,0.0,0.0,0.0,0.0,0.0,0.0,0.0,
1.4757,4.612581059674226,4.612581059674226,4.197593579806938,0.0,0.0,0.0,4.474251899718463,0.0,0.0,0.0,0.0,0.0,0.0,0.0,0.0,0.0,0.0,0.0,0.0,0.0,0.0,
1.4897,4.616267880146474,4.616267880146474,4.200026600833352,0.0,0.0,0.0,4.4775207870421,0.0,0.0,0.0,0.0,0.0,0.0,0.0,0.0,0.0,0.0,0.0,0.0,0.0,0.0,
1.5038,4.620027915161758,4.620027915161758,4.202505513131369,0.0,0.0,0.0,4.4808537811516285,0.0,0.0,0.0,0.0,0.0,0.0,0.0,0.0,0.0,0.0,0.0,0.0,0.0,0.0,
1.5178,4.623808224446413,4.623808224446413,4.204995323661418,0.0,0.0,0.0,4.484203924184748,0.0,0.0,0.0,0.0,0.0,0.0,0.0,0.0,0.0,0.0,0.0,0.0,0.0,0.0,
1.5319,4.627663217103444,4.627663217103444,4.2075317742754805,0.0,0.0,0.0,4.487619402827456,0.0,0.0,0.0,0.0,0.0,0.0,0.0,0.0,0.0,0.0,0.0,0.0,0.0,0.0,
1.5459,4.631538620696935,4.631538620696935,4.210079061142336,0.0,0.0,0.0,4.491052100845402,0.0,0.0,0.0,0.0,0.0,0.0,0.0,0.0,0.0,0.0,0.0,0.0,0.0,0.0,
1.56,4.635490218007204,4.635490218007204,4.212673752689431,0.0,0.0,0.0,4.4945513962346135,0.0,0.0,0.0,0.0,0.0,0.0,0.0,0.0,0.0,0.0,0.0,0.0,0.0,0.0,
1.574,4.639462381660078,4.639462381660078,4.215279224486462,0.0,0.0,0.0,4.498067995935539,0.0,0.0,0.0,0.0,0.0,0.0,0.0,0.0,0.0,0.0,0.0,0.0,0.0,0.0,
1.5881,4.64351229251699,4.64351229251699,4.217932881822925,0.0,0.0,0.0,4.501652488952302,0.0,0.0,0.0,0.0,0.0,0.0,0.0,0.0,0.0,0.0,0.0,0.0,0.0,0.0,
1.6021,4.647582944643876,4.647582944643876,4.220597269553581,0.0,0.0,0.0,4.505254386280444,0.0,0.0,0.0,0.0,0.0,0.0,0.0,0.0,0.0,0.0,0.0,0.0,0.0,0.0,
1.6162,4.65173294231577,4.65173294231577,4.223310640444149,0.0,0.0,0.0,4.508925508358563,0.0,0.0,0.0,0.0,0.0,0.0,0.0,0.0,0.0,0.0,0.0,0.0,0.0,0.0,
1.6302,4.655903876538094,4.655903876538094,4.226034698201173,0.0,0.0,0.0,4.512614150425787,0.0,0.0,0.0,0.0,0.0,0.0,0.0,0.0,0.0,0.0,0.0,0.0,0.0,0.0,
1.6443,4.660155801299024,4.660155801299024,4.228808554018139,0.0,0.0,0.0,4.516373385538729,0.0,0.0,0.0,0.0,0.0,0.0,0.0,0.0,0.0,0.0,0.0,0.0,0.0,0.0,
1.6584,4.664459586162938,4.664459586162938,4.231613058179,0.0,0.0,0.0,4.520177410168292,0.0,0.0,0.0,0.0,0.0,0.0,0.0,0.0,0.0,0.0,0.0,0.0,0.0,0.0,
1.6724,4.668784641035442,4.668784641035442,4.234428196147517,0.0,0.0,0.0,4.5239991594061335,0.0,0.0,0.0,0.0,0.0,0.0,0.0,0.0,0.0,0.0,0.0,0.0,0.0,0.0,
1.6865,4.673193248680439,4.673193248680439,4.237294389626059,0.0,0.0,0.0,4.5278936289956455,0.0,0.0,0.0,0.0,0.0,0.0,0.0,0.0,0.0,0.0,0.0,0.0,0.0,0.0,
1.7005,4.6776233765337425,4.6776233765337425,4.240171190078739,0.0,0.0,0.0,4.531805981048741,0.0,0.0,0.0,0.0,0.0,0.0,0.0,0.0,0.0,0.0,0.0,0.0,0.0,0.0,
1.7146,4.682138827376721,4.682138827376721,4.243099906583572,0.0,0.0,0.0,4.535792520445671,0.0,0.0,0.0,0.0,0.0,0.0,0.0,0.0,0.0,0.0,0.0,0.0,0.0,0.0,
1.7286,4.686676072334852,4.686676072334852,4.2460392102774165,0.0,0.0,0.0,4.539797118315707,0.0,0.0,0.0,0.0,0.0,0.0,0.0,0.0,0.0,0.0,0.0,0.0,0.0,0.0,
1.7427,4.691300464228623,4.691300464228623,4.249031309833975,0.0,0.0,0.0,4.543877412763741,0.0,0.0,0.0,0.0,0.0,0.0,0.0,0.0,0.0,0.0,0.0,0.0,0.0,0.0,
1.7567,4.69594694895159,4.69594694895159,4.252033984076002,0.0,0.0,0.0,4.547975960659728,0.0,0.0,0.0,0.0,0.0,0.0,0.0,0.0,0.0,0.0,0.0,0.0,0.0,0.0,
1.7708,4.700682460554148,4.700682460554148,4.255090353882007,0.0,0.0,0.0,4.552151758330101,0.0,0.0,0.0,0.0,0.0,0.0,0.0,0.0,0.0,0.0,0.0,0.0,0.0,0.0,
1.7848,4.705440389678465,4.705440389678465,4.258157293398133,0.0,0.0,0.0,4.556346024251687,0.0,0.0,0.0,0.0,0.0,0.0,0.0,0.0,0.0,0.0,0.0,0.0,0.0,0.0,
1.7989,4.710289284017243,4.710289284017243,4.261278848718631,0.0,0.0,0.0,4.560619138917706,0.0,0.0,0.0,0.0,0.0,0.0,0.0,0.0,0.0,0.0,0.0,0.0,0.0,0.0,
1.8129,4.715160947796711,4.715160947796711,4.264410976562956,0.0,0.0,0.0,4.56491095738546,0.0,0.0,0.0,0.0,0.0,0.0,0.0,0.0,0.0,0.0,0.0,0.0,0.0,0.0,
1.827,4.720125576041217,4.720125576041217,4.267598661667662,0.0,0.0,0.0,4.569283271250032,0.0,0.0,0.0,0.0,0.0,0.0,0.0,0.0,0.0,0.0,0.0,0.0,0.0,0.0,
1.8411,4.725149191834184,4.725149191834184,4.270819894498096,0.0,0.0,0.0,4.573706092722155,0.0,0.0,0.0,0.0,0.0,0.0,0.0,0.0,0.0,0.0,0.0,0.0,0.0,0.0,
1.8551,4.730196159658648,4.730196159658648,4.27405171931948,0.0,0.0,0.0,4.578148012878926,0.0,0.0,0.0,0.0,0.0,0.0,0.0,0.0,0.0,0.0,0.0,0.0,0.0,0.0,
