energies(eV),real_xx,real_yy,real_zz,real_xy,real_yz,real_xz,real_ave,imag_xx,imag_yy,imag_zz,imag_xy,imag_yz,imag_xz,imag_ave,absorption_xx,absorption_yy,absorption_zz,absorption_xy,absorption_yz,absorption_xz,absorption_ave,band_gap
0.0,3.3545262356337116,3.3545262356337116,3.3545262356337116,0.0,0.0,0.0,3.3545262356337116,0.0,0.0,0.0,0.0,0.0,0.0,0.0,0.0,0.0,0.0,0.0,0.0,0.0,0.0,3.8517000000000006
0.0168,3.3545326055527194,3.3545326055527194,3.3545326055527194,0.0,0.0,0.0,3.3545326055527194,0.0,0.0,0.0,0.0,0.0,0.0,0.0,0.0,0.0,0.0,0.0,0.0,0.0,0.0,
0.0337,3.354551867562064,3.354551867562064,3.354551867562064,0.0,0.0,0.0,3.354551867562064,0.0,0.0,0.0,0.0,0.0,0.0,0.0,0.0,0.0,0.0,0.0,0.0,0.0,0.0,
0.0505,3.3545837947872412,3.3545837947872412,3.3545837947872412,0.0,0.0,0.0,3.354583794787241,0.0,0.0,0.0,0.0,0.0,0.0,0.0,0.0,0.0,0.0,0.0,0.0,0.0,0.0,
0.0674,3.3546287691265926,3.3546287691265926,3.3546287691265926,0.0,0.0,0.0,3.354628769126593,0.0,0.0,0.0,0.0,0.0,0.0,0.0,0.0,0.0,0.0,0.0,0.0,0.0,0.0,
0.0842,3.354686260857651,3.354686260857651,3.354686260857651,0.0,0.0,0.0,3.354686260857651,0.0,0.0,0.0,0.0,0.0,0.0,0.0,0.0,0.0,0.0,0.0,0.0,0.0,0.0,
0.1011,3.3547569576704213,3.3547569576704213,3.3547569576704213,0.0,0.0,0.0,3.3547569576704213,0.0,0.0,0.0,0.0,0.0,0.0,0.0,0.0,0.0,0.0,0.0,0.0,0.0,0.0,
0.1179,3.354840026876517,3.354840026876517,3.354840026876517,0.0,0.0,0.0,3.354840026876517,0.0,0.0,0.0,0.0,0.0,0.0,0.0,0.0,0.0,0.0,0.0,0.0,0.0,0.0,
0.1348,3.354936462114656,3.354936462114656,3.354936462114656,0.0,0.0,0.0,3.354936462114656,0.0,0.0,0.0,0.0,0.0,0.0,0.0,0.0,0.0,0.0,0.0,0.0,0.0,0.0,
0.1516,3.3550451275449826,3.3550451275449826,3.3550451275449826,0.0,0.0,0.0,3.3550451275449826,0.0,0.0,0.0,0.0,0.0,0.0,0.0,0.0,0.0,0.0,0.0,0.0,0.0,0.0,
0.1685,3.355167322982072,3.355167322982072,3.355167322982072,0.0,0.0,0.0,3.3551673229820715,0.0,0.0,0.0,0.0,0.0,0.0,0.0,0.0,0.0,0.0,0.0,0.0,0.0,0.0,
0.1853,3.3553016091813674,3.3553016091813674,3.3553016091813674,0.0,0.0,0.0,3.3553016091813674,0.0,0.0,0.0,0.0,0.0,0.0,0.0,0.0,0.0,0.0,0.0,0.0,0.0,0.0,
0.2022,3.355449592430558,3.355449592430558,3.355449592430558,0.0,0.0,0.0,3.355449592430558,0.0,0.0,0.0,0.0,0.0,0.0,0.0,0.0,0.0,0.0,0.0,0.0,0.0,0.0,
0.219,3.35560952975929,3.35560952975929,3.35560952975929,0.0,0.0,0.0,3.35560952975929,0.0,0.0,0.0,0.0,0.0,0.0,0.0,0.0,0.0,0.0,0.0,0.0,0.0,0.0,
0.2359,3.3557833342961088,3.3557833342961088,3.3557833342961088,0.0,0.0,0.0,3.3557833342961083,0.0,0.0,0.0,0.0,0.0,0.0,0.0,0.0,0.0,0.0,0.0,0.0,0.0,0.0,
0.2527,3.355968958955553,3.355968958955553,3.355968958955553,0.0,0.0,0.0,3.3559689589555526,0.0,0.0,0.0,0.0,0.0,0.0,0.0,0.0,0.0,0.0,0.0,0.0,0.0,0.0,
0.2695,3.356167404515364,3.356167404515364,3.356167404515364,0.0,0.0,0.0,3.356167404515364,0.0,0.0,0.0,0.0,0.0,0.0,0.0,0.0,0.0,0.0,0.0,0.0,0.0,0.0,
0.2864,3.3563799782077535,3.3563799782077535,3.3563799782077535,0.0,0.0,0.0,3.3563799782077535,0.0,0.0,0.0,0.0,0.0,0.0,0.0,0.0,0.0,0.0,0.0,0.0,0.0,0.0,
0.3032,3.3566041763474237,3.3566041763474237,3.3566041763474237,0.0,0.0,0.0,3.3566041763474233,0.0,0.0,0.0,0.0,0.0,0.0,0.0,0.0,0.0,0.0,0.0,0.0,0.0,0.0,
0.3201,3.3568426807817673,3.3568426807817673,3.3568426807817673,0.0,0.0,0.0,3.3568426807817673,0.0,0.0,0.0,0.0,0.0,0.0,0.0,0.0,0.0,0.0,0.0,0.0,0.0,0.0,
0.3369,3.357092682437685,3.357092682437685,3.357092682437685,0.0,0.0,0.0,3.357092682437685,0.0,0.0,0.0,0.0,0.0,0.0,0.0,0.0,0.0,0.0,0.0,0.0,0.0,0.0,
0.3538,3.3573571718493747,3.3573571718493747,3.3573571718493747,0.0,0.0,0.0,3.3573571718493747,0.0,0.0,0.0,0.0,0.0,0.0,0.0,0.0,0.0,0.0,0.0,0.0,0.0,0.0,
0.3706,3.3576330339252887,3.3576330339252887,3.3576330339252887,0.0,0.0,0.0,3.3576330339252887,0.0,0.0,0.0,0.0,0.0,0.0,0.0,0.0,0.0,0.0,0.0,0.0,0.0,0.0,
0.3875,3.35792356857588,3.35792356857588,3.35792356857588,0.0,0.0,0.0,3.3579235685758797,0.0,0.0,0.0,0.0,0.0,0.0,0.0,0.0,0.0,0.0,0.0,0.0,0.0,0.0,
0.4043,3.3582253539904983,3.3582253539904983,3.3582253539904983,0.0,0.0,0.0,3.3582253539904983,0.0,0.0,0.0,0.0,0.0,0.0,0.0,0.0,0.0,0.0,0.0,0.0,0.0,0.0,
0.4212,3.35854200021818,3.35854200021818,3.35854200021818,0.0,0.0,0.0,3.3585420002181805,0.0,0.0,0.0,0.0,0.0,0.0,0.0,0.0,0.0,0.0,0.0,0.0,0.0,0.0,
0.438,3.358869777957988,3.358869777957988,3.358869777957988,0.0,0.0,0.0,3.358869777957988,0.0,0.0,0.0,0.0,0.0,0.0,0.0,0.0,0.0,0.0,0.0,0.0,0.0,0.0,
0.4549,3.3592126082334435,3.3592126082334435,3.3592126082334435,0.0,0.0,0.0,3.3592126082334435,0.0,0.0,0.0,0.0,0.0,0.0,0.0,0.0,0.0,0.0,0.0,0.0,0.0,0.0,
0.4717,3.359566453410831,3.359566453410831,3.359566453410831,0.0,0.0,0.0,3.359566453410831,0.0,0.0,0.0,0.0,0.0,0.0,0.0,0.0,0.0,0.0,0.0,0.0,0.0,0.0,
0.4886,3.3599355463983556,3.3599355463983556,3.3599355463983556,0.0,0.0,0.0,3.3599355463983556,0.0,0.0,0.0,0.0,0.0,0.0,0.0,0.0,0.0,0.0,0.0,0.0,0.0,0.0,
0.5054,3.3603155403152214,3.3603155403152214,3.3603155403152214,0.0,0.0,0.0,3.3603155403152214,0.0,0.0,0.0,0.0,0.0,0.0,0.0,0.0,0.0,0.0,0.0,0.0,0.0,0.0,
0.5222,3.3607086021172368,3.3607086021172368,3.3607086021172368,0.0,0.0,0.0,3.3607086021172368,0.0,0.0,0.0,0.0,0.0,0.0,0.0,0.0,0.0,0.0,0.0,0.0,0.0,0.0,
0.5391,3.3611172111564764,3.3611172111564764,3.3611172111564764,0.0,0.0,0.0,3.361117211156477,0.0,0.0,0.0,0.0,0.0,0.0,0.0,0.0,0.0,0.0,0.0,0.0,0.0,0.0,
0.5559,3.3615365552697054,3.3615365552697054,3.3615365552697054,0.0,0.0,0.0,3.3615365552697054,0.0,0.0,0.0,0.0,0.0,0.0,0.0,0.0,0.0,0.0,0.0,0.0,0.0,0.0,
0.5728,3.36197165108638,3.36197165108638,3.36197165108638,0.0,0.0,0.0,3.36197165108638,0.0,0.0,0.0,0.0,0.0,0.0,0.0,0.0,0.0,0.0,0.0,0.0,0.0,0.0,
0.5896,3.3624173745921375,3.3624173745921375,3.3624173745921375,0.0,0.0,0.0,3.3624173745921375,0.0,0.0,0.0,0.0,0.0,0.0,0.0,0.0,0.0,0.0,0.0,0.0,0.0,0.0,
0.6065,3.3628790580821524,3.3628790580821524,3.3628790580821524,0.0,0.0,0.0,3.3628790580821524,0.0,0.0,0.0,0.0,0.0,0.0,0.0,0.0,0.0,0.0,0.0,0.0,0.0,0.0,
0.6233,3.3633512645186157,3.3633512645186157,3.3633512645186157,0.0,0.0,0.0,3.363351264518615,0.0,0.0,0.0,0.0,0.0,0.0,0.0,0.0,0.0,0.0,0.0,0.0,0.0,0.0,
0.6402,3.3638396431176405,3.3638396431176405,3.3638396431176405,0.0,0.0,0.0,3.363839643117641,0.0,0.0,0.0,0.0,0.0,0.0,0.0,0.0,0.0,0.0,0.0,0.0,0.0,0.0,
0.657,3.3643384425697143,3.3643384425697143,3.3643384425697143,0.0,0.0,0.0,3.3643384425697143,0.0,0.0,0.0,0.0,0.0,0.0,0.0,0.0,0.0,0.0,0.0,0.0,0.0,0.0,
0.6739,3.3648536303466763,3.3648536303466763,3.3648536303466763,0.0,0.0,0.0,3.3648536303466763,0.0,0.0,0.0,0.0,0.0,0.0,0.0,0.0,0.0,0.0,0.0,0.0,0.0,0.0,
0.6907,3.365379139542227,3.365379139542227,3.365379139542227,0.0,0.0,0.0,3.365379139542227,0.0,0.0,0.0,0.0,0.0,0.0,0.0,0.0,0.0,0.0,0.0,0.0,0.0,0.0,
0.7076,3.3659212572993464,3.3659212572993464,3.3659212572993464,0.0,0.0,0.0,3.3659212572993464,0.0,0.0,0.0,0.0,0.0,0.0,0.0,0.0,0.0,0.0,0.0,0.0,0.0,0.0,
0.7244,3.3664735997119024,3.3664735997119024,3.3664735997119024,0.0,0.0,0.0,3.3664735997119024,0.0,0.0,0.0,0.0,0.0,0.0,0.0,0.0,0.0,0.0,0.0,0.0,0.0,0.0,
0.7413,3.3670427750914778,3.3670427750914778,3.3670427750914778,0.0,0.0,0.0,3.367042775091478,0.0,0.0,0.0,0.0,0.0,0.0,0.0,0.0,0.0,0.0,0.0,0.0,0.0,0.0,
0.7581,3.3676220810496793,3.3676220810496793,3.3676220810496793,0.0,0.0,0.0,3.3676220810496793,0.0,0.0,0.0,0.0,0.0,0.0,0.0,0.0,0.0,0.0,0.0,0.0,0.0,0.0,
0.7749,3.3682148796194613,3.3682148796194613,3.3682148796194613,0.0,0.0,0.0,3.3682148796194613,0.0,0.0,0.0,0.0,0.0,0.0,0.0,0.0,0.0,0.0,0.0,0.0,0.0,0.0,
0.7918,3.368824855451706,3.368824855451706,3.368824855451706,0.0,0.0,0.0,3.368824855451706,0.0,0.0,0.0,0.0,0.0,0.0,0.0,0.0,0.0,0.0,0.0,0.0,0.0,0.0,
0.8086,3.3694448259559744,3.3694448259559744,3.3694448259559744,0.0,0.0,0.0,3.369444825955975,0.0,0.0,0.0,0.0,0.0,0.0,0.0,0.0,0.0,0.0,0.0,0.0,0.0,0.0,
0.8255,3.370082208983674,3.370082208983674,3.370082208983674,0.0,0.0,0.0,3.3700822089836735,0.0,0.0,0.0,0.0,0.0,0.0,0.0,0.0,0.0,0.0,0.0,0.0,0.0,0.0,
0.8423,3.370729499403515,3.370729499403515,3.370729499403515,0.0,0.0,0.0,3.370729499403515,0.0,0.0,0.0,0.0,0.0,0.0,0.0,0.0,0.0,0.0,0.0,0.0,0.0,0.0,
0.8592,3.3713944421402102,3.3713944421402102,3.3713944421402102,0.0,0.0,0.0,3.37139444214021,0.0,0.0,0.0,0.0,0.0,0.0,0.0,0.0,0.0,0.0,0.0,0.0,0.0,0.0,
0.876,3.3720692077514074,3.3720692077514074,3.3720692077514074,0.0,0.0,0.0,3.3720692077514074,0.0,0.0,0.0,0.0,0.0,0.0,0.0,0.0,0.0,0.0,0.0,0.0,0.0,0.0,
0.8929,3.3727618701196524,3.3727618701196524,3.3727618701196524,0.0,0.0,0.0,3.372761870119652,0.0,0.0,0.0,0.0,0.0,0.0,0.0,0.0,0.0,0.0,0.0,0.0,0.0,0.0,
0.9097,3.3734642736356713,3.3734642736356713,3.3734642736356713,0.0,0.0,0.0,3.3734642736356713,0.0,0.0,0.0,0.0,0.0,0.0,0.0,0.0,0.0,0.0,0.0,0.0,0.0,0.0,
0.9266,3.374184823114977,3.374184823114977,3.374184823114977,0.0,0.0,0.0,3.374184823114977,0.0,0.0,0.0,0.0,0.0,0.0,0.0,0.0,0.0,0.0,0.0,0.0,0.0,0.0,
0.9434,3.3749150348381756,3.3749150348381756,3.3749150348381756,0.0,0.0,0.0,3.374915034838176,0.0,0.0,0.0,0.0,0.0,0.0,0.0,0.0,0.0,0.0,0.0,0.0,0.0,0.0,
0.9603,3.3756636466213794,3.3756636466213794,3.3756636466213794,0.0,0.0,0.0,3.3756636466213794,0.0,0.0,0.0,0.0,0.0,0.0,0.0,0.0,0.0,0.0,0.0,0.0,0.0,0.0,
0.9771,3.376421844602901,3.376421844602901,3.376421844602901,0.0,0.0,0.0,3.3764218446029006,0.0,0.0,0.0,0.0,0.0,0.0,0.0,0.0,0.0,0.0,0.0,0.0,0.0,0.0,
0.994,3.3771987017615652,3.3771987017615652,3.3771987017615652,0.0,0.0,0.0,3.3771987017615657,0.0,0.0,0.0,0.0,0.0,0.0,0.0,0.0,0.0,0.0,0.0,0.0,0.0,0.0,
1.0108,3.377985071970148,3.377985071970148,3.377985071970148,0.0,0.0,0.0,3.377985071970148,0.0,0.0,0.0,0.0,0.0,0.0,0.0,0.0,0.0,0.0,0.0,0.0,0.0,0.0,
1.0276,3.378785558467522,3.378785558467522,3.378785558467522,0.0,0.0,0.0,3.378785558467522,0.0,0.0,0.0,0.0,0.0,0.0,0.0,0.0,0.0,0.0,0.0,0.0,0.0,0.0,
1.0445,3.379605102129274,3.379605102129274,3.379605102129274,0.0,0.0,0.0,3.379605102129274,0.0,0.0,0.0,0.0,0.0,0.0,0.0,0.0,0.0,0.0,0.0,0.0,0.0,0.0,
1.0613,3.380434054744744,3.380434054744744,3.380434054744744,0.0,0.0,0.0,3.3804340547447445,0.0,0.0,0.0,0.0,0.0,0.0,0.0,0.0,0.0,0.0,0.0,0.0,0.0,0.0,
1.0782,3.3812823367909086,3.3812823367909086,3.3812823367909086,0.0,0.0,0.0,3.3812823367909086,0.0,0.0,0.0,0.0,0.0,0.0,0.0,0.0,0.0,0.0,0.0,0.0,0.0,0.0,
1.095,3.382139962076114,3.382139962076114,3.382139962076114,0.0,0.0,0.0,3.382139962076114,0.0,0.0,0.0,0.0,0.0,0.0,0.0,0.0,0.0,0.0,0.0,0.0,0.0,0.0,
1.1119,3.3830171945796854,3.3830171945796854,3.3830171945796854,0.0,0.0,0.0,3.383017194579685,0.0,0.0,0.0,0.0,0.0,0.0,0.0,0.0,0.0,0.0,0.0,0.0,0.0,0.0,
1.1287,3.3839037076714047,3.3839037076714047,3.3839037076714047,0.0,0.0,0.0,3.3839037076714047,0.0,0.0,0.0,0.0,0.0,0.0,0.0,0.0,0.0,0.0,0.0,0.0,0.0,0.0,
1.1456,3.3848101114481075,3.3848101114481075,3.3848101114481075,0.0,0.0,0.0,3.3848101114481075,0.0,0.0,0.0,0.0,0.0,0.0,0.0,0.0,0.0,0.0,0.0,0.0,0.0,0.0,
1.1624,3.38572573628292,3.38572573628292,3.38572573628292,0.0,0.0,0.0,3.38572573628292,0.0,0.0,0.0,0.0,0.0,0.0,0.0,0.0,0.0,0.0,0.0,0.0,0.0,0.0,
1.1793,3.386661541113036,3.386661541113036,3.386661541113036,0.0,0.0,0.0,3.386661541113036,0.0,0.0,0.0,0.0,0.0,0.0,0.0,0.0,0.0,0.0,0.0,0.0,0.0,0.0,
1.1961,3.3876065106535687,3.3876065106535687,3.3876065106535687,0.0,0.0,0.0,3.3876065106535687,0.0,0.0,0.0,0.0,0.0,0.0,0.0,0.0,0.0,0.0,0.0,0.0,0.0,0.0,
1.213,3.3885719555154354,3.3885719555154354,3.3885719555154354,0.0,0.0,0.0,3.388571955515436,0.0,0.0,0.0,0.0,0.0,0.0,0.0,0.0,0.0,0.0,0.0,0.0,0.0,0.0,
1.2298,3.3895465119887636,3.3895465119887636,3.3895465119887636,0.0,0.0,0.0,3.3895465119887636,0.0,0.0,0.0,0.0,0.0,0.0,0.0,0.0,0.0,0.0,0.0,0.0,0.0,0.0,
1.2466,3.390535911456933,3.390535911456933,3.390535911456933,0.0,0.0,0.0,3.390535911456933,0.0,0.0,0.0,0.0,0.0,0.0,0.0,0.0,0.0,0.0,0.0,0.0,0.0,0.0,
1.2635,3.3915462404538115,3.3915462404538115,3.3915462404538115,0.0,0.0,0.0,3.3915462404538115,0.0,0.0,0.0,0.0,0.0,0.0,0.0,0.0,0.0,0.0,0.0,0.0,0.0,0.0,
1.2803,3.3925656077312487,3.3925656077312487,3.3925656077312487,0.0,0.0,0.0,3.3925656077312483,0.0,0.0,0.0,0.0,0.0,0.0,0.0,0.0,0.0,0.0,0.0,0.0,0.0,0.0,
1.2972,3.393606215697789,3.393606215697789,3.393606215697789,0.0,0.0,0.0,3.393606215697789,0.0,0.0,0.0,0.0,0.0,0.0,0.0,0.0,0.0,0.0,0.0,0.0,0.0,0.0,
1.314,3.3946558172861736,3.3946558172861736,3.3946558172861736,0.0,0.0,0.0,3.3946558172861736,0.0,0.0,0.0,0.0,0.0,0.0,0.0,0.0,0.0,0.0,0.0,0.0,0.0,0.0,
1.3309,3.3957269774055567,3.3957269774055567,3.3957269774055567,0.0,0.0,0.0,3.3957269774055567,0.0,0.0,0.0,0.0,0.0,0.0,0.0,0.0,0.0,0.0,0.0,0.0,0.0,0.0,
1.3477,3.3968070900100105,3.3968070900100105,3.3968070900100105,0.0,0.0,0.0,3.3968070900100105,0.0,0.0,0.0,0.0,0.0,0.0,0.0,0.0,0.0,0.0,0.0,0.0,0.0,0.0,
1.3646,3.397909085879255,3.397909085879255,3.397909085879255,0.0,0.0,0.0,3.3979090858792547,0.0,0.0,0.0,0.0,0.0,0.0,0.0,0.0,0.0,0.0,0.0,0.0,0.0,0.0,
1.3814,3.399019996709782,3.399019996709782,3.399019996709782,0.0,0.0,0.0,3.399019996709782,0.0,0.0,0.0,0.0,0.0,0.0,0.0,0.0,0.0,0.0,0.0,0.0,0.0,0.0,
1.3983,3.400153122651023,3.400153122651023,3.400153122651023,0.0,0.0,0.0,3.400153122651023,0.0,0.0,0.0,0.0,0.0,0.0,0.0,0.0,0.0,0.0,0.0,0.0,0.0,0.0,
1.4151,3.4012951297401357,3.4012951297401357,3.4012951297401357,0.0,0.0,0.0,3.4012951297401357,0.0,0.0,0.0,0.0,0.0,0.0,0.0,0.0,0.0,0.0,0.0,0.0,0.0,0.0,
1.432,3.402459691128524,3.402459691128524,3.402459691128524,0.0,0.0,0.0,3.402459691128524,0.0,0.0,0.0,0.0,0.0,0.0,0.0,0.0,0.0,0.0,0.0,0.0,0.0,0.0,
1.4488,3.4036331036659893,3.4036331036659893,3.4036331036659893,0.0,0.0,0.0,3.4036331036659893,0.0,0.0,0.0,0.0,0.0,0.0,0.0,0.0,0.0,0.0,0.0,0.0,0.0,0.0,
1.4657,3.4048294172755105,3.4048294172755105,3.4048294172755105,0.0,0.0,0.0,3.40482941727551,0.0,0.0,0.0,0.0,0.0,0.0,0.0,0.0,0.0,0.0,0.0,0.0,0.0,0.0,
1.4825,3.4060345559611247,3.4060345559611247,3.4060345559611247,0.0,0.0,0.0,3.4060345559611247,0.0,0.0,0.0,0.0,0.0,0.0,0.0,0.0,0.0,0.0,0.0,0.0,0.0,0.0,
1.4993,3.4072556341175586,3.4072556341175586,3.4072556341175586,0.0,0.0,0.0,3.407255634117559,0.0,0.0,0.0,0.0,0.0,0.0,0.0,0.0,0.0,0.0,0.0,0.0,0.0,0.0,
1.5162,3.4085001477444816,3.4085001477444816,3.4085001477444816,0.0,0.0,0.0,3.4085001477444816,0.0,0.0,0.0,0.0,0.0,0.0,0.0,0.0,0.0,0.0,0.0,0.0,0.0,0.0,
1.533,3.409753454987676,3.409753454987676,3.409753454987676,0.0,0.0,0.0,3.409753454987676,0.0,0.0,0.0,0.0,0.0,0.0,0.0,0.0,0.0,0.0,0.0,0.0,0.0,0.0,
1.5499,3.411030564556671,3.411030564556671,3.411030564556671,0.0,0.0,0.0,3.4110305645566705,0.0,0.0,0.0,0.0,0.0,0.0,0.0,0.0,0.0,0.0,0.0,0.0,0.0,0.0,
1.5667,3.4123164520147893,3.4123164520147893,3.4123164520147893,0.0,0.0,0.0,3.4123164520147893,0.0,0.0,0.0,0.0,0.0,0.0,0.0,0.0,0.0,0.0,0.0,0.0,0.0,0.0,
1.5836,3.4136265171790114,3.4136265171790114,3.4136265171790114,0.0,0.0,0.0,3.4136265171790114,0.0,0.0,0.0,0.0,0.0,0.0,0.0,0.0,0.0,0.0,0.0,0.0,0.0,0.0,
1.6004,3.4149453488829913,3.4149453488829913,3.4149453488829913,0.0,0.0,0.0,3.4149453488829913,0.0,0.0,0.0,0.0,0.0,0.0,0.0,0.0,0.0,0.0,0.0,0.0,0.0,0.0,
1.6173,3.4162887424977137,3.4162887424977137,3.4162887424977137,0.0,0.0,0.0,3.416288742497714,0.0,0.0,0.0,0.0,0.0,0.0,0.0,0.0,0.0,0.0,0.0,0.0,0.0,0.0,
1.6341,3.417640895829776,3.417640895829776,3.417640895829776,0.0,0.0,0.0,3.4176408958297757,0.0,0.0,0.0,0.0,0.0,0.0,0.0,0.0,0.0,0.0,0.0,0.0,0.0,0.0,
1.651,3.419018004416011,3.419018004416011,3.419018004416011,0.0,0.0,0.0,3.4190180044160114,0.0,0.0,0.0,0.0,0.0,0.0,0.0,0.0,0.0,0.0,0.0,0.0,0.0,0.0,
1.6678,3.420403870583222,3.420403870583222,3.420403870583222,0.0,0.0,0.0,3.420403870583222,0.0,0.0,0.0,0.0,0.0,0.0,0.0,0.0,0.0,0.0,0.0,0.0,0.0,0.0,
1.6847,3.42181509481725,3.42181509481725,3.42181509481725,0.0,0.0,0.0,3.42181509481725,0.0,0.0,0.0,0.0,0.0,0.0,0.0,0.0,0.0,0.0,0.0,0.0,0.0,0.0,
1.7015,3.4232350793517488,3.4232350793517488,3.4232350793517488,0.0,0.0,0.0,3.4232350793517488,0.0,0.0,0.0,0.0,0.0,0.0,0.0,0.0,0.0,0.0,0.0,0.0,0.0,0.0,
1.7184,3.42468083458231,3.42468083458231,3.42468083458231,0.0,0.0,0.0,3.42468083458231,0.0,0.0,0.0,0.0,0.0,0.0,0.0,0.0,0.0,0.0,0.0,0.0,0.0,0.0,
1.7352,3.426135357869801,3.426135357869801,3.426135357869801,0.0,0.0,0.0,3.4261353578698013,0.0,0.0,0.0,0.0,0.0,0.0,0.0,0.0,0.0,0.0,0.0,0.0,0.0,0.0,
1.752,3.4276072610825636,3.4276072610825636,3.4276072610825636,0.0,0.0,0.0,3.4276072610825636,0.0,0.0,0.0,0.0,0.0,0.0,0.0,0.0,0.0,0.0,0.0,0.0,0.0,0.0,
1.7689,3.4291055725033672,3.4291055725033672,3.4291055725033672,0.0,0.0,0.0,3.4291055725033672,0.0,0.0,0.0,0.0,0.0,0.0,0.0,0.0,0.0,0.0,0.0,0.0,0.0,0.0,
1.7857,3.430612673458953,3.430612673458953,3.430612673458953,0.0,0.0,0.0,3.430612673458953,0.0,0.0,0.0,0.0,0.0,0.0,0.0,0.0,0.0,0.0,0.0,0.0,0.0,0.0,
1.8026,3.4321466214189353,3.4321466214189353,3.4321466214189353,0.0,0.0,0.0,3.4321466214189353,0.0,0.0,0.0,0.0,0.0,0.0,0.0,0.0,0.0,0.0,0.0,0.0,0.0,0.0,
1.8194,3.4336893801281314,3.4336893801281314,3.4336893801281314,0.0,0.0,0.0,3.4336893801281314,0.0,0.0,0.0,0.0,0.0,0.0,0.0,0.0,0.0,0.0,0.0,0.0,0.0,0.0,
1.8363,3.435259435820629,3.435259435820629,3.435259435820629,0.0,0.0,0.0,3.435259435820629,0.0,0.0,0.0,0.0,0.0,0.0,0.0,0.0,0.0,0.0,0.0,0.0,0.0,0.0,
1.8531,3.436838329248433,3.436838329248433,3.436838329248433,0.0,0.0,0.0,3.436838329248433,0.0,0.0,0.0,0.0,0.0,0.0,0.0,0.0,0.0,0.0,0.0,0.0,0.0,0.0,
1.87,3.438444981259809,3.438444981259809,3.438444981259809,0.0,0.0,0.0,3.4384449812598086,0.0,0.0,0.0,0.0,0.0,0.0,0.0,0.0,0.0,0.0,0.0,0.0,0.0,0.0,
1.8868,3.44006050400707,3.44006050400707,3.44006050400707,0.0,0.0,0.0,3.44006050400707,0.0,0.0,0.0,0.0,0.0,0.0,0.0,0.0,0.0,0.0,0.0,0.0,0.0,0.0,
1.9037,3.4417042590225355,3.4417042590225355,3.4417042590225355,0.0,0.0,0.0,3.441704259022535,0.0,0.0,0.0,0.0,0.0,0.0,0.0,0.0,0.0,0.0,0.0,0.0,0.0,0.0,
1.9205,3.4433569240482567,3.4433569240482567,3.4433569240482567,0.0,0.0,0.0,3.4433569240482567,0.0,0.0,0.0,0.0,0.0,0.0,0.0,0.0,0.0,0.0,0.0,0.0,0.0,0.0,
1.9374,3.4450383076001163,3.4450383076001163,3.4450383076001163,0.0,0.0,0.0,3.4450383076001163,0.0,0.0,0.0,0.0,0.0,0.0,0.0,0.0,0.0,0.0,0.0,0.0,0.0,0.0,
1.9542,3.446728646987593,3.446728646987593,3.446728646987593,0.0,0.0,0.0,3.446728646987593,0.0,0.0,0.0,0.0,0.0,0.0,0.0,0.0,0.0,0.0,0.0,0.0,0.0,0.0,
1.9711,3.4484482042489994,3.4484482042489994,3.4484482042489994,0.0,0.0,0.0,3.4484482042489994,0.0,0.0,0.0,0.0,0.0,0.0,0.0,0.0,0.0,0.0,0.0,0.0,0.0,0.0,
1.9879,3.4501767700187185,3.4501767700187185,3.4501767700187185,0.0,0.0,0.0,3.4501767700187185,0.0,0.0,0.0,0.0,0.0,0.0,0.0,0.0,0.0,0.0,0.0,0.0,0.0,0.0,
2.0047,3.4519246048885868,3.4519246048885868,3.4519246048885868,0.0,0.0,0.0,3.4519246048885868,0.0,0.0,0.0,0.0,0.0,0.0,0.0,0.0,0.0,0.0,0.0,0.0,0.0,0.0,
2.0216,3.4537024316192864,3.4537024316192864,3.4537024316192864,0.0,0.0,0.0,3.4537024316192864,0.0,0.0,0.0,0.0,0.0,0.0,0.0,0.0,0.0,0.0,0.0,0.0,0.0,0.0,
2.0384,3.4554893593054556,3.4554893593054556,3.4554893593054556,0.0,0.0,0.0,3.455489359305455,0.0,0.0,0.0,0.0,0.0,0.0,0.0,0.0,0.0,0.0,0.0,0.0,0.0,0.0,
2.0553,3.457306813363557,3.457306813363557,3.457306813363557,0.0,0.0,0.0,3.457306813363557,0.0,0.0,0.0,0.0,0.0,0.0,0.0,0.0,0.0,0.0,0.0,0.0,0.0,0.0,
2.0721,3.4591334395922493,3.4591334395922493,3.4591334395922493,0.0,0.0,0.0,3.459133439592249,0.0,0.0,0.0,0.0,0.0,0.0,0.0,0.0,0.0,0.0,0.0,0.0,0.0,0.0,
2.089,3.4609911418497394,3.4609911418497394,3.4609911418497394,0.0,0.0,0.0,3.4609911418497394,0.0,0.0,0.0,0.0,0.0,0.0,0.0,0.0,0.0,0.0,0.0,0.0,0.0,0.0,
2.1058,3.4628580955502994,3.4628580955502994,3.4628580955502994,0.0,0.0,0.0,3.4628580955502994,0.0,0.0,0.0,0.0,0.0,0.0,0.0,0.0,0.0,0.0,0.0,0.0,0.0,0.0,
2.1227,3.4647566907508693,3.4647566907508693,3.4647566907508693,0.0,0.0,0.0,3.4647566907508693,0.0,0.0,0.0,0.0,0.0,0.0,0.0,0.0,0.0,0.0,0.0,0.0,0.0,0.0,
2.1395,3.4666646251274282,3.4666646251274282,3.4666646251274282,0.0,0.0,0.0,3.4666646251274282,0.0,0.0,0.0,0.0,0.0,0.0,0.0,0.0,0.0,0.0,0.0,0.0,0.0,0.0,
2.1564,3.4686047829992055,3.4686047829992055,3.4686047829992055,0.0,0.0,0.0,3.4686047829992055,0.0,0.0,0.0,0.0,0.0,0.0,0.0,0.0,0.0,0.0,0.0,0.0,0.0,0.0,
2.1732,3.4705543766725575,3.4705543766725575,3.4705543766725575,0.0,0.0,0.0,3.4705543766725575,0.0,0.0,0.0,0.0,0.0,0.0,0.0,0.0,0.0,0.0,0.0,0.0,0.0,0.0,
2.1901,3.4725367931143545,3.4725367931143545,3.4725367931143545,0.0,0.0,0.0,3.4725367931143545,0.0,0.0,0.0,0.0,0.0,0.0,0.0,0.0,0.0,0.0,0.0,0.0,0.0,0.0,
