energies(eV),real_xx,real_yy,real_zz,real_xy,real_yz,real_xz,real_ave,imag_xx,imag_yy,imag_zz,imag_xy,imag_yz,imag_xz,imag_ave,absorption_xx,absorption_yy,absorption_zz,absorption_xy,absorption_yz,absorption_xz,absorption_ave,band_gap
0.0,2.931932951547934,2.931932951547934,2.7373850746375332,0.0,0.0,0.0,2.8670836592444666,0.0,0.0,0.0,0.0,0.0,0.0,0.0,0.0,0.0,0.0,0.0,0.0,0.0,0.0,6.516
0.0146,2.93193656187562,2.93193656187562,2.7373879751667243,0.0,0.0,0.0,2.867087032972655,0.0,0.0,0.0,0.0,0.0,0.0,0.0,0.0,0.0,0.0,0.0,0.0,0.0,0.0,
0.0292,2.9319473929608675,2.9319473929608675,2.737396676829679,0.0,0.0,0.0,2.8670971542504713,0.0,0.0,0.0,0.0,0.0,0.0,0.0,0.0,0.0,0.0,0.0,0.0,0.0,0.0,
0.0438,2.9319654451102997,2.9319654451102997,2.737411179852562,0.0,0.0,0.0,2.8671140233577206,0.0,0.0,0.0,0.0,0.0,0.0,0.0,0.0,0.0,0.0,0.0,0.0,0.0,0.0,
0.0583,2.9319905211637325,2.9319905211637325,2.737431325804659,0.0,0.0,0.0,2.8671374560440412,0.0,0.0,0.0,0.0,0.0,0.0,0.0,0.0,0.0,0.0,0.0,0.0,0.0,0.0,
0.0729,2.932022967708504,2.932022967708504,2.737457393085432,0.0,0.0,0.0,2.8671677761674794,0.0,0.0,0.0,0.0,0.0,0.0,0.0,0.0,0.0,0.0,0.0,0.0,0.0,0.0,
0.0875,2.9320626374570873,2.9320626374570873,2.7374892633043584,0.0,0.0,0.0,2.8672048460728443,0.0,0.0,0.0,0.0,0.0,0.0,0.0,0.0,0.0,0.0,0.0,0.0,0.0,0.0,
0.1021,2.9321095315327614,2.9321095315327614,2.7375269372899704,0.0,0.0,0.0,2.8672486667851644,0.0,0.0,0.0,0.0,0.0,0.0,0.0,0.0,0.0,0.0,0.0,0.0,0.0,0.0,
0.1167,2.932163651263469,2.932163651263469,2.7375704160217724,0.0,0.0,0.0,2.8672992395162367,0.0,0.0,0.0,0.0,0.0,0.0,0.0,0.0,0.0,0.0,0.0,0.0,0.0,0.0,
0.1313,2.932224998182007,2.932224998182007,2.73761970063033,0.0,0.0,0.0,2.8673565656647817,0.0,0.0,0.0,0.0,0.0,0.0,0.0,0.0,0.0,0.0,0.0,0.0,0.0,0.0,
0.1459,2.9322935740260574,2.9322935740260574,2.7376747923973235,0.0,0.0,0.0,2.867420646816479,0.0,0.0,0.0,0.0,0.0,0.0,0.0,0.0,0.0,0.0,0.0,0.0,0.0,0.0,
0.1604,2.9323688369159733,2.9323688369159733,2.7377352558702794,0.0,0.0,0.0,2.867490976567409,0.0,0.0,0.0,0.0,0.0,0.0,0.0,0.0,0.0,0.0,0.0,0.0,0.0,0.0,
0.175,2.932451827095628,2.932451827095628,2.7378019266028497,0.0,0.0,0.0,2.867568526931368,0.0,0.0,0.0,0.0,0.0,0.0,0.0,0.0,0.0,0.0,0.0,0.0,0.0,0.0,
0.1896,2.932542052628171,2.932542052628171,2.737874409234398,0.0,0.0,0.0,2.8676528381635804,0.0,0.0,0.0,0.0,0.0,0.0,0.0,0.0,0.0,0.0,0.0,0.0,0.0,0.0,
0.2042,2.9326395160711556,2.9326395160711556,2.73795270565124,0.0,0.0,0.0,2.8677439125978506,0.0,0.0,0.0,0.0,0.0,0.0,0.0,0.0,0.0,0.0,0.0,0.0,0.0,0.0,
0.2188,2.9327442201879874,2.9327442201879874,2.7380368178913757,0.0,0.0,0.0,2.8678417527557833,0.0,0.0,0.0,0.0,0.0,0.0,0.0,0.0,0.0,0.0,0.0,0.0,0.0,0.0,
0.2334,2.9328561679480565,2.9328561679480565,2.738126748144767,0.0,0.0,0.0,2.86794636134696,0.0,0.0,0.0,0.0,0.0,0.0,0.0,0.0,0.0,0.0,0.0,0.0,0.0,0.0,
0.248,2.93297536252702,2.93297536252702,2.7382224987533768,0.0,0.0,0.0,2.868057741269139,0.0,0.0,0.0,0.0,0.0,0.0,0.0,0.0,0.0,0.0,0.0,0.0,0.0,0.0,
0.2625,2.9331009165795447,2.9331009165795447,2.7383233566922573,0.0,0.0,0.0,2.8681750632837826,0.0,0.0,0.0,0.0,0.0,0.0,0.0,0.0,0.0,0.0,0.0,0.0,0.0,0.0,
0.2771,2.933234565453465,2.933234565453465,2.7384307157364156,0.0,0.0,0.0,2.868299948881115,0.0,0.0,0.0,0.0,0.0,0.0,0.0,0.0,0.0,0.0,0.0,0.0,0.0,0.0,
0.2917,2.9333754718867873,2.9333754718867873,2.7385439030562706,0.0,0.0,0.0,2.8684316156099485,0.0,0.0,0.0,0.0,0.0,0.0,0.0,0.0,0.0,0.0,0.0,0.0,0.0,0.0,
0.3063,2.9335236398815203,2.9335236398815203,2.738662921602886,0.0,0.0,0.0,2.8685700671219756,0.0,0.0,0.0,0.0,0.0,0.0,0.0,0.0,0.0,0.0,0.0,0.0,0.0,0.0,
0.3209,2.933679073647424,2.933679073647424,2.7387877744804046,0.0,0.0,0.0,2.8687153072584173,0.0,0.0,0.0,0.0,0.0,0.0,0.0,0.0,0.0,0.0,0.0,0.0,0.0,0.0,
0.3355,2.9338417776022427,2.9338417776022427,2.7389184649462814,0.0,0.0,0.0,2.868867340050256,0.0,0.0,0.0,0.0,0.0,0.0,0.0,0.0,0.0,0.0,0.0,0.0,0.0,0.0,
0.3501,2.9340117563722314,2.9340117563722314,2.739054996411496,0.0,0.0,0.0,2.8690261697186528,0.0,0.0,0.0,0.0,0.0,0.0,0.0,0.0,0.0,0.0,0.0,0.0,0.0,0.0,
0.3646,2.9341877759227617,2.9341877759227617,2.7391963773757215,0.0,0.0,0.0,2.869190643073748,0.0,0.0,0.0,0.0,0.0,0.0,0.0,0.0,0.0,0.0,0.0,0.0,0.0,0.0,
0.3792,2.934372269124415,2.934372269124415,2.7393445616183874,0.0,0.0,0.0,2.8693630332890727,0.0,0.0,0.0,0.0,0.0,0.0,0.0,0.0,0.0,0.0,0.0,0.0,0.0,0.0,
0.3938,2.934564052237435,2.934564052237435,2.7394985979903,0.0,0.0,0.0,2.8695422341550567,0.0,0.0,0.0,0.0,0.0,0.0,0.0,0.0,0.0,0.0,0.0,0.0,0.0,0.0,
0.4084,2.934763130724212,2.934763130724212,2.739658490518293,0.0,0.0,0.0,2.8697282506555726,0.0,0.0,0.0,0.0,0.0,0.0,0.0,0.0,0.0,0.0,0.0,0.0,0.0,0.0,
0.423,2.934969510257539,2.934969510257539,2.739824243384223,0.0,0.0,0.0,2.869921087966434,0.0,0.0,0.0,0.0,0.0,0.0,0.0,0.0,0.0,0.0,0.0,0.0,0.0,0.0,
0.4376,2.935183196721157,2.935183196721157,2.7399958609251946,0.0,0.0,0.0,2.8701207514558362,0.0,0.0,0.0,0.0,0.0,0.0,0.0,0.0,0.0,0.0,0.0,0.0,0.0,0.0,
0.4522,2.9354041962101975,2.9354041962101975,2.7401733476339576,0.0,0.0,0.0,2.8703272466847842,0.0,0.0,0.0,0.0,0.0,0.0,0.0,0.0,0.0,0.0,0.0,0.0,0.0,0.0,
0.4667,2.935630926295067,2.935630926295067,2.7403554322764014,0.0,0.0,0.0,2.8705390949555123,0.0,0.0,0.0,0.0,0.0,0.0,0.0,0.0,0.0,0.0,0.0,0.0,0.0,0.0,
0.4813,2.9358665207688297,2.9358665207688297,2.740544631141958,0.0,0.0,0.0,2.870759224226539,0.0,0.0,0.0,0.0,0.0,0.0,0.0,0.0,0.0,0.0,0.0,0.0,0.0,0.0,
0.4959,2.9361094477801393,2.9361094477801393,2.7407397135562555,0.0,0.0,0.0,2.8709862030388447,0.0,0.0,0.0,0.0,0.0,0.0,0.0,0.0,0.0,0.0,0.0,0.0,0.0,0.0,
0.5105,2.9363597142734355,2.9363597142734355,2.740940684637013,0.0,0.0,0.0,2.871220037727961,0.0,0.0,0.0,0.0,0.0,0.0,0.0,0.0,0.0,0.0,0.0,0.0,0.0,0.0,
0.5251,2.936617327407266,2.936617327407266,2.7411475496594164,0.0,0.0,0.0,2.8714607348246495,0.0,0.0,0.0,0.0,0.0,0.0,0.0,0.0,0.0,0.0,0.0,0.0,0.0,0.0,
0.5397,2.9368822945548114,2.9368822945548114,2.7413603140565352,0.0,0.0,0.0,2.8717083010553863,0.0,0.0,0.0,0.0,0.0,0.0,0.0,0.0,0.0,0.0,0.0,0.0,0.0,0.0,
0.5543,2.937154623304522,2.937154623304522,2.7415789834197413,0.0,0.0,0.0,2.8719627433429284,0.0,0.0,0.0,0.0,0.0,0.0,0.0,0.0,0.0,0.0,0.0,0.0,0.0,0.0,
0.5688,2.937432380637099,2.937432380637099,2.7418020051625644,0.0,0.0,0.0,2.8722222554789205,0.0,0.0,0.0,0.0,0.0,0.0,0.0,0.0,0.0,0.0,0.0,0.0,0.0,0.0,
0.5834,2.937719405662579,2.937719405662579,2.742032461322021,0.0,0.0,0.0,2.8724904242157265,0.0,0.0,0.0,0.0,0.0,0.0,0.0,0.0,0.0,0.0,0.0,0.0,0.0,0.0,
0.598,2.9380138162963148,2.9380138162963148,2.742268840133627,0.0,0.0,0.0,2.8727654909087526,0.0,0.0,0.0,0.0,0.0,0.0,0.0,0.0,0.0,0.0,0.0,0.0,0.0,0.0,
0.6126,2.9383156209927326,2.9383156209927326,2.742511147825244,0.0,0.0,0.0,2.873047463270236,0.0,0.0,0.0,0.0,0.0,0.0,0.0,0.0,0.0,0.0,0.0,0.0,0.0,0.0,
0.6272,2.938624828424808,2.938624828424808,2.74275939078532,0.0,0.0,0.0,2.873336349211646,0.0,0.0,0.0,0.0,0.0,0.0,0.0,0.0,0.0,0.0,0.0,0.0,0.0,0.0,
0.6418,2.938941447484824,2.938941447484824,2.7430135755633738,0.0,0.0,0.0,2.873632156844341,0.0,0.0,0.0,0.0,0.0,0.0,0.0,0.0,0.0,0.0,0.0,0.0,0.0,0.0,
0.6564,2.9392654872850543,2.9392654872850543,2.743273708870471,0.0,0.0,0.0,2.8739348944801932,0.0,0.0,0.0,0.0,0.0,0.0,0.0,0.0,0.0,0.0,0.0,0.0,0.0,0.0,
0.6709,2.9395946615243034,2.9395946615243034,2.743537954783085,0.0,0.0,0.0,2.8742424259438972,0.0,0.0,0.0,0.0,0.0,0.0,0.0,0.0,0.0,0.0,0.0,0.0,0.0,0.0,
0.6855,2.939933520036294,2.939933520036294,2.74380996506759,0.0,0.0,0.0,2.874559001713392,0.0,0.0,0.0,0.0,0.0,0.0,0.0,0.0,0.0,0.0,0.0,0.0,0.0,0.0,
0.7001,2.9402798278853455,2.9402798278853455,2.744087944939286,0.0,0.0,0.0,2.8748825335699926,0.0,0.0,0.0,0.0,0.0,0.0,0.0,0.0,0.0,0.0,0.0,0.0,0.0,0.0,
0.7147,2.9406335950700004,2.9406335950700004,2.7443719017598314,0.0,0.0,0.0,2.8752130306332773,0.0,0.0,0.0,0.0,0.0,0.0,0.0,0.0,0.0,0.0,0.0,0.0,0.0,0.0,
0.7293,2.9409948318127794,2.9409948318127794,2.7446618430551633,0.0,0.0,0.0,2.8755505022269077,0.0,0.0,0.0,0.0,0.0,0.0,0.0,0.0,0.0,0.0,0.0,0.0,0.0,0.0,
0.7439,2.941363548561034,2.941363548561034,2.7449577765161415,0.0,0.0,0.0,2.875894957879403,0.0,0.0,0.0,0.0,0.0,0.0,0.0,0.0,0.0,0.0,0.0,0.0,0.0,0.0,
0.7584,2.941737153722819,2.941737153722819,2.7452576215362487,0.0,0.0,0.0,2.8762439763272956,0.0,0.0,0.0,0.0,0.0,0.0,0.0,0.0,0.0,0.0,0.0,0.0,0.0,0.0,
0.773,2.942120811309513,2.942120811309513,2.7455655218850636,0.0,0.0,0.0,2.8766023815013635,0.0,0.0,0.0,0.0,0.0,0.0,0.0,0.0,0.0,0.0,0.0,0.0,0.0,0.0,
0.7876,2.9425119815245315,2.9425119815245315,2.745879438410949,0.0,0.0,0.0,2.876967800486671,0.0,0.0,0.0,0.0,0.0,0.0,0.0,0.0,0.0,0.0,0.0,0.0,0.0,0.0,
0.8022,2.942910675721909,2.942910675721909,2.74619937946942,0.0,0.0,0.0,2.877340243637746,0.0,0.0,0.0,0.0,0.0,0.0,0.0,0.0,0.0,0.0,0.0,0.0,0.0,0.0,
0.8168,2.943316905485025,2.943316905485025,2.7465253535840133,0.0,0.0,0.0,2.8777197215180212,0.0,0.0,0.0,0.0,0.0,0.0,0.0,0.0,0.0,0.0,0.0,0.0,0.0,0.0,
0.8314,2.9437306826276552,2.9437306826276552,2.7468573694470035,0.0,0.0,0.0,2.878106244900771,0.0,0.0,0.0,0.0,0.0,0.0,0.0,0.0,0.0,0.0,0.0,0.0,0.0,0.0,
0.846,2.9441520191949158,2.9441520191949158,2.7471954359200836,0.0,0.0,0.0,2.8784998247699716,0.0,0.0,0.0,0.0,0.0,0.0,0.0,0.0,0.0,0.0,0.0,0.0,0.0,0.0,
0.8605,2.9445779639553784,2.9445779639553784,2.747537184376113,0.0,0.0,0.0,2.8788977040956234,0.0,0.0,0.0,0.0,0.0,0.0,0.0,0.0,0.0,0.0,0.0,0.0,0.0,0.0,
0.8751,2.9450144044479876,2.9450144044479876,2.7478873377365174,0.0,0.0,0.0,2.8793053822108305,0.0,0.0,0.0,0.0,0.0,0.0,0.0,0.0,0.0,0.0,0.0,0.0,0.0,0.0,
0.8897,2.9454584418108496,2.9454584418108496,2.748243569250871,0.0,0.0,0.0,2.879720150957523,0.0,0.0,0.0,0.0,0.0,0.0,0.0,0.0,0.0,0.0,0.0,0.0,0.0,0.0,
0.9043,2.9459100890232257,2.9459100890232257,2.748605888464488,0.0,0.0,0.0,2.8801420221703133,0.0,0.0,0.0,0.0,0.0,0.0,0.0,0.0,0.0,0.0,0.0,0.0,0.0,0.0,
0.9189,2.9463693593010554,2.9463693593010554,2.7489743050957633,0.0,0.0,0.0,2.8805710078992917,0.0,0.0,0.0,0.0,0.0,0.0,0.0,0.0,0.0,0.0,0.0,0.0,0.0,0.0,
0.9335,2.9468362660980114,2.9468362660980114,2.7493488290369252,0.0,0.0,0.0,2.881007120410983,0.0,0.0,0.0,0.0,0.0,0.0,0.0,0.0,0.0,0.0,0.0,0.0,0.0,0.0,
0.9481,2.947310823106676,2.947310823106676,2.74972947035483,0.0,0.0,0.0,2.8814503721893936,0.0,0.0,0.0,0.0,0.0,0.0,0.0,0.0,0.0,0.0,0.0,0.0,0.0,0.0,
0.9626,2.947789715275923,2.947789715275923,2.750113569324736,0.0,0.0,0.0,2.881897666625527,0.0,0.0,0.0,0.0,0.0,0.0,0.0,0.0,0.0,0.0,0.0,0.0,0.0,0.0,
0.9772,2.9482795621073032,2.9482795621073032,2.750506434222042,0.0,0.0,0.0,2.882355186145549,0.0,0.0,0.0,0.0,0.0,0.0,0.0,0.0,0.0,0.0,0.0,0.0,0.0,0.0,
0.9918,2.948777101573826,2.948777101573826,2.750905447679399,0.0,0.0,0.0,2.8828198836090166,0.0,0.0,0.0,0.0,0.0,0.0,0.0,0.0,0.0,0.0,0.0,0.0,0.0,0.0,
1.0064,2.949282348333954,2.949282348333954,2.7513106204691327,0.0,0.0,0.0,2.8832917723790135,0.0,0.0,0.0,0.0,0.0,0.0,0.0,0.0,0.0,0.0,0.0,0.0,0.0,0.0,
1.021,2.949795317291101,2.949795317291101,2.751721963542442,0.0,0.0,0.0,2.883770866041548,0.0,0.0,0.0,0.0,0.0,0.0,0.0,0.0,0.0,0.0,0.0,0.0,0.0,0.0,
1.0356,2.950316023594943,2.950316023594943,2.7521394880301884,0.0,0.0,0.0,2.8842571784066915,0.0,0.0,0.0,0.0,0.0,0.0,0.0,0.0,0.0,0.0,0.0,0.0,0.0,0.0,
1.0502,2.9508444826427027,2.9508444826427027,2.7525632052438147,0.0,0.0,0.0,2.88475072350974,0.0,0.0,0.0,0.0,0.0,0.0,0.0,0.0,0.0,0.0,0.0,0.0,0.0,0.0,
1.0647,2.9513770108321964,2.9513770108321964,2.752990160880879,0.0,0.0,0.0,2.885248060848424,0.0,0.0,0.0,0.0,0.0,0.0,0.0,0.0,0.0,0.0,0.0,0.0,0.0,0.0,
1.0793,2.95192096918474,2.95192096918474,2.7534262555928866,0.0,0.0,0.0,2.8857560646541223,0.0,0.0,0.0,0.0,0.0,0.0,0.0,0.0,0.0,0.0,0.0,0.0,0.0,0.0,
1.0939,2.952472727860203,2.952472727860203,2.7538685779761183,0.0,0.0,0.0,2.886271344565508,0.0,0.0,0.0,0.0,0.0,0.0,0.0,0.0,0.0,0.0,0.0,0.0,0.0,0.0,
1.1085,2.9530323032578574,2.9530323032578574,2.754317140072474,0.0,0.0,0.0,2.8867939155293967,0.0,0.0,0.0,0.0,0.0,0.0,0.0,0.0,0.0,0.0,0.0,0.0,0.0,0.0,
1.1231,2.953599712031398,2.953599712031398,2.754771954109188,0.0,0.0,0.0,2.8873237927239948,0.0,0.0,0.0,0.0,0.0,0.0,0.0,0.0,0.0,0.0,0.0,0.0,0.0,0.0,
1.1377,2.9541749710904486,2.9541749710904486,2.755233032499866,0.0,0.0,0.0,2.887860991560254,0.0,0.0,0.0,0.0,0.0,0.0,0.0,0.0,0.0,0.0,0.0,0.0,0.0,0.0,
1.1523,2.954758097601995,2.954758097601995,2.755700387845428,0.0,0.0,0.0,2.888405527683139,0.0,0.0,0.0,0.0,0.0,0.0,0.0,0.0,0.0,0.0,0.0,0.0,0.0,0.0,
1.1668,2.9553450341108265,2.9553450341108265,2.756170767368844,0.0,0.0,0.0,2.8889536118634993,0.0,0.0,0.0,0.0,0.0,0.0,0.0,0.0,0.0,0.0,0.0,0.0,0.0,0.0,
1.1814,2.955943893877486,2.955943893877486,2.7566506719677184,0.0,0.0,0.0,2.8895128199075635,0.0,0.0,0.0,0.0,0.0,0.0,0.0,0.0,0.0,0.0,0.0,0.0,0.0,0.0,
1.196,2.9565506740332186,2.9565506740332186,2.7571368923680453,0.0,0.0,0.0,2.8900794134781607,0.0,0.0,0.0,0.0,0.0,0.0,0.0,0.0,0.0,0.0,0.0,0.0,0.0,0.0,
1.2106,2.957165392788011,2.957165392788011,2.7576294419294087,0.0,0.0,0.0,2.890653409168477,0.0,0.0,0.0,0.0,0.0,0.0,0.0,0.0,0.0,0.0,0.0,0.0,0.0,0.0,
1.2252,2.957788068616999,2.957788068616999,2.758128334204142,0.0,0.0,0.0,2.891234823812713,0.0,0.0,0.0,0.0,0.0,0.0,0.0,0.0,0.0,0.0,0.0,0.0,0.0,0.0,
1.2398,2.958418720262128,2.958418720262128,2.758633582938357,0.0,0.0,0.0,2.891823674487538,0.0,0.0,0.0,0.0,0.0,0.0,0.0,0.0,0.0,0.0,0.0,0.0,0.0,0.0,
1.2544,2.9590573667337816,2.9590573667337816,2.759145202073205,0.0,0.0,0.0,2.892419978513589,0.0,0.0,0.0,0.0,0.0,0.0,0.0,0.0,0.0,0.0,0.0,0.0,0.0,0.0,
1.2689,2.95969957082881,2.95969957082881,2.7596596360281938,0.0,0.0,0.0,2.893019592561938,0.0,0.0,0.0,0.0,0.0,0.0,0.0,0.0,0.0,0.0,0.0,0.0,0.0,0.0,
1.2835,2.960354209974782,2.960354209974782,2.7601839946963067,0.0,0.0,0.0,2.893630804881957,0.0,0.0,0.0,0.0,0.0,0.0,0.0,0.0,0.0,0.0,0.0,0.0,0.0,0.0,
1.2981,2.9610169024694706,2.9610169024694706,2.7607147666697953,0.0,0.0,0.0,2.894249523869579,0.0,0.0,0.0,0.0,0.0,0.0,0.0,0.0,0.0,0.0,0.0,0.0,0.0,0.0,
1.3127,2.9616876684124,2.9616876684124,2.761251966680181,0.0,0.0,0.0,2.894875767834994,0.0,0.0,0.0,0.0,0.0,0.0,0.0,0.0,0.0,0.0,0.0,0.0,0.0,0.0,
1.3273,2.9623665281802665,2.9623665281802665,2.761795609659944,0.0,0.0,0.0,2.895509555340159,0.0,0.0,0.0,0.0,0.0,0.0,0.0,0.0,0.0,0.0,0.0,0.0,0.0,0.0,
1.3419,2.963053502428802,2.963053502428802,2.762345710743822,0.0,0.0,0.0,2.896150905200475,0.0,0.0,0.0,0.0,0.0,0.0,0.0,0.0,0.0,0.0,0.0,0.0,0.0,0.0,
1.3565,2.963748612094592,2.963748612094592,2.762902285270087,0.0,0.0,0.0,2.8967998364864243,0.0,0.0,0.0,0.0,0.0,0.0,0.0,0.0,0.0,0.0,0.0,0.0,0.0,0.0,
1.371,2.9644470337137614,2.9644470337137614,2.763461470076601,0.0,0.0,0.0,2.897451845834708,0.0,0.0,0.0,0.0,0.0,0.0,0.0,0.0,0.0,0.0,0.0,0.0,0.0,0.0,
1.3856,2.965158422068518,2.965158422068518,2.7640309937160366,0.0,0.0,0.0,2.8981159459510244,0.0,0.0,0.0,0.0,0.0,0.0,0.0,0.0,0.0,0.0,0.0,0.0,0.0,0.0,
1.4002,2.9658780102045474,2.9658780102045474,2.764607037936927,0.0,0.0,0.0,2.898787686115341,0.0,0.0,0.0,0.0,0.0,0.0,0.0,0.0,0.0,0.0,0.0,0.0,0.0,0.0,
1.4148,2.9666058201993,2.9666058201993,2.7651896189034346,0.0,0.0,0.0,2.8994670864340115,0.0,0.0,0.0,0.0,0.0,0.0,0.0,0.0,0.0,0.0,0.0,0.0,0.0,0.0,
1.4294,2.9673418744208515,2.9673418744208515,2.765778752989954,0.0,0.0,0.0,2.900154167277219,0.0,0.0,0.0,0.0,0.0,0.0,0.0,0.0,0.0,0.0,0.0,0.0,0.0,0.0,
1.444,2.9680861955299975,2.9680861955299975,2.766374456782554,0.0,0.0,0.0,2.9008489492808494,0.0,0.0,0.0,0.0,0.0,0.0,0.0,0.0,0.0,0.0,0.0,0.0,0.0,0.0,
1.4586,2.96883880648236,2.96883880648236,2.7669767470803355,0.0,0.0,0.0,2.9015514533483517,0.0,0.0,0.0,0.0,0.0,0.0,0.0,0.0,0.0,0.0,0.0,0.0,0.0,0.0,
1.4731,2.9695944903943046,2.9695944903943046,2.7675814478926517,0.0,0.0,0.0,2.90225680956042,0.0,0.0,0.0,0.0,0.0,0.0,0.0,0.0,0.0,0.0,0.0,0.0,0.0,0.0,
1.4877,2.970363693908502,2.970363693908502,2.768196917051058,0.0,0.0,0.0,2.9029747682893543,0.0,0.0,0.0,0.0,0.0,0.0,0.0,0.0,0.0,0.0,0.0,0.0,0.0,0.0,
1.5023,2.9711412577583607,2.9711412577583607,2.7688190242848467,0.0,0.0,0.0,2.9037005132671894,0.0,0.0,0.0,0.0,0.0,0.0,0.0,0.0,0.0,0.0,0.0,0.0,0.0,0.0,
1.5169,2.9719272060980564,2.9719272060980564,2.7694477872586583,0.0,0.0,0.0,2.904434066484924,0.0,0.0,0.0,0.0,0.0,0.0,0.0,0.0,0.0,0.0,0.0,0.0,0.0,0.0,
1.5315,2.9727215633874415,2.9727215633874415,2.7700832238577004,0.0,0.0,0.0,2.905175450210861,0.0,0.0,0.0,0.0,0.0,0.0,0.0,0.0,0.0,0.0,0.0,0.0,0.0,0.0,
1.5461,2.9735243543943772,2.9735243543943772,2.7707253521892934,0.0,0.0,0.0,2.9059246869926825,0.0,0.0,0.0,0.0,0.0,0.0,0.0,0.0,0.0,0.0,0.0,0.0,0.0,0.0,
1.5607,2.974335604197017,2.974335604197017,2.771374190584458,0.0,0.0,0.0,2.906681799659497,0.0,0.0,0.0,0.0,0.0,0.0,0.0,0.0,0.0,0.0,0.0,0.0,0.0,0.0,
1.5752,2.9751496946554807,2.9751496946554807,2.7720252444868,0.0,0.0,0.0,2.9074415445992536,0.0,0.0,0.0,0.0,0.0,0.0,0.0,0.0,0.0,0.0,0.0,0.0,0.0,0.0,
1.5898,2.975977880161926,2.975977880161926,2.772687512625605,0.0,0.0,0.0,2.9082144243164856,0.0,0.0,0.0,0.0,0.0,0.0,0.0,0.0,0.0,0.0,0.0,0.0,0.0,0.0,
1.6044,2.9768146014047696,2.9768146014047696,2.773356547048571,0.0,0.0,0.0,2.9089952499527034,0.0,0.0,0.0,0.0,0.0,0.0,0.0,0.0,0.0,0.0,0.0,0.0,0.0,0.0,
1.619,2.9776598847251208,2.9776598847251208,2.774032366996356,0.0,0.0,0.0,2.909784045482199,0.0,0.0,0.0,0.0,0.0,0.0,0.0,0.0,0.0,0.0,0.0,0.0,0.0,0.0,
1.6336,2.9785137567864957,2.9785137567864957,2.7747149919416367,0.0,0.0,0.0,2.9105808351715425,0.0,0.0,0.0,0.0,0.0,0.0,0.0,0.0,0.0,0.0,0.0,0.0,0.0,0.0,
1.6482,2.9793762445774257,2.9793762445774257,2.7754044415908448,0.0,0.0,0.0,2.9113856435818986,0.0,0.0,0.0,0.0,0.0,0.0,0.0,0.0,0.0,0.0,0.0,0.0,0.0,0.0,
1.6628,2.980247375414005,2.980247375414005,2.77610073588595,0.0,0.0,0.0,2.9121984955713196,0.0,0.0,0.0,0.0,0.0,0.0,0.0,0.0,0.0,0.0,0.0,0.0,0.0,0.0,
1.6773,2.9811211213508213,2.9811211213508213,2.7767990554532203,0.0,0.0,0.0,2.913013766051621,0.0,0.0,0.0,0.0,0.0,0.0,0.0,0.0,0.0,0.0,0.0,0.0,0.0,0.0,
1.6919,2.9820095618744915,2.9820095618744915,2.777509052587906,0.0,0.0,0.0,2.9138427254456296,0.0,0.0,0.0,0.0,0.0,0.0,0.0,0.0,0.0,0.0,0.0,0.0,0.0,0.0,
1.7065,2.982906729188758,2.982906729188758,2.7782259554832542,0.0,0.0,0.0,2.9146798046202567,0.0,0.0,0.0,0.0,0.0,0.0,0.0,0.0,0.0,0.0,0.0,0.0,0.0,0.0,
1.7211,2.9838126519442953,2.9838126519442953,2.7789497850398766,0.0,0.0,0.0,2.915525029642822,0.0,0.0,0.0,0.0,0.0,0.0,0.0,0.0,0.0,0.0,0.0,0.0,0.0,0.0,
1.7357,2.9847273591327608,2.9847273591327608,2.779680562403093,0.0,0.0,0.0,2.9163784268895383,0.0,0.0,0.0,0.0,0.0,0.0,0.0,0.0,0.0,0.0,0.0,0.0,0.0,0.0,
1.7503,2.9856508800897483,2.9856508800897483,2.780418308964951,0.0,0.0,0.0,2.9172400230481492,0.0,0.0,0.0,0.0,0.0,0.0,0.0,0.0,0.0,0.0,0.0,0.0,0.0,0.0,
1.7649,2.986583244497576,2.986583244497576,2.7811630463660926,0.0,0.0,0.0,2.9181098451204144,0.0,0.0,0.0,0.0,0.0,0.0,0.0,0.0,0.0,0.0,0.0,0.0,0.0,0.0,
1.7794,2.9875180053044073,2.9875180053044073,2.7819096236227323,0.0,0.0,0.0,2.9189818780771826,0.0,0.0,0.0,0.0,0.0,0.0,0.0,0.0,0.0,0.0,0.0,0.0,0.0,0.0,
1.794,2.9884680859729658,2.9884680859729658,2.782668360369043,0.0,0.0,0.0,2.9198681774383246,0.0,0.0,0.0,0.0,0.0,0.0,0.0,0.0,0.0,0.0,0.0,0.0,0.0,0.0,
1.8086,2.9894271010374305,2.9894271010374305,2.783434154234261,0.0,0.0,0.0,2.920762785436374,0.0,0.0,0.0,0.0,0.0,0.0,0.0,0.0,0.0,0.0,0.0,0.0,0.0,0.0,
1.8232,2.9903950815942393,2.9903950815942393,2.7842070278720064,0.0,0.0,0.0,2.9216657303534945,0.0,0.0,0.0,0.0,0.0,0.0,0.0,0.0,0.0,0.0,0.0,0.0,0.0,0.0,
1.8378,2.9913720591015402,2.9913720591015402,2.7849870041948317,0.0,0.0,0.0,2.922577040799304,0.0,0.0,0.0,0.0,0.0,0.0,0.0,0.0,0.0,0.0,0.0,0.0,0.0,0.0,
1.8524,2.992358065382394,2.992358065382394,2.7857741063762536,0.0,0.0,0.0,2.9234967457136807,0.0,0.0,0.0,0.0,0.0,0.0,0.0,0.0,0.0,0.0,0.0,0.0,0.0,0.0,
1.867,2.9933531326278784,2.9933531326278784,2.786568357852999,0.0,0.0,0.0,2.9244248743695853,0.0,0.0,0.0,0.0,0.0,0.0,0.0,0.0,0.0,0.0,0.0,0.0,0.0,0.0,
1.8815,2.994350384583764,2.994350384583764,2.787364268667633,0.0,0.0,0.0,2.92535501261172,0.0,0.0,0.0,0.0,0.0,0.0,0.0,0.0,0.0,0.0,0.0,0.0,0.0,0.0,
1.8961,2.9953636091973843,2.9953636091973843,2.788172840732555,0.0,0.0,0.0,2.926300019709108,0.0,0.0,0.0,0.0,0.0,0.0,0.0,0.0,0.0,0.0,0.0,0.0,0.0,0.0,
