energies(eV),real_xx,real_yy,real_zz,real_xy,real_yz,real_xz,real_ave,imag_xx,imag_yy,imag_zz,imag_xy,imag_yz,imag_xz,imag_ave,absorption_xx,absorption_yy,absorption_zz,absorption_xy,absorption_yz,absorption_xz,absorption_ave,band_gap
0.0,2.7624430249330127,2.7624430249330127,2.6381171212716286,0.0,0.0,0.0,2.7210010570458842,0.0,0.0,0.0,0.0,0.0,0.0,0.0,0.0,0.0,0.0,0.0,0.0,0.0,0.0,5.4117
0.0161,2.7624479854272614,2.7624479854272614,2.638120816786045,0.0,0.0,0.0,2.7210055958801895,0.0,0.0,0.0,0.0,0.0,0.0,0.0,0.0,0.0,0.0,0.0,0.0,0.0,0.0,
0.0323,2.7624629906109313,2.7624629906109313,2.6381319954317286,0.0,0.0,0.0,2.7210193255511967,0.0,0.0,0.0,0.0,0.0,0.0,0.0,0.0,0.0,0.0,0.0,0.0,0.0,0.0,
0.0484,2.7624878560315267,2.7624878560315267,2.638150519635108,0.0,0.0,0.0,2.7210420772327204,0.0,0.0,0.0,0.0,0.0,0.0,0.0,0.0,0.0,0.0,0.0,0.0,0.0,0.0,
0.0645,2.762522644823391,2.762522644823391,2.6381764361666007,0.0,0.0,0.0,2.721073908604461,0.0,0.0,0.0,0.0,0.0,0.0,0.0,0.0,0.0,0.0,0.0,0.0,0.0,0.0,
0.0806,2.7625673588358337,2.7625673588358337,2.6382097460345175,0.0,0.0,0.0,2.721114821235395,0.0,0.0,0.0,0.0,0.0,0.0,0.0,0.0,0.0,0.0,0.0,0.0,0.0,0.0,
0.0968,2.762622370863353,2.762622370863353,2.638250726468462,0.0,0.0,0.0,2.7211651560650556,0.0,0.0,0.0,0.0,0.0,0.0,0.0,0.0,0.0,0.0,0.0,0.0,0.0,0.0,
0.1129,2.7626870046674323,2.7626870046674323,2.6382988731303083,0.0,0.0,0.0,2.7212242941550575,0.0,0.0,0.0,0.0,0.0,0.0,0.0,0.0,0.0,0.0,0.0,0.0,0.0,0.0,
0.129,2.7627615724324315,2.7627615724324315,2.638354417893483,0.0,0.0,0.0,2.7212925209194485,0.0,0.0,0.0,0.0,0.0,0.0,0.0,0.0,0.0,0.0,0.0,0.0,0.0,0.0,
0.1452,2.762846634069515,2.762846634069515,2.6384177770130903,0.0,0.0,0.0,2.72137034838404,0.0,0.0,0.0,0.0,0.0,0.0,0.0,0.0,0.0,0.0,0.0,0.0,0.0,0.0,
0.1613,2.762941143957197,2.762941143957197,2.6384881707423338,0.0,0.0,0.0,2.7214568195522424,0.0,0.0,0.0,0.0,0.0,0.0,0.0,0.0,0.0,0.0,0.0,0.0,0.0,0.0,
0.1774,2.7630456013310387,2.7630456013310387,2.638565969943933,0.0,0.0,0.0,2.72155239086867,0.0,0.0,0.0,0.0,0.0,0.0,0.0,0.0,0.0,0.0,0.0,0.0,0.0,0.0,
0.1935,2.7631600117539854,2.7631600117539854,2.63865117764873,0.0,0.0,0.0,2.721657067052233,0.0,0.0,0.0,0.0,0.0,0.0,0.0,0.0,0.0,0.0,0.0,0.0,0.0,0.0,
0.2097,2.7632851849380584,2.7632851849380584,2.6387443956221994,0.0,0.0,0.0,2.7217715884994385,0.0,0.0,0.0,0.0,0.0,0.0,0.0,0.0,0.0,0.0,0.0,0.0,0.0,0.0,
0.2258,2.7634195822003873,2.7634195822003873,2.638844476655226,0.0,0.0,0.0,2.721894547018667,0.0,0.0,0.0,0.0,0.0,0.0,0.0,0.0,0.0,0.0,0.0,0.0,0.0,0.0,
0.2419,2.763563952446347,2.763563952446347,2.638951977048313,0.0,0.0,0.0,2.722026627313669,0.0,0.0,0.0,0.0,0.0,0.0,0.0,0.0,0.0,0.0,0.0,0.0,0.0,0.0,
0.258,2.7637183033788717,2.7637183033788717,2.6390669009949965,0.0,0.0,0.0,2.72216783591758,0.0,0.0,0.0,0.0,0.0,0.0,0.0,0.0,0.0,0.0,0.0,0.0,0.0,0.0,
0.2742,2.763883695214774,2.763883695214774,2.6391900361519296,0.0,0.0,0.0,2.7223191421938258,0.0,0.0,0.0,0.0,0.0,0.0,0.0,0.0,0.0,0.0,0.0,0.0,0.0,0.0,
0.2903,2.7640580949053093,2.7640580949053093,2.6393198671345,0.0,0.0,0.0,2.722478685648373,0.0,0.0,0.0,0.0,0.0,0.0,0.0,0.0,0.0,0.0,0.0,0.0,0.0,0.0,
0.3064,2.764242501679239,2.764242501679239,2.6394571360340757,0.0,0.0,0.0,2.722647379797518,0.0,0.0,0.0,0.0,0.0,0.0,0.0,0.0,0.0,0.0,0.0,0.0,0.0,0.0,
0.3226,2.764438164323976,2.764438164323976,2.6396027703193146,0.0,0.0,0.0,2.722826366322422,0.0,0.0,0.0,0.0,0.0,0.0,0.0,0.0,0.0,0.0,0.0,0.0,0.0,0.0,
0.3387,2.7646426777135877,2.7646426777135877,2.639754977724227,0.0,0.0,0.0,2.7230134443838008,0.0,0.0,0.0,0.0,0.0,0.0,0.0,0.0,0.0,0.0,0.0,0.0,0.0,0.0,
0.3548,2.764857229477963,2.764857229477963,2.639914640058522,0.0,0.0,0.0,2.7232096996714823,0.0,0.0,0.0,0.0,0.0,0.0,0.0,0.0,0.0,0.0,0.0,0.0,0.0,0.0,
0.3709,2.765081831118812,2.765081831118812,2.6400817635714735,0.0,0.0,0.0,2.723415141936366,0.0,0.0,0.0,0.0,0.0,0.0,0.0,0.0,0.0,0.0,0.0,0.0,0.0,0.0,
0.3871,2.7653179836925315,2.7653179836925315,2.640257462575736,0.0,0.0,0.0,2.7236311433202665,0.0,0.0,0.0,0.0,0.0,0.0,0.0,0.0,0.0,0.0,0.0,0.0,0.0,0.0,
0.4032,2.7655627844033495,2.7655627844033495,2.640439574826006,0.0,0.0,0.0,2.7238550478775685,0.0,0.0,0.0,0.0,0.0,0.0,0.0,0.0,0.0,0.0,0.0,0.0,0.0,0.0,
0.4193,2.7658176728793644,2.7658176728793644,2.640629168826456,0.0,0.0,0.0,2.724088171528395,0.0,0.0,0.0,0.0,0.0,0.0,0.0,0.0,0.0,0.0,0.0,0.0,0.0,0.0,
0.4355,2.7660843403287023,2.7660843403287023,2.6408274995545904,0.0,0.0,0.0,2.7243320600706653,0.0,0.0,0.0,0.0,0.0,0.0,0.0,0.0,0.0,0.0,0.0,0.0,0.0,0.0,
0.4516,2.766359508905972,2.766359508905972,2.6410321262626555,0.0,0.0,0.0,2.7245837146915335,0.0,0.0,0.0,0.0,0.0,0.0,0.0,0.0,0.0,0.0,0.0,0.0,0.0,0.0,
0.4677,2.7666448081537665,2.7666448081537665,2.6412442579887987,0.0,0.0,0.0,2.724844624765444,0.0,0.0,0.0,0.0,0.0,0.0,0.0,0.0,0.0,0.0,0.0,0.0,0.0,0.0,
0.4838,2.7669402534672045,2.7669402534672045,2.641463903074889,0.0,0.0,0.0,2.725114803336433,0.0,0.0,0.0,0.0,0.0,0.0,0.0,0.0,0.0,0.0,0.0,0.0,0.0,0.0,
0.5,2.7672477907779056,2.7672477907779056,2.641692504664557,0.0,0.0,0.0,2.7253960287401227,0.0,0.0,0.0,0.0,0.0,0.0,0.0,0.0,0.0,0.0,0.0,0.0,0.0,0.0,
0.5161,2.7675636399439307,2.7675636399439307,2.6419272495104447,0.0,0.0,0.0,2.7256848431327687,0.0,0.0,0.0,0.0,0.0,0.0,0.0,0.0,0.0,0.0,0.0,0.0,0.0,0.0,
0.5322,2.7678896848691,2.7678896848691,2.6421695346173557,0.0,0.0,0.0,2.725982968118519,0.0,0.0,0.0,0.0,0.0,0.0,0.0,0.0,0.0,0.0,0.0,0.0,0.0,0.0,
0.5484,2.768228063743002,2.768228063743002,2.642420944926471,0.0,0.0,0.0,2.7262923574708253,0.0,0.0,0.0,0.0,0.0,0.0,0.0,0.0,0.0,0.0,0.0,0.0,0.0,0.0,
0.5645,2.7685746173961,2.7685746173961,2.6426783865241994,0.0,0.0,0.0,2.7266092071054664,0.0,0.0,0.0,0.0,0.0,0.0,0.0,0.0,0.0,0.0,0.0,0.0,0.0,0.0,
0.5806,2.768931421683397,2.768931421683397,2.642943398044166,0.0,0.0,0.0,2.7269354138036532,0.0,0.0,0.0,0.0,0.0,0.0,0.0,0.0,0.0,0.0,0.0,0.0,0.0,0.0,
0.5967,2.769298496021546,2.769298496021546,2.643215989970311,0.0,0.0,0.0,2.7272709940044675,0.0,0.0,0.0,0.0,0.0,0.0,0.0,0.0,0.0,0.0,0.0,0.0,0.0,0.0,
0.6129,2.7696782364893062,2.7696782364893062,2.643497937109365,0.0,0.0,0.0,2.7276181366959924,0.0,0.0,0.0,0.0,0.0,0.0,0.0,0.0,0.0,0.0,0.0,0.0,0.0,0.0,
0.629,2.7700659756333774,2.7700659756333774,2.6437857697967564,0.0,0.0,0.0,2.7279725736878375,0.0,0.0,0.0,0.0,0.0,0.0,0.0,0.0,0.0,0.0,0.0,0.0,0.0,0.0,
0.6451,2.770464046741404,2.770464046741404,2.644081216281008,0.0,0.0,0.0,2.7283364365879392,0.0,0.0,0.0,0.0,0.0,0.0,0.0,0.0,0.0,0.0,0.0,0.0,0.0,0.0,
0.6612,2.77087247159865,2.77087247159865,2.6443842882971706,0.0,0.0,0.0,2.7287097438314905,0.0,0.0,0.0,0.0,0.0,0.0,0.0,0.0,0.0,0.0,0.0,0.0,0.0,0.0,
0.6774,2.7712939063110458,2.7712939063110458,2.644696951661526,0.0,0.0,0.0,2.7290949214278726,0.0,0.0,0.0,0.0,0.0,0.0,0.0,0.0,0.0,0.0,0.0,0.0,0.0,0.0,
0.6935,2.771723171091798,2.771723171091798,2.6450153587657663,0.0,0.0,0.0,2.7294872336497877,0.0,0.0,0.0,0.0,0.0,0.0,0.0,0.0,0.0,0.0,0.0,0.0,0.0,0.0,
0.7096,2.772162858743836,2.772162858743836,2.6453414285874937,0.0,0.0,0.0,2.729889048691722,0.0,0.0,0.0,0.0,0.0,0.0,0.0,0.0,0.0,0.0,0.0,0.0,0.0,0.0,
0.7258,2.772615822046783,2.772615822046783,2.6456772711030587,0.0,0.0,0.0,2.730302971732208,0.0,0.0,0.0,0.0,0.0,0.0,0.0,0.0,0.0,0.0,0.0,0.0,0.0,0.0,
0.7419,2.773076493822529,2.773076493822529,2.646018753509896,0.0,0.0,0.0,2.730723913718318,0.0,0.0,0.0,0.0,0.0,0.0,0.0,0.0,0.0,0.0,0.0,0.0,0.0,0.0,
0.758,2.773547663126365,2.773547663126365,2.6463679387152483,0.0,0.0,0.0,2.7311544216559924,0.0,0.0,0.0,0.0,0.0,0.0,0.0,0.0,0.0,0.0,0.0,0.0,0.0,0.0,
0.7741,2.774029356039315,2.774029356039315,2.646724840701294,0.0,0.0,0.0,2.731594517593308,0.0,0.0,0.0,0.0,0.0,0.0,0.0,0.0,0.0,0.0,0.0,0.0,0.0,0.0,
0.7903,2.7745246897090436,2.7745246897090436,2.6470917627680466,0.0,0.0,0.0,2.732047047395378,0.0,0.0,0.0,0.0,0.0,0.0,0.0,0.0,0.0,0.0,0.0,0.0,0.0,0.0,
0.8064,2.775027576394466,2.775027576394466,2.6474641897283906,0.0,0.0,0.0,2.732506447505774,0.0,0.0,0.0,0.0,0.0,0.0,0.0,0.0,0.0,0.0,0.0,0.0,0.0,0.0,
0.8225,2.775541068906722,2.775541068906722,2.647844377479292,0.0,0.0,0.0,2.732975505097579,0.0,0.0,0.0,0.0,0.0,0.0,0.0,0.0,0.0,0.0,0.0,0.0,0.0,0.0,
0.8387,2.7760684846188366,2.7760684846188366,2.648234775369225,0.0,0.0,0.0,2.733457248202299,0.0,0.0,0.0,0.0,0.0,0.0,0.0,0.0,0.0,0.0,0.0,0.0,0.0,0.0,
0.8548,2.776603341662856,2.776603341662856,2.6486305793909644,0.0,0.0,0.0,2.733945754238892,0.0,0.0,0.0,0.0,0.0,0.0,0.0,0.0,0.0,0.0,0.0,0.0,0.0,0.0,
0.8709,2.7771488925769163,2.7771488925769163,2.649034191218702,0.0,0.0,0.0,2.7344439921241785,0.0,0.0,0.0,0.0,0.0,0.0,0.0,0.0,0.0,0.0,0.0,0.0,0.0,0.0,
0.887,2.777705167963469,2.777705167963469,2.6494456271671063,0.0,0.0,0.0,2.7349519876980146,0.0,0.0,0.0,0.0,0.0,0.0,0.0,0.0,0.0,0.0,0.0,0.0,0.0,0.0,
0.9032,2.778275754699909,2.778275754699909,2.649867532631439,0.0,0.0,0.0,2.735473014010419,0.0,0.0,0.0,0.0,0.0,0.0,0.0,0.0,0.0,0.0,0.0,0.0,0.0,0.0,
0.9193,2.7788536406126294,2.7788536406126294,2.650294715989198,0.0,0.0,0.0,2.736000665738152,0.0,0.0,0.0,0.0,0.0,0.0,0.0,0.0,0.0,0.0,0.0,0.0,0.0,0.0,
0.9354,2.779442347026716,2.779442347026716,2.650729774571909,0.0,0.0,0.0,2.736538156208447,0.0,0.0,0.0,0.0,0.0,0.0,0.0,0.0,0.0,0.0,0.0,0.0,0.0,0.0,
0.9516,2.780045665209987,2.780045665209987,2.651175502024678,0.0,0.0,0.0,2.7370889441482174,0.0,0.0,0.0,0.0,0.0,0.0,0.0,0.0,0.0,0.0,0.0,0.0,0.0,0.0,
0.9677,2.7806561809610435,2.7806561809610435,2.6516264136749155,0.0,0.0,0.0,2.7376462585323345,0.0,0.0,0.0,0.0,0.0,0.0,0.0,0.0,0.0,0.0,0.0,0.0,0.0,0.0,
0.9838,2.781277619415911,2.781277619415911,2.6520852547903075,0.0,0.0,0.0,2.738213497874043,0.0,0.0,0.0,0.0,0.0,0.0,0.0,0.0,0.0,0.0,0.0,0.0,0.0,0.0,
0.9999,2.781910015968763,2.781910015968763,2.6525520441193273,0.0,0.0,0.0,2.738790692018951,0.0,0.0,0.0,0.0,0.0,0.0,0.0,0.0,0.0,0.0,0.0,0.0,0.0,0.0,
1.0161,2.7825574373698845,2.7825574373698845,2.6530297745031595,0.0,0.0,0.0,2.739381549747643,0.0,0.0,0.0,0.0,0.0,0.0,0.0,0.0,0.0,0.0,0.0,0.0,0.0,0.0,
1.0322,2.78321192777259,2.78321192777259,2.653512567601332,0.0,0.0,0.0,2.739978807715504,0.0,0.0,0.0,0.0,0.0,0.0,0.0,0.0,0.0,0.0,0.0,0.0,0.0,0.0,
1.0483,2.7838774869668175,2.7838774869668175,2.6540033674304047,0.0,0.0,0.0,2.7405861137880136,0.0,0.0,0.0,0.0,0.0,0.0,0.0,0.0,0.0,0.0,0.0,0.0,0.0,0.0,
1.0644,2.7845541532243696,2.7845541532243696,2.6545021941811946,0.0,0.0,0.0,2.7412035002099784,0.0,0.0,0.0,0.0,0.0,0.0,0.0,0.0,0.0,0.0,0.0,0.0,0.0,0.0,
1.0806,2.785246272591883,2.785246272591883,2.6550122418891005,0.0,0.0,0.0,2.741834929024289,0.0,0.0,0.0,0.0,0.0,0.0,0.0,0.0,0.0,0.0,0.0,0.0,0.0,0.0,
1.0967,2.7859453403447283,2.7859453403447283,2.6555272347048593,0.0,0.0,0.0,2.742472638464772,0.0,0.0,0.0,0.0,0.0,0.0,0.0,0.0,0.0,0.0,0.0,0.0,0.0,0.0,
1.1128,2.7866556346740303,2.7866556346740303,2.656050317357808,0.0,0.0,0.0,2.7431205289019562,0.0,0.0,0.0,0.0,0.0,0.0,0.0,0.0,0.0,0.0,0.0,0.0,0.0,0.0,
1.129,2.787381713894392,2.787381713894392,2.6565848362592046,0.0,0.0,0.0,2.7437827546826625,0.0,0.0,0.0,0.0,0.0,0.0,0.0,0.0,0.0,0.0,0.0,0.0,0.0,0.0,
1.1451,2.7881146563149186,2.7881146563149186,2.657124214578503,0.0,0.0,0.0,2.7444511757361134,0.0,0.0,0.0,0.0,0.0,0.0,0.0,0.0,0.0,0.0,0.0,0.0,0.0,0.0,
1.1612,2.788858951677791,2.788858951677791,2.6576717490366533,0.0,0.0,0.0,2.7451298841307454,0.0,0.0,0.0,0.0,0.0,0.0,0.0,0.0,0.0,0.0,0.0,0.0,0.0,0.0,
1.1773,2.7896146435738096,2.7896146435738096,2.658227462452566,0.0,0.0,0.0,2.745818916533395,0.0,0.0,0.0,0.0,0.0,0.0,0.0,0.0,0.0,0.0,0.0,0.0,0.0,0.0,
1.1935,2.7903865770298015,2.7903865770298015,2.658794906292644,0.0,0.0,0.0,2.7465226867840826,0.0,0.0,0.0,0.0,0.0,0.0,0.0,0.0,0.0,0.0,0.0,0.0,0.0,0.0,
1.2096,2.7911652674200536,2.7911652674200536,2.659367098795634,0.0,0.0,0.0,2.747232544545247,0.0,0.0,0.0,0.0,0.0,0.0,0.0,0.0,0.0,0.0,0.0,0.0,0.0,0.0,
1.2257,2.7919554901812176,2.7919554901812176,2.659947541194054,0.0,0.0,0.0,2.74795284051883,0.0,0.0,0.0,0.0,0.0,0.0,0.0,0.0,0.0,0.0,0.0,0.0,0.0,0.0,
1.2419,2.7927623085420596,2.7927623085420596,2.6605399404066326,0.0,0.0,0.0,2.7486881858302503,0.0,0.0,0.0,0.0,0.0,0.0,0.0,0.0,0.0,0.0,0.0,0.0,0.0,0.0,
1.258,2.7935758096670984,2.7935758096670984,2.6611370077773455,0.0,0.0,0.0,2.749429542370514,0.0,0.0,0.0,0.0,0.0,0.0,0.0,0.0,0.0,0.0,0.0,0.0,0.0,0.0,
1.2741,2.794400986382848,2.794400986382848,2.6617423995589014,0.0,0.0,0.0,2.7501814574415326,0.0,0.0,0.0,0.0,0.0,0.0,0.0,0.0,0.0,0.0,0.0,0.0,0.0,0.0,
1.2902,2.7952378880099227,2.7952378880099227,2.6623561413468955,0.0,0.0,0.0,2.7509439724555804,0.0,0.0,0.0,0.0,0.0,0.0,0.0,0.0,0.0,0.0,0.0,0.0,0.0,0.0,
1.3064,2.796091872909281,2.796091872909281,2.662982149460999,0.0,0.0,0.0,2.751721965093187,0.0,0.0,0.0,0.0,0.0,0.0,0.0,0.0,0.0,0.0,0.0,0.0,0.0,0.0,
1.3225,2.7969524493641065,2.7969524493641065,2.6636127219619823,0.0,0.0,0.0,2.7525058735633983,0.0,0.0,0.0,0.0,0.0,0.0,0.0,0.0,0.0,0.0,0.0,0.0,0.0,0.0,
1.3386,2.797824904183917,2.797824904183917,2.6642517238943646,0.0,0.0,0.0,2.753300510754066,0.0,0.0,0.0,0.0,0.0,0.0,0.0,0.0,0.0,0.0,0.0,0.0,0.0,0.0,
1.3548,2.798714820648991,2.798714820648991,2.664903230481033,0.0,0.0,0.0,2.754110957259672,0.0,0.0,0.0,0.0,0.0,0.0,0.0,0.0,0.0,0.0,0.0,0.0,0.0,0.0,
1.3709,2.799611266117375,2.799611266117375,2.6655592262564873,0.0,0.0,0.0,2.7549272528304125,0.0,0.0,0.0,0.0,0.0,0.0,0.0,0.0,0.0,0.0,0.0,0.0,0.0,0.0,
1.387,2.8005197514035185,2.8005197514035185,2.666223734685778,0.0,0.0,0.0,2.755754412497605,0.0,0.0,0.0,0.0,0.0,0.0,0.0,0.0,0.0,0.0,0.0,0.0,0.0,0.0,
1.4031,2.8014403320370294,2.8014403320370294,2.6668967843118194,0.0,0.0,0.0,2.7565924827952926,0.0,0.0,0.0,0.0,0.0,0.0,0.0,0.0,0.0,0.0,0.0,0.0,0.0,0.0,
1.4193,2.802378895937977,2.802378895937977,2.6675826646184313,0.0,0.0,0.0,2.7574468188314616,0.0,0.0,0.0,0.0,0.0,0.0,0.0,0.0,0.0,0.0,0.0,0.0,0.0,0.0,
1.4354,2.803323913597067,2.803323913597067,2.668272937519446,0.0,0.0,0.0,2.7583069215711937,0.0,0.0,0.0,0.0,0.0,0.0,0.0,0.0,0.0,0.0,0.0,0.0,0.0,0.0,
1.4515,2.8042811991776024,2.8042811991776024,2.6689718400624334,0.0,0.0,0.0,2.7591780794725462,0.0,0.0,0.0,0.0,0.0,0.0,0.0,0.0,0.0,0.0,0.0,0.0,0.0,0.0,
1.4677,2.805256873087673,2.805256873087673,2.6696838244834082,0.0,0.0,0.0,2.7600658568862513,0.0,0.0,0.0,0.0,0.0,0.0,0.0,0.0,0.0,0.0,0.0,0.0,0.0,0.0,
1.4838,2.8062389505842362,2.8062389505842362,2.6704001317768475,0.0,0.0,0.0,2.7609593443151064,0.0,0.0,0.0,0.0,0.0,0.0,0.0,0.0,0.0,0.0,0.0,0.0,0.0,0.0,
1.4999,2.8072334772935372,2.8072334772935372,2.671125161206173,0.0,0.0,0.0,2.7618640385977486,0.0,0.0,0.0,0.0,0.0,0.0,0.0,0.0,0.0,0.0,0.0,0.0,0.0,0.0,
1.516,2.8082405155116943,2.8082405155116943,2.6718589444565692,0.0,0.0,0.0,2.7627799918266525,0.0,0.0,0.0,0.0,0.0,0.0,0.0,0.0,0.0,0.0,0.0,0.0,0.0,0.0,
1.5322,2.8092665009792617,2.8092665009792617,2.672606153432967,0.0,0.0,0.0,2.7637130517971635,0.0,0.0,0.0,0.0,0.0,0.0,0.0,0.0,0.0,0.0,0.0,0.0,0.0,0.0,
1.5483,2.8102988318861453,2.8102988318861453,2.6733575961245757,0.0,0.0,0.0,2.764651753298955,0.0,0.0,0.0,0.0,0.0,0.0,0.0,0.0,0.0,0.0,0.0,0.0,0.0,0.0,
1.5644,2.8113438677464946,2.8113438677464946,2.674117890711572,0.0,0.0,0.0,2.7656018754015204,0.0,0.0,0.0,0.0,0.0,0.0,0.0,0.0,0.0,0.0,0.0,0.0,0.0,0.0,
1.5805,2.8124016750066883,2.8124016750066883,2.674887070772252,0.0,0.0,0.0,2.7665634735952094,0.0,0.0,0.0,0.0,0.0,0.0,0.0,0.0,0.0,0.0,0.0,0.0,0.0,0.0,
1.5967,2.8134790114233397,2.8134790114233397,2.67567003123056,0.0,0.0,0.0,2.767542684692413,0.0,0.0,0.0,0.0,0.0,0.0,0.0,0.0,0.0,0.0,0.0,0.0,0.0,0.0,
1.6128,2.814562645509043,2.814562645509043,2.6764571406408653,0.0,0.0,0.0,2.7685274772196506,0.0,0.0,0.0,0.0,0.0,0.0,0.0,0.0,0.0,0.0,0.0,0.0,0.0,0.0,
1.6289,2.8156592572556516,2.8156592572556516,2.677253239405875,0.0,0.0,0.0,2.7695239179723927,0.0,0.0,0.0,0.0,0.0,0.0,0.0,0.0,0.0,0.0,0.0,0.0,0.0,0.0,
1.6451,2.8167758507144462,2.8167758507144462,2.6780633921200323,0.0,0.0,0.0,2.7705383645163084,0.0,0.0,0.0,0.0,0.0,0.0,0.0,0.0,0.0,0.0,0.0,0.0,0.0,0.0,
1.6612,2.8178987131161306,2.8178987131161306,2.6788776331408832,0.0,0.0,0.0,2.7715583531243815,0.0,0.0,0.0,0.0,0.0,0.0,0.0,0.0,0.0,0.0,0.0,0.0,0.0,0.0,
1.6773,2.819034769528372,2.819034769528372,2.6797009719137845,0.0,0.0,0.0,2.7725901703235096,0.0,0.0,0.0,0.0,0.0,0.0,0.0,0.0,0.0,0.0,0.0,0.0,0.0,0.0,
1.6934,2.82018409422886,2.82018409422886,2.680533445522359,0.0,0.0,0.0,2.7736338779933596,0.0,0.0,0.0,0.0,0.0,0.0,0.0,0.0,0.0,0.0,0.0,0.0,0.0,0.0,
1.7096,2.8213540260763708,2.8213540260763708,2.68138034792886,0.0,0.0,0.0,2.774696133360534,0.0,0.0,0.0,0.0,0.0,0.0,0.0,0.0,0.0,0.0,0.0,0.0,0.0,0.0,
1.7257,2.822530198525231,2.822530198525231,2.682231261879063,0.0,0.0,0.0,2.7757638863098415,0.0,0.0,0.0,0.0,0.0,0.0,0.0,0.0,0.0,0.0,0.0,0.0,0.0,0.0,
1.7418,2.8237198697362516,2.8237198697362516,2.683091425307851,0.0,0.0,0.0,2.776843721593451,0.0,0.0,0.0,0.0,0.0,0.0,0.0,0.0,0.0,0.0,0.0,0.0,0.0,0.0,
1.758,2.824930635015118,2.824930635015118,2.6839663068539803,0.0,0.0,0.0,2.777942525628072,0.0,0.0,0.0,0.0,0.0,0.0,0.0,0.0,0.0,0.0,0.0,0.0,0.0,0.0,
1.7741,2.82614762742654,2.82614762742654,2.684845145469245,0.0,0.0,0.0,2.7790468001074413,0.0,0.0,0.0,0.0,0.0,0.0,0.0,0.0,0.0,0.0,0.0,0.0,0.0,0.0,
1.7902,2.8273783602210667,2.8273783602210667,2.68573335307362,0.0,0.0,0.0,2.780163357838584,0.0,0.0,0.0,0.0,0.0,0.0,0.0,0.0,0.0,0.0,0.0,0.0,0.0,0.0,
1.8063,2.8286229163294854,2.8286229163294854,2.6866309705287272,0.0,0.0,0.0,2.7812922677292327,0.0,0.0,0.0,0.0,0.0,0.0,0.0,0.0,0.0,0.0,0.0,0.0,0.0,0.0,
1.8225,2.8298892401731814,2.8298892401731814,2.687543702848118,0.0,0.0,0.0,2.782440727731494,0.0,0.0,0.0,0.0,0.0,0.0,0.0,0.0,0.0,0.0,0.0,0.0,0.0,0.0,
1.8386,2.8311617841398022,2.8311617841398022,2.6884603239452405,0.0,0.0,0.0,2.783594630741615,0.0,0.0,0.0,0.0,0.0,0.0,0.0,0.0,0.0,0.0,0.0,0.0,0.0,0.0,
1.8547,2.832448408687915,2.832448408687915,2.6893864811486483,0.0,0.0,0.0,2.7847610995081595,0.0,0.0,0.0,0.0,0.0,0.0,0.0,0.0,0.0,0.0,0.0,0.0,0.0,0.0,
1.8709,2.83375732603698,2.83375732603698,2.690328059667947,0.0,0.0,0.0,2.7859475705806354,0.0,0.0,0.0,0.0,0.0,0.0,0.0,0.0,0.0,0.0,0.0,0.0,0.0,0.0,
1.887,2.835072466867982,2.835072466867982,2.6912734790518,0.0,0.0,0.0,2.7871394709292545,0.0,0.0,0.0,0.0,0.0,0.0,0.0,0.0,0.0,0.0,0.0,0.0,0.0,0.0,
1.9031,2.8364019579282775,2.8364019579282775,2.6922285660649723,0.0,0.0,0.0,2.7883441606405093,0.0,0.0,0.0,0.0,0.0,0.0,0.0,0.0,0.0,0.0,0.0,0.0,0.0,0.0,
1.9192,2.8377458917593037,2.8377458917593037,2.6931933656575158,0.0,0.0,0.0,2.789561716392041,0.0,0.0,0.0,0.0,0.0,0.0,0.0,0.0,0.0,0.0,0.0,0.0,0.0,0.0,
1.9354,2.8391128456900208,2.8391128456900208,2.69417400713302,0.0,0.0,0.0,2.7907998995043535,0.0,0.0,0.0,0.0,0.0,0.0,0.0,0.0,0.0,0.0,0.0,0.0,0.0,0.0,
1.9515,2.8404860397251137,2.8404860397251137,2.6951584302267237,0.0,0.0,0.0,2.7920435032256505,0.0,0.0,0.0,0.0,0.0,0.0,0.0,0.0,0.0,0.0,0.0,0.0,0.0,0.0,
1.9676,2.841873963600807,2.841873963600807,2.696152704736483,0.0,0.0,0.0,2.793300210646032,0.0,0.0,0.0,0.0,0.0,0.0,0.0,0.0,0.0,0.0,0.0,0.0,0.0,0.0,
1.9837,2.843276715839445,2.843276715839445,2.697156878103705,0.0,0.0,0.0,2.794570103260865,0.0,0.0,0.0,0.0,0.0,0.0,0.0,0.0,0.0,0.0,0.0,0.0,0.0,0.0,
1.9999,2.844703248848278,2.844703248848278,2.6981773284790913,0.0,0.0,0.0,2.795861275391882,0.0,0.0,0.0,0.0,0.0,0.0,0.0,0.0,0.0,0.0,0.0,0.0,0.0,0.0,
2.016,2.846136053295509,2.846136053295509,2.6992015066954966,0.0,0.0,0.0,2.797157871095505,0.0,0.0,0.0,0.0,0.0,0.0,0.0,0.0,0.0,0.0,0.0,0.0,0.0,0.0,
2.0321,2.8475839917432264,2.8475839917432264,2.700235730279437,0.0,0.0,0.0,2.7984679045886303,0.0,0.0,0.0,0.0,0.0,0.0,0.0,0.0,0.0,0.0,0.0,0.0,0.0,0.0,
2.0483,2.8490563049928497,2.8490563049928497,2.7012865673940034,0.0,0.0,0.0,2.799799725793234,0.0,0.0,0.0,0.0,0.0,0.0,0.0,0.0,0.0,0.0,0.0,0.0,0.0,0.0,
2.0644,2.850534923455773,2.850534923455773,2.702341095736893,0.0,0.0,0.0,2.801136980882813,0.0,0.0,0.0,0.0,0.0,0.0,0.0,0.0,0.0,0.0,0.0,0.0,0.0,0.0,
2.0805,2.852028996306677,2.852028996306677,2.7034058219683574,0.0,0.0,0.0,2.8024879381939036,0.0,0.0,0.0,0.0,0.0,0.0,0.0,0.0,0.0,0.0,0.0,0.0,0.0,0.0,
2.0966,2.8535386335187933,2.8535386335187933,2.704480798195461,0.0,0.0,0.0,2.803852688411016,0.0,0.0,0.0,0.0,0.0,0.0,0.0,0.0,0.0,0.0,0.0,0.0,0.0,0.0,
