energies(eV),real_xx,real_yy,real_zz,real_xy,real_yz,real_xz,real_ave,imag_xx,imag_yy,imag_zz,imag_xy,imag_yz,imag_xz,imag_ave,absorption_xx,absorption_yy,absorption_zz,absorption_xy,absorption_yz,absorption_xz,absorption_ave,band_gap
0.0,4.901191979829807,4.901191979829807,4.556004728201823,0.0,0.0,0.0,4.78612956262048,0.0,0.0,0.0,0.0,0.0,0.0,0.0,0.0,0.0,0.0,0.0,0.0,0.0,0.0,3.3803
0.0137,4.9012099610848665,4.9012099610848665,4.5560179561905,0.0,0.0,0.0,4.786145959453411,0.0,0.0,0.0,0.0,0.0,0.0,0.0,0.0,0.0,0.0,0.0,0.0,0.0,0.0,
0.0274,4.901263906489285,4.901263906489285,4.5560576410192635,0.0,0.0,0.0,4.786195151332611,0.0,0.0,0.0,0.0,0.0,0.0,0.0,0.0,0.0,0.0,0.0,0.0,0.0,0.0,
0.0411,4.901353820961211,4.901353820961211,4.556123785276398,0.0,0.0,0.0,4.786277142399607,0.0,0.0,0.0,0.0,0.0,0.0,0.0,0.0,0.0,0.0,0.0,0.0,0.0,0.0,
0.0548,4.901479712699298,4.901479712699298,4.556216393276236,0.0,0.0,0.0,4.7863919395582775,0.0,0.0,0.0,0.0,0.0,0.0,0.0,0.0,0.0,0.0,0.0,0.0,0.0,0.0,
0.0685,4.9016415931849515,4.9016415931849515,4.556335471060154,0.0,0.0,0.0,4.786539552476686,0.0,0.0,0.0,0.0,0.0,0.0,0.0,0.0,0.0,0.0,0.0,0.0,0.0,0.0,
0.0822,4.901839477186055,4.901839477186055,4.556481026397646,0.0,0.0,0.0,4.7867199935899185,0.0,0.0,0.0,0.0,0.0,0.0,0.0,0.0,0.0,0.0,0.0,0.0,0.0,0.0,
0.0959,4.902073382761147,4.902073382761147,4.556653068787998,0.0,0.0,0.0,4.78693327810343,0.0,0.0,0.0,0.0,0.0,0.0,0.0,0.0,0.0,0.0,0.0,0.0,0.0,0.0,
0.1096,4.9023433312649765,4.9023433312649765,4.556851609462102,0.0,0.0,0.0,4.787179423997352,0.0,0.0,0.0,0.0,0.0,0.0,0.0,0.0,0.0,0.0,0.0,0.0,0.0,0.0,
0.1232,4.902646982922891,4.902646982922891,4.557074922585599,0.0,0.0,0.0,4.787456296143794,0.0,0.0,0.0,0.0,0.0,0.0,0.0,0.0,0.0,0.0,0.0,0.0,0.0,0.0,
0.1369,4.902988830985969,4.902988830985969,4.557326306780798,0.0,0.0,0.0,4.787767989584245,0.0,0.0,0.0,0.0,0.0,0.0,0.0,0.0,0.0,0.0,0.0,0.0,0.0,0.0,
0.1506,4.90336680564811,4.90336680564811,4.55760423324053,0.0,0.0,0.0,4.788112614845583,0.0,0.0,0.0,0.0,0.0,0.0,0.0,0.0,0.0,0.0,0.0,0.0,0.0,0.0,
0.1643,4.903780941498754,4.903780941498754,4.557908720135765,0.0,0.0,0.0,4.788490201044424,0.0,0.0,0.0,0.0,0.0,0.0,0.0,0.0,0.0,0.0,0.0,0.0,0.0,0.0,
0.178,4.904231276465664,4.904231276465664,4.558239787383928,0.0,0.0,0.0,4.788900780105085,0.0,0.0,0.0,0.0,0.0,0.0,0.0,0.0,0.0,0.0,0.0,0.0,0.0,0.0,
0.1917,4.904717851826295,4.904717851826295,4.558597456652948,0.0,0.0,0.0,4.789344386768512,0.0,0.0,0.0,0.0,0.0,0.0,0.0,0.0,0.0,0.0,0.0,0.0,0.0,0.0,
0.2054,4.905240712220329,4.905240712220329,4.558981751365599,0.0,0.0,0.0,4.789821058602086,0.0,0.0,0.0,0.0,0.0,0.0,0.0,0.0,0.0,0.0,0.0,0.0,0.0,0.0,
0.2191,4.90579990566326,4.90579990566326,4.559392696704295,0.0,0.0,0.0,4.790330836010272,0.0,0.0,0.0,0.0,0.0,0.0,0.0,0.0,0.0,0.0,0.0,0.0,0.0,0.0,
0.2328,4.906395483560848,4.906395483560848,4.559830319616173,0.0,0.0,0.0,4.7908737622459565,0.0,0.0,0.0,0.0,0.0,0.0,0.0,0.0,0.0,0.0,0.0,0.0,0.0,0.0,
0.2465,4.907027500724926,4.907027500724926,4.560294648818526,0.0,0.0,0.0,4.791449883422793,0.0,0.0,0.0,0.0,0.0,0.0,0.0,0.0,0.0,0.0,0.0,0.0,0.0,0.0,
0.2602,4.907696015389922,4.907696015389922,4.560785714804738,0.0,0.0,0.0,4.792059248528194,0.0,0.0,0.0,0.0,0.0,0.0,0.0,0.0,0.0,0.0,0.0,0.0,0.0,0.0,
0.2739,4.908401089230787,4.908401089230787,4.561303549850418,0.0,0.0,0.0,4.792701909437331,0.0,0.0,0.0,0.0,0.0,0.0,0.0,0.0,0.0,0.0,0.0,0.0,0.0,0.0,
0.2876,4.909142787381762,4.909142787381762,4.56184818801993,0.0,0.0,0.0,4.793377920927818,0.0,0.0,0.0,0.0,0.0,0.0,0.0,0.0,0.0,0.0,0.0,0.0,0.0,0.0,
0.3013,4.909921178456393,4.909921178456393,4.56241966517344,0.0,0.0,0.0,4.794087340695409,0.0,0.0,0.0,0.0,0.0,0.0,0.0,0.0,0.0,0.0,0.0,0.0,0.0,0.0,
0.315,4.9107363345686315,4.9107363345686315,4.563018018974203,0.0,0.0,0.0,4.794830229370489,0.0,0.0,0.0,0.0,0.0,0.0,0.0,0.0,0.0,0.0,0.0,0.0,0.0,0.0,
0.3287,4.911588331354986,4.911588331354986,4.563643288896271,0.0,0.0,0.0,4.795606650535414,0.0,0.0,0.0,0.0,0.0,0.0,0.0,0.0,0.0,0.0,0.0,0.0,0.0,0.0,
0.3424,4.912477247997936,4.912477247997936,4.564295516232553,0.0,0.0,0.0,4.796416670742809,0.0,0.0,0.0,0.0,0.0,0.0,0.0,0.0,0.0,0.0,0.0,0.0,0.0,0.0,
0.356,4.9133962744499,4.9133962744499,4.56496968830583,0.0,0.0,0.0,4.797254079068543,0.0,0.0,0.0,0.0,0.0,0.0,0.0,0.0,0.0,0.0,0.0,0.0,0.0,0.0,
0.3697,4.914359011617219,4.914359011617219,4.565675764088059,0.0,0.0,0.0,4.798131262440832,0.0,0.0,0.0,0.0,0.0,0.0,0.0,0.0,0.0,0.0,0.0,0.0,0.0,0.0,
0.3834,4.915358927045407,4.915358927045407,4.566408931815058,0.0,0.0,0.0,4.799042261968624,0.0,0.0,0.0,0.0,0.0,0.0,0.0,0.0,0.0,0.0,0.0,0.0,0.0,0.0,
0.3971,4.916396114331015,4.916396114331015,4.567169240130449,0.0,0.0,0.0,4.79998715626416,0.0,0.0,0.0,0.0,0.0,0.0,0.0,0.0,0.0,0.0,0.0,0.0,0.0,0.0,
0.4108,4.917470670750788,4.917470670750788,4.567956739543042,0.0,0.0,0.0,4.800966027014873,0.0,0.0,0.0,0.0,0.0,0.0,0.0,0.0,0.0,0.0,0.0,0.0,0.0,0.0,
0.4245,4.918582697292276,4.918582697292276,4.5687714824372065,0.0,0.0,0.0,4.801978959007253,0.0,0.0,0.0,0.0,0.0,0.0,0.0,0.0,0.0,0.0,0.0,0.0,0.0,0.0,
0.4382,4.919732298685712,4.919732298685712,4.5696135230839126,0.0,0.0,0.0,4.803026040151779,0.0,0.0,0.0,0.0,0.0,0.0,0.0,0.0,0.0,0.0,0.0,0.0,0.0,0.0,
0.4519,4.920919583437054,4.920919583437054,4.570482917651879,0.0,0.0,0.0,4.804107361508662,0.0,0.0,0.0,0.0,0.0,0.0,0.0,0.0,0.0,0.0,0.0,0.0,0.0,0.0,
0.4656,4.922144663862465,4.922144663862465,4.571379724219397,0.0,0.0,0.0,4.805223017314776,0.0,0.0,0.0,0.0,0.0,0.0,0.0,0.0,0.0,0.0,0.0,0.0,0.0,0.0,
0.4793,4.9234076561241,4.9234076561241,4.572304002786419,0.0,0.0,0.0,4.80637310501154,0.0,0.0,0.0,0.0,0.0,0.0,0.0,0.0,0.0,0.0,0.0,0.0,0.0,0.0,
0.493,4.924708680267255,4.924708680267255,4.573255815287206,0.0,0.0,0.0,4.807557725273905,0.0,0.0,0.0,0.0,0.0,0.0,0.0,0.0,0.0,0.0,0.0,0.0,0.0,0.0,
0.5067,4.926047860258896,4.926047860258896,4.574235225603257,0.0,0.0,0.0,4.808776982040349,0.0,0.0,0.0,0.0,0.0,0.0,0.0,0.0,0.0,0.0,0.0,0.0,0.0,0.0,
0.5204,4.927425324027556,4.927425324027556,4.5752422995768995,0.0,0.0,0.0,4.810030982544004,0.0,0.0,0.0,0.0,0.0,0.0,0.0,0.0,0.0,0.0,0.0,0.0,0.0,0.0,
0.5341,4.928841203504834,4.928841203504834,4.576277105025072,0.0,0.0,0.0,4.8113198373449135,0.0,0.0,0.0,0.0,0.0,0.0,0.0,0.0,0.0,0.0,0.0,0.0,0.0,0.0,
0.5478,4.93029563466818,4.93029563466818,4.577339711753821,0.0,0.0,0.0,4.812643660363394,0.0,0.0,0.0,0.0,0.0,0.0,0.0,0.0,0.0,0.0,0.0,0.0,0.0,0.0,
0.5615,4.93178875758529,4.93178875758529,4.578430191572993,0.0,0.0,0.0,4.814002568914524,0.0,0.0,0.0,0.0,0.0,0.0,0.0,0.0,0.0,0.0,0.0,0.0,0.0,0.0,
0.5751,4.9333093932214656,4.9333093932214656,4.579540353179998,0.0,0.0,0.0,4.815386379874309,0.0,0.0,0.0,0.0,0.0,0.0,0.0,0.0,0.0,0.0,0.0,0.0,0.0,0.0,
0.5888,4.934880051336416,4.934880051336416,4.580686597876701,0.0,0.0,0.0,4.8168155668498445,0.0,0.0,0.0,0.0,0.0,0.0,0.0,0.0,0.0,0.0,0.0,0.0,0.0,0.0,
0.6025,4.936489845287312,4.936489845287312,4.581860942696099,0.0,0.0,0.0,4.818280211090241,0.0,0.0,0.0,0.0,0.0,0.0,0.0,0.0,0.0,0.0,0.0,0.0,0.0,0.0,
0.6162,4.938138931946442,4.938138931946442,4.583063467606333,0.0,0.0,0.0,4.819780443833072,0.0,0.0,0.0,0.0,0.0,0.0,0.0,0.0,0.0,0.0,0.0,0.0,0.0,0.0,
0.6299,4.939827472521527,4.939827472521527,4.584294254660731,0.0,0.0,0.0,4.821316399901261,0.0,0.0,0.0,0.0,0.0,0.0,0.0,0.0,0.0,0.0,0.0,0.0,0.0,0.0,
0.6436,4.941555632609884,4.941555632609884,4.585553388015454,0.0,0.0,0.0,4.822888217745074,0.0,0.0,0.0,0.0,0.0,0.0,0.0,0.0,0.0,0.0,0.0,0.0,0.0,0.0,
0.6573,4.9433235822542265,4.9433235822542265,4.586840953947833,0.0,0.0,0.0,4.824496039485429,0.0,0.0,0.0,0.0,0.0,0.0,0.0,0.0,0.0,0.0,0.0,0.0,0.0,0.0,
0.671,4.945131496000433,4.945131496000433,4.5881570408751955,0.0,0.0,0.0,4.826140010958687,0.0,0.0,0.0,0.0,0.0,0.0,0.0,0.0,0.0,0.0,0.0,0.0,0.0,0.0,
0.6847,4.946979552956938,4.946979552956938,4.5895017393741995,0.0,0.0,0.0,4.827820281762691,0.0,0.0,0.0,0.0,0.0,0.0,0.0,0.0,0.0,0.0,0.0,0.0,0.0,0.0,
0.6984,4.948867936856155,4.948867936856155,4.5908751422006695,0.0,0.0,0.0,4.829537005304327,0.0,0.0,0.0,0.0,0.0,0.0,0.0,0.0,0.0,0.0,0.0,0.0,0.0,0.0,
0.7121,4.9507968361177905,4.9507968361177905,4.5922773443100775,0.0,0.0,0.0,4.831290338848553,0.0,0.0,0.0,0.0,0.0,0.0,0.0,0.0,0.0,0.0,0.0,0.0,0.0,0.0,
0.7258,4.952766443914223,4.952766443914223,4.593708442878516,0.0,0.0,0.0,4.833080443568988,0.0,0.0,0.0,0.0,0.0,0.0,0.0,0.0,0.0,0.0,0.0,0.0,0.0,0.0,
0.7395,4.954776958237678,4.954776958237678,4.595168537324222,0.0,0.0,0.0,4.834907484599859,0.0,0.0,0.0,0.0,0.0,0.0,0.0,0.0,0.0,0.0,0.0,0.0,0.0,0.0,
0.7532,4.956828581969802,4.956828581969802,4.596657729329845,0.0,0.0,0.0,4.836771631089817,0.0,0.0,0.0,0.0,0.0,0.0,0.0,0.0,0.0,0.0,0.0,0.0,0.0,0.0,
0.7669,4.958921522953132,4.958921522953132,4.598176122865038,0.0,0.0,0.0,4.8386730562571,0.0,0.0,0.0,0.0,0.0,0.0,0.0,0.0,0.0,0.0,0.0,0.0,0.0,0.0,
0.7806,4.961055994064825,4.961055994064825,4.599723824209942,0.0,0.0,0.0,4.840611937446531,0.0,0.0,0.0,0.0,0.0,0.0,0.0,0.0,0.0,0.0,0.0,0.0,0.0,0.0,
0.7943,4.963232213292782,4.963232213292782,4.601300941979003,0.0,0.0,0.0,4.84258845618819,0.0,0.0,0.0,0.0,0.0,0.0,0.0,0.0,0.0,0.0,0.0,0.0,0.0,0.0,
0.8079,4.965434060033823,4.965434060033823,4.602895752559797,0.0,0.0,0.0,4.844587957542481,0.0,0.0,0.0,0.0,0.0,0.0,0.0,0.0,0.0,0.0,0.0,0.0,0.0,0.0,
0.8216,4.967694141426733,4.967694141426733,4.604531821709495,0.0,0.0,0.0,4.84664003485432,0.0,0.0,0.0,0.0,0.0,0.0,0.0,0.0,0.0,0.0,0.0,0.0,0.0,0.0,
0.8353,4.969996654632572,4.969996654632572,4.606197646528488,0.0,0.0,0.0,4.848730318597878,0.0,0.0,0.0,0.0,0.0,0.0,0.0,0.0,0.0,0.0,0.0,0.0,0.0,0.0,
0.849,4.972341838849105,4.972341838849105,4.607893345203269,0.0,0.0,0.0,4.850859007633827,0.0,0.0,0.0,0.0,0.0,0.0,0.0,0.0,0.0,0.0,0.0,0.0,0.0,0.0,
0.8627,4.974729938800326,4.974729938800326,4.6096190383840465,0.0,0.0,0.0,4.853026305328233,0.0,0.0,0.0,0.0,0.0,0.0,0.0,0.0,0.0,0.0,0.0,0.0,0.0,0.0,
0.8764,4.977161204827177,4.977161204827177,4.611374849212574,0.0,0.0,0.0,4.855232419622309,0.0,0.0,0.0,0.0,0.0,0.0,0.0,0.0,0.0,0.0,0.0,0.0,0.0,0.0,
0.8901,4.9796358929811095,4.9796358929811095,4.613160903350844,0.0,0.0,0.0,4.8574775631043545,0.0,0.0,0.0,0.0,0.0,0.0,0.0,0.0,0.0,0.0,0.0,0.0,0.0,0.0,
0.9038,4.982154265120592,4.982154265120592,4.614977329010339,0.0,0.0,0.0,4.859761953083841,0.0,0.0,0.0,0.0,0.0,0.0,0.0,0.0,0.0,0.0,0.0,0.0,0.0,0.0,
0.9175,4.984716589010455,4.984716589010455,4.616824256982218,0.0,0.0,0.0,4.8620858116677095,0.0,0.0,0.0,0.0,0.0,0.0,0.0,0.0,0.0,0.0,0.0,0.0,0.0,0.0,
0.9312,4.987323138424149,4.987323138424149,4.618701820668129,0.0,0.0,0.0,4.8644493658388095,0.0,0.0,0.0,0.0,0.0,0.0,0.0,0.0,0.0,0.0,0.0,0.0,0.0,0.0,
0.9449,4.98997419324909,4.98997419324909,4.620610156111722,0.0,0.0,0.0,4.8668528475366335,0.0,0.0,0.0,0.0,0.0,0.0,0.0,0.0,0.0,0.0,0.0,0.0,0.0,0.0,
0.9586,4.99267003959522,4.99267003959522,4.622549402031137,0.0,0.0,0.0,4.869296493740525,0.0,0.0,0.0,0.0,0.0,0.0,0.0,0.0,0.0,0.0,0.0,0.0,0.0,0.0,
0.9723,4.995410969906837,4.995410969906837,4.624519699852184,0.0,0.0,0.0,4.871780546555286,0.0,0.0,0.0,0.0,0.0,0.0,0.0,0.0,0.0,0.0,0.0,0.0,0.0,0.0,
0.986,4.998197283077707,4.998197283077707,4.626521193742297,0.0,0.0,0.0,4.874305253299237,0.0,0.0,0.0,0.0,0.0,0.0,0.0,0.0,0.0,0.0,0.0,0.0,0.0,0.0,
0.9997,5.0010292845696815,5.0010292845696815,4.628554030645522,0.0,0.0,0.0,4.876870866594962,0.0,0.0,0.0,0.0,0.0,0.0,0.0,0.0,0.0,0.0,0.0,0.0,0.0,0.0,
1.0134,5.003907286534948,5.003907286534948,4.630618360317966,0.0,0.0,0.0,4.879477644462621,0.0,0.0,0.0,0.0,0.0,0.0,0.0,0.0,0.0,0.0,0.0,0.0,0.0,0.0,
1.0271,5.006831607941761,5.006831607941761,4.632714335364693,0.0,0.0,0.0,4.882125850416071,0.0,0.0,0.0,0.0,0.0,0.0,0.0,0.0,0.0,0.0,0.0,0.0,0.0,0.0,
1.0407,5.009780719022562,5.009780719022562,4.634826464472125,0.0,0.0,0.0,4.88479596750575,0.0,0.0,0.0,0.0,0.0,0.0,0.0,0.0,0.0,0.0,0.0,0.0,0.0,0.0,
1.0544,5.012798320002886,5.012798320002886,4.636985965805559,0.0,0.0,0.0,4.8875275352704435,0.0,0.0,0.0,0.0,0.0,0.0,0.0,0.0,0.0,0.0,0.0,0.0,0.0,0.0,
1.0681,5.015863237033311,5.015863237033311,4.639177586611831,0.0,0.0,0.0,4.890301353559484,0.0,0.0,0.0,0.0,0.0,0.0,0.0,0.0,0.0,0.0,0.0,0.0,0.0,0.0,
1.0818,5.018975817629018,5.018975817629018,4.641401491253292,0.0,0.0,0.0,4.893117708837109,0.0,0.0,0.0,0.0,0.0,0.0,0.0,0.0,0.0,0.0,0.0,0.0,0.0,0.0,
1.0955,5.022136416809191,5.022136416809191,4.643657847137579,0.0,0.0,0.0,4.8959768935853205,0.0,0.0,0.0,0.0,0.0,0.0,0.0,0.0,0.0,0.0,0.0,0.0,0.0,0.0,
1.1092,5.025345397247515,5.025345397247515,4.645946824759985,0.0,0.0,0.0,4.898879206418338,0.0,0.0,0.0,0.0,0.0,0.0,0.0,0.0,0.0,0.0,0.0,0.0,0.0,0.0,
1.1229,5.028603129427334,5.028603129427334,4.648268597746694,0.0,0.0,0.0,4.901824952200454,0.0,0.0,0.0,0.0,0.0,0.0,0.0,0.0,0.0,0.0,0.0,0.0,0.0,0.0,
1.1366,5.031909991801562,5.031909991801562,4.650623342899251,0.0,0.0,0.0,4.904814442167459,0.0,0.0,0.0,0.0,0.0,0.0,0.0,0.0,0.0,0.0,0.0,0.0,0.0,0.0,
1.1503,5.035266370957584,5.035266370957584,4.653011240239921,0.0,0.0,0.0,4.907847994051696,0.0,0.0,0.0,0.0,0.0,0.0,0.0,0.0,0.0,0.0,0.0,0.0,0.0,0.0,
1.164,5.038672661787113,5.038672661787113,4.655432473058366,0.0,0.0,0.0,4.910925932210865,0.0,0.0,0.0,0.0,0.0,0.0,0.0,0.0,0.0,0.0,0.0,0.0,0.0,0.0,
1.1777,5.042129267661518,5.042129267661518,4.657887227959302,0.0,0.0,0.0,4.914048587760779,0.0,0.0,0.0,0.0,0.0,0.0,0.0,0.0,0.0,0.0,0.0,0.0,0.0,0.0,
1.1914,5.045636600612307,5.045636600612307,4.660375694911294,0.0,0.0,0.0,4.91721629871197,0.0,0.0,0.0,0.0,0.0,0.0,0.0,0.0,0.0,0.0,0.0,0.0,0.0,0.0,
1.2051,5.049195081517493,5.049195081517493,4.6628980672969575,0.0,0.0,0.0,4.920429410110648,0.0,0.0,0.0,0.0,0.0,0.0,0.0,0.0,0.0,0.0,0.0,0.0,0.0,0.0,
1.2188,5.052805140293696,5.052805140293696,4.665454541964152,0.0,0.0,0.0,4.923688274183848,0.0,0.0,0.0,0.0,0.0,0.0,0.0,0.0,0.0,0.0,0.0,0.0,0.0,0.0,
1.2325,5.056467216094318,5.056467216094318,4.668045319278584,0.0,0.0,0.0,4.926993250489073,0.0,0.0,0.0,0.0,0.0,0.0,0.0,0.0,0.0,0.0,0.0,0.0,0.0,0.0,
1.2462,5.060181757513778,5.060181757513778,4.67067060317758,0.0,0.0,0.0,4.930344706068379,0.0,0.0,0.0,0.0,0.0,0.0,0.0,0.0,0.0,0.0,0.0,0.0,0.0,0.0,
1.2599,5.063949222798519,5.063949222798519,4.673330601225329,0.0,0.0,0.0,4.9337430156074555,0.0,0.0,0.0,0.0,0.0,0.0,0.0,0.0,0.0,0.0,0.0,0.0,0.0,0.0,
1.2735,5.067741996011896,5.067741996011896,4.6760057266455455,0.0,0.0,0.0,4.937163239556446,0.0,0.0,0.0,0.0,0.0,0.0,0.0,0.0,0.0,0.0,0.0,0.0,0.0,0.0,
1.2872,5.071616328498837,5.071616328498837,4.678735533187182,0.0,0.0,0.0,4.940656063394951,0.0,0.0,0.0,0.0,0.0,0.0,0.0,0.0,0.0,0.0,0.0,0.0,0.0,0.0,
1.3009,5.075545016108918,5.075545016108918,4.681500697292035,0.0,0.0,0.0,4.944196909836624,0.0,0.0,0.0,0.0,0.0,0.0,0.0,0.0,0.0,0.0,0.0,0.0,0.0,0.0,
1.3146,5.07952855786486,5.07952855786486,4.6843014415822735,0.0,0.0,0.0,4.947786185770664,0.0,0.0,0.0,0.0,0.0,0.0,0.0,0.0,0.0,0.0,0.0,0.0,0.0,0.0,
1.3283,5.083567463599409,5.083567463599409,4.687137992603278,0.0,0.0,0.0,4.951424306600699,0.0,0.0,0.0,0.0,0.0,0.0,0.0,0.0,0.0,0.0,0.0,0.0,0.0,0.0,
1.342,5.087662254210276,5.087662254210276,4.690010580887456,0.0,0.0,0.0,4.955111696436003,0.0,0.0,0.0,0.0,0.0,0.0,0.0,0.0,0.0,0.0,0.0,0.0,0.0,0.0,
1.3557,5.0918134619232545,5.0918134619232545,4.692919441019615,0.0,0.0,0.0,4.958848788288708,0.0,0.0,0.0,0.0,0.0,0.0,0.0,0.0,0.0,0.0,0.0,0.0,0.0,0.0,
1.3694,5.096021630564209,5.096021630564209,4.695864811704088,0.0,0.0,0.0,4.962636024277502,0.0,0.0,0.0,0.0,0.0,0.0,0.0,0.0,0.0,0.0,0.0,0.0,0.0,0.0,
1.3831,5.10028731583984,5.10028731583984,4.698846935833456,0.0,0.0,0.0,4.966473855837712,0.0,0.0,0.0,0.0,0.0,0.0,0.0,0.0,0.0,0.0,0.0,0.0,0.0,0.0,
1.3968,5.104611085627878,5.104611085627878,4.70186606055894,0.0,0.0,0.0,4.9703627439382325,0.0,0.0,0.0,0.0,0.0,0.0,0.0,0.0,0.0,0.0,0.0,0.0,0.0,0.0,
1.4105,5.1089935202769,5.1089935202769,4.704922437362667,0.0,0.0,0.0,4.974303159305489,0.0,0.0,0.0,0.0,0.0,0.0,0.0,0.0,0.0,0.0,0.0,0.0,0.0,0.0,
1.4242,5.1134352129162455,5.1134352129162455,4.7080163221316855,0.0,0.0,0.0,4.9782955826547255,0.0,0.0,0.0,0.0,0.0,0.0,0.0,0.0,0.0,0.0,0.0,0.0,0.0,0.0,
1.4379,5.1179367697763585,5.1179367697763585,4.7111479752339,0.0,0.0,0.0,4.982340504928872,0.0,0.0,0.0,0.0,0.0,0.0,0.0,0.0,0.0,0.0,0.0,0.0,0.0,0.0,
1.4516,5.122498810519939,5.122498810519939,4.714317661595853,0.0,0.0,0.0,4.986438427545244,0.0,0.0,0.0,0.0,0.0,0.0,0.0,0.0,0.0,0.0,0.0,0.0,0.0,0.0,
1.4653,5.127121968584507,5.127121968584507,4.717525650782562,0.0,0.0,0.0,4.990589862650525,0.0,0.0,0.0,0.0,0.0,0.0,0.0,0.0,0.0,0.0,0.0,0.0,0.0,0.0,
1.479,5.131806891536578,5.131806891536578,4.720772217079394,0.0,0.0,0.0,4.994795333384183,0.0,0.0,0.0,0.0,0.0,0.0,0.0,0.0,0.0,0.0,0.0,0.0,0.0,0.0,
1.4926,5.136519361456581,5.136519361456581,4.724033516933583,0.0,0.0,0.0,4.9990240799489145,0.0,0.0,0.0,0.0,0.0,0.0,0.0,0.0,0.0,0.0,0.0,0.0,0.0,0.0,
1.5063,5.141329352142797,5.141329352142797,4.72735779287421,0.0,0.0,0.0,5.003338832386602,0.0,0.0,0.0,0.0,0.0,0.0,0.0,0.0,0.0,0.0,0.0,0.0,0.0,0.0,
1.52,5.1462031338097205,5.1462031338097205,4.730721495825561,0.0,0.0,0.0,5.007709254481667,0.0,0.0,0.0,0.0,0.0,0.0,0.0,0.0,0.0,0.0,0.0,0.0,0.0,0.0,
1.5337,5.151141414218132,5.151141414218132,4.734124919778166,0.0,0.0,0.0,5.012135916071476,0.0,0.0,0.0,0.0,0.0,0.0,0.0,0.0,0.0,0.0,0.0,0.0,0.0,0.0,
1.5474,5.156144917219343,5.156144917219343,4.737568363883883,0.0,0.0,0.0,5.016619399440857,0.0,0.0,0.0,0.0,0.0,0.0,0.0,0.0,0.0,0.0,0.0,0.0,0.0,0.0,
1.5611,5.1612143831904085,5.1612143831904085,4.74105213255149,0.0,0.0,0.0,5.0211602996441025,0.0,0.0,0.0,0.0,0.0,0.0,0.0,0.0,0.0,0.0,0.0,0.0,0.0,0.0,
1.5748,5.166350569485156,5.166350569485156,4.744576535544371,0.0,0.0,0.0,5.025759224838228,0.0,0.0,0.0,0.0,0.0,0.0,0.0,0.0,0.0,0.0,0.0,0.0,0.0,0.0,
1.5885,5.1715542509011865,5.1715542509011865,4.748141888080974,0.0,0.0,0.0,5.030416796627782,0.0,0.0,0.0,0.0,0.0,0.0,0.0,0.0,0.0,0.0,0.0,0.0,0.0,0.0,
1.6022,5.17682622016387,5.17682622016387,4.751748510937796,0.0,0.0,0.0,5.035133650421845,0.0,0.0,0.0,0.0,0.0,0.0,0.0,0.0,0.0,0.0,0.0,0.0,0.0,0.0,
1.6159,5.182167288428101,5.182167288428101,4.75539673055514,0.0,0.0,0.0,5.0399104358037805,0.0,0.0,0.0,0.0,0.0,0.0,0.0,0.0,0.0,0.0,0.0,0.0,0.0,0.0,
1.6296,5.187578285798221,5.187578285798221,4.7590868791458085,0.0,0.0,0.0,5.044747816914083,0.0,0.0,0.0,0.0,0.0,0.0,0.0,0.0,0.0,0.0,0.0,0.0,0.0,0.0,
1.6433,5.193060061867309,5.193060061867309,4.762819294806431,0.0,0.0,0.0,5.049646472847016,0.0,0.0,0.0,0.0,0.0,0.0,0.0,0.0,0.0,0.0,0.0,0.0,0.0,0.0,
1.657,5.19861348627649,5.19861348627649,4.766594321631951,0.0,0.0,0.0,5.054607098061644,0.0,0.0,0.0,0.0,0.0,0.0,0.0,0.0,0.0,0.0,0.0,0.0,0.0,0.0,
1.6707,5.204239449295093,5.204239449295093,4.770412309833187,0.0,0.0,0.0,5.059630402807791,0.0,0.0,0.0,0.0,0.0,0.0,0.0,0.0,0.0,0.0,0.0,0.0,0.0,0.0,
1.6844,5.2099388624227485,5.2099388624227485,4.774273615857534,0.0,0.0,0.0,5.064717113567677,0.0,0.0,0.0,0.0,0.0,0.0,0.0,0.0,0.0,0.0,0.0,0.0,0.0,0.0,
1.6981,5.215712659014303,5.215712659014303,4.778178602512957,0.0,0.0,0.0,5.069867973513854,0.0,0.0,0.0,0.0,0.0,0.0,0.0,0.0,0.0,0.0,0.0,0.0,0.0,0.0,
1.7118,5.221561794928549,5.221561794928549,4.782127639095261,0.0,0.0,0.0,5.07508374298412,0.0,0.0,0.0,0.0,0.0,0.0,0.0,0.0,0.0,0.0,0.0,0.0,0.0,0.0,
1.7254,5.227443718811048,5.227443718811048,4.786091790286941,0.0,0.0,0.0,5.080326409303012,0.0,0.0,0.0,0.0,0.0,0.0,0.0,0.0,0.0,0.0,0.0,0.0,0.0,0.0,
1.7391,5.2334459262764605,5.2334459262764605,4.790129732747788,0.0,0.0,0.0,5.085673861766903,0.0,0.0,0.0,0.0,0.0,0.0,0.0,0.0,0.0,0.0,0.0,0.0,0.0,0.0,
1.7528,5.239526474942606,5.239526474942606,4.794212870408319,0.0,0.0,0.0,5.091088606764511,0.0,0.0,0.0,0.0,0.0,0.0,0.0,0.0,0.0,0.0,0.0,0.0,0.0,0.0,
1.7665,5.245686417500569,5.245686417500569,4.798341599809332,0.0,0.0,0.0,5.096571478270157,0.0,0.0,0.0,0.0,0.0,0.0,0.0,0.0,0.0,0.0,0.0,0.0,0.0,0.0,
1.7802,5.251926832781564,5.251926832781564,4.802516324669803,0.0,0.0,0.0,5.102123330077643,0.0,0.0,0.0,0.0,0.0,0.0,0.0,0.0,0.0,0.0,0.0,0.0,0.0,0.0,
1.7939,5.2582488265736,5.2582488265736,4.806737456037091,0.0,0.0,0.0,5.107745036394763,0.0,0.0,0.0,0.0,0.0,0.0,0.0,0.0,0.0,0.0,0.0,0.0,0.0,0.0,
1.8076,5.264653532471068,5.264653532471068,4.81100541244113,0.0,0.0,0.0,5.113437492461089,0.0,0.0,0.0,0.0,0.0,0.0,0.0,0.0,0.0,0.0,0.0,0.0,0.0,0.0,
