energies(eV),real_xx,real_yy,real_zz,real_xy,real_yz,real_xz,real_ave,imag_xx,imag_yy,imag_zz,imag_xy,imag_yz,imag_xz,imag_ave,absorption_xx,absorption_yy,absorption_zz,absorption_xy,absorption_yz,absorption_xz,absorption_ave,band_gap
0.0,3.6505321929398318,3.5234292674257777,3.6944176316237365,0.0,0.0,0.07099923452074808,3.622793030663115,0.0,0.0,0.0,0.0,0.0,0.0,0.0,0.0,0.0,0.0,0.0,0.0,0.0,0.0,5.0035
0.0136,3.6505392805909844,3.523435629995694,3.6944247787939757,0.0,0.0,0.07099950141715139,3.622799896460218,0.0,0.0,0.0,0.0,0.0,0.0,0.0,0.0,0.0,0.0,0.0,0.0,0.0,0.0,
0.0272,3.650560543859391,3.523454717971641,3.694446220617627,0.0,0.0,0.07100030212062088,3.6228204941495528,0.0,0.0,0.0,0.0,0.0,0.0,0.0,0.0,0.0,0.0,0.0,0.0,0.0,0.0,
0.0409,3.650596296783428,3.523486813214588,3.6944822737560647,0.0,0.0,0.07100164846410482,3.622855127918027,0.0,0.0,0.0,0.0,0.0,0.0,0.0,0.0,0.0,0.0,0.0,0.0,0.0,0.0,
0.0545,3.6506460190096877,3.5235314485221134,3.6945324134630186,0.0,0.0,0.07100352086480678,3.62290329366494,0.0,0.0,0.0,0.0,0.0,0.0,0.0,0.0,0.0,0.0,0.0,0.0,0.0,0.0,
0.0681,3.6507099215970022,3.5235888132450643,3.6945968525371056,0.0,0.0,0.07100592728735977,3.622965195793057,0.0,0.0,0.0,0.0,0.0,0.0,0.0,0.0,0.0,0.0,0.0,0.0,0.0,0.0,
0.0817,3.650788007385976,3.523658909784128,3.694675593800895,0.0,0.0,0.0710088678603747,3.623040836990333,0.0,0.0,0.0,0.0,0.0,0.0,0.0,0.0,0.0,0.0,0.0,0.0,0.0,0.0,
0.0953,3.650880279848166,3.523741741073297,3.694768640703785,0.0,0.0,0.07101234274103885,3.6231302205417495,0.0,0.0,0.0,0.0,0.0,0.0,0.0,0.0,0.0,0.0,0.0,0.0,0.0,0.0,
0.109,3.6509875784713817,3.523838060482764,3.6948768397169998,0.0,0.0,0.07101638357583859,3.6232341595570485,0.0,0.0,0.0,0.0,0.0,0.0,0.0,0.0,0.0,0.0,0.0,0.0,0.0,0.0,
0.1226,3.651108341618684,3.523946465917878,3.6949986160288897,0.0,0.0,0.07102093159031042,3.623351141188484,0.0,0.0,0.0,0.0,0.0,0.0,0.0,0.0,0.0,0.0,0.0,0.0,0.0,0.0,
0.1362,3.651243305686477,3.524067618143834,3.695134712136574,0.0,0.0,0.07102601455756971,3.623481878655628,0.0,0.0,0.0,0.0,0.0,0.0,0.0,0.0,0.0,0.0,0.0,0.0,0.0,0.0,
0.1498,3.651392476680256,3.5242015222358734,3.695285134007367,0.0,0.0,0.07103163274957834,3.6236263776411657,0.0,0.0,0.0,0.0,0.0,0.0,0.0,0.0,0.0,0.0,0.0,0.0,0.0,0.0,
0.1634,3.651555861239681,3.524348183804958,3.6954498882385796,0.0,0.0,0.07103778646702452,3.6237846444277397,0.0,0.0,0.0,0.0,0.0,0.0,0.0,0.0,0.0,0.0,0.0,0.0,0.0,0.0,
0.177,3.651733466639374,3.524507608998597,3.695628982058475,0.0,0.0,0.07104447603937374,3.6239566858988153,0.0,0.0,0.0,0.0,0.0,0.0,0.0,0.0,0.0,0.0,0.0,0.0,0.0,0.0,
0.1907,3.6519267640521895,3.5246811179573427,3.6958238988459633,0.0,0.0,0.07105175694249827,3.6241439269518323,0.0,0.0,0.0,0.0,0.0,0.0,0.0,0.0,0.0,0.0,0.0,0.0,0.0,0.0,
0.2043,3.652132940220516,3.5248661849728027,3.696031801647966,0.0,0.0,0.07105952327548642,3.624343642280428,0.0,0.0,0.0,0.0,0.0,0.0,0.0,0.0,0.0,0.0,0.0,0.0,0.0,0.0,
0.2179,3.652353362943047,3.525064037341189,3.696254069588343,0.0,0.0,0.07106782662808853,3.6245571566241934,0.0,0.0,0.0,0.0,0.0,0.0,0.0,0.0,0.0,0.0,0.0,0.0,0.0,0.0,
0.2315,3.652588042049591,3.525274683368232,3.69649071243406,0.0,0.0,0.07107666744560671,3.6247844792839614,0.0,0.0,0.0,0.0,0.0,0.0,0.0,0.0,0.0,0.0,0.0,0.0,0.0,0.0,
0.2451,3.6528369880107094,3.5254981319007292,3.6967417405886227,0.0,0.0,0.07108604620240164,3.6250256201666873,0.0,0.0,0.0,0.0,0.0,0.0,0.0,0.0,0.0,0.0,0.0,0.0,0.0,0.0,
0.2588,3.653102200316349,3.5257361770098155,3.6970091700896157,0.0,0.0,0.07109603831797562,3.62528251580526,0.0,0.0,0.0,0.0,0.0,0.0,0.0,0.0,0.0,0.0,0.0,0.0,0.0,0.0,
0.2724,3.6533798190847304,3.525985353579603,3.6972891086115456,0.0,0.0,0.0711064984580998,3.6255514270919598,0.0,0.0,0.0,0.0,0.0,0.0,0.0,0.0,0.0,0.0,0.0,0.0,0.0,0.0,
0.286,3.6536717400714114,3.526247362531978,3.6975834675790344,0.0,0.0,0.07111749813990371,3.6258341900608078,0.0,0.0,0.0,0.0,0.0,0.0,0.0,0.0,0.0,0.0,0.0,0.0,0.0,0.0,
0.2996,3.653977976329299,3.526522214893775,3.69789225996096,0.0,0.0,0.07112903795494412,3.6261308170613447,0.0,0.0,0.0,0.0,0.0,0.0,0.0,0.0,0.0,0.0,0.0,0.0,0.0,0.0,
0.3132,3.654298541559834,3.526809922239078,3.698215499370467,0.0,0.0,0.07114111852423437,3.62644132105646,0.0,0.0,0.0,0.0,0.0,0.0,0.0,0.0,0.0,0.0,0.0,0.0,0.0,0.0,
0.3269,3.6546359658350536,3.5271127544815646,3.6985557367540784,0.0,0.0,0.07115383531372504,3.626768152356899,0.0,0.0,0.0,0.0,0.0,0.0,0.0,0.0,0.0,0.0,0.0,0.0,0.0,0.0,
0.3405,3.6549853383517603,3.5274263034657127,3.698908020143758,0.0,0.0,0.07116700336133765,3.6271065539870775,0.0,0.0,0.0,0.0,0.0,0.0,0.0,0.0,0.0,0.0,0.0,0.0,0.0,0.0,
0.3541,3.655349084973041,3.527752745554156,3.699274795401301,0.0,0.0,0.07118071420922605,3.627458875309499,0.0,0.0,0.0,0.0,0.0,0.0,0.0,0.0,0.0,0.0,0.0,0.0,0.0,0.0,
0.3677,3.655727222018594,3.5280920945298946,3.699656078740569,0.0,0.0,0.0711949685974007,3.6278251317630192,0.0,0.0,0.0,0.0,0.0,0.0,0.0,0.0,0.0,0.0,0.0,0.0,0.0,0.0,
0.3813,3.6561197664667717,3.5284443647312584,3.700051887029707,0.0,0.0,0.0712097672958287,3.6282053394092455,0.0,0.0,0.0,0.0,0.0,0.0,0.0,0.0,0.0,0.0,0.0,0.0,0.0,0.0,
0.395,3.6565297818476004,3.5288123043414203,3.700465308980947,0.0,0.0,0.07122522594753174,3.6286024650566557,0.0,0.0,0.0,0.0,0.0,0.0,0.0,0.0,0.0,0.0,0.0,0.0,0.0,0.0,
0.4086,3.6569513009524406,3.5291905575308418,3.700890327534662,0.0,0.0,0.07124111971420197,3.629010728672648,0.0,0.0,0.0,0.0,0.0,0.0,0.0,0.0,0.0,0.0,0.0,0.0,0.0,0.0,
0.4222,3.6573872825118605,3.529581778431965,3.7013299257314616,0.0,0.0,0.0712575602883921,3.6294329955584295,0.0,0.0,0.0,0.0,0.0,0.0,0.0,0.0,0.0,0.0,0.0,0.0,0.0,0.0,
0.4358,3.6578377461673752,3.5299859836280136,3.701784123084455,0.0,0.0,0.07127454856132182,3.629869284293281,0.0,0.0,0.0,0.0,0.0,0.0,0.0,0.0,0.0,0.0,0.0,0.0,0.0,0.0,
0.4494,3.658302712231485,3.5304031902674495,3.7022529397730404,0.0,0.0,0.07129208545479103,3.630319614090658,0.0,0.0,0.0,0.0,0.0,0.0,0.0,0.0,0.0,0.0,0.0,0.0,0.0,0.0,
0.4631,3.65878578118901,3.5308366277527705,3.7027400057485047,0.0,0.0,0.07131030694780369,3.630787471563428,0.0,0.0,0.0,0.0,0.0,0.0,0.0,0.0,0.0,0.0,0.0,0.0,0.0,0.0,
0.4767,3.659279922736643,3.5312799869296025,3.703238232213598,0.0,0.0,0.0713289480226901,3.631266047293281,0.0,0.0,0.0,0.0,0.0,0.0,0.0,0.0,0.0,0.0,0.0,0.0,0.0,0.0,
0.4903,3.6597886318512343,3.5317364025504383,3.703751142743919,0.0,0.0,0.07134814067596877,3.6317587257151973,0.0,0.0,0.0,0.0,0.0,0.0,0.0,0.0,0.0,0.0,0.0,0.0,0.0,0.0,
0.5039,3.6603119315627892,3.532205894052086,3.7042787602173224,0.0,0.0,0.07136788595341648,3.6322655286107324,0.0,0.0,0.0,0.0,0.0,0.0,0.0,0.0,0.0,0.0,0.0,0.0,0.0,0.0,
0.5175,3.6608498455870815,3.5326884814484654,3.7048211081925886,0.0,0.0,0.07138818493212908,3.6327864784093786,0.0,0.0,0.0,0.0,0.0,0.0,0.0,0.0,0.0,0.0,0.0,0.0,0.0,0.0,
0.5311,3.6614023983288706,3.5331841853331785,3.705378210912412,0.0,0.0,0.07140903872068402,3.6333215981914875,0.0,0.0,0.0,0.0,0.0,0.0,0.0,0.0,0.0,0.0,0.0,0.0,0.0,0.0,
0.5448,3.6619738399660986,3.5336968170732064,3.7059543531241896,0.0,0.0,0.07143060794570671,3.6338750033878315,0.0,0.0,0.0,0.0,0.0,0.0,0.0,0.0,0.0,0.0,0.0,0.0,0.0,0.0,
0.5584,3.6625558542388266,3.5342189148903422,3.7065411497733316,0.0,0.0,0.07145257890736094,3.634438639634167,0.0,0.0,0.0,0.0,0.0,0.0,0.0,0.0,0.0,0.0,0.0,0.0,0.0,0.0,
0.572,3.663152584808384,3.5347541946486163,3.707142778229147,0.0,0.0,0.07147510820416043,3.635016519228716,0.0,0.0,0.0,0.0,0.0,0.0,0.0,0.0,0.0,0.0,0.0,0.0,0.0,0.0,
0.5856,3.6637640588750675,3.5353026792923856,3.70775926550965,0.0,0.0,0.07149819707257857,3.635608667892368,0.0,0.0,0.0,0.0,0.0,0.0,0.0,0.0,0.0,0.0,0.0,0.0,0.0,0.0,
0.5992,3.6643903043458246,3.5358643923599105,3.708390639334312,0.0,0.0,0.07152184678146148,3.6362151120133492,0.0,0.0,0.0,0.0,0.0,0.0,0.0,0.0,0.0,0.0,0.0,0.0,0.0,0.0,
0.6129,3.665036118292157,3.536443634816655,3.709041735560852,0.0,0.0,0.07154623874571846,3.6368404962232215,0.0,0.0,0.0,0.0,0.0,0.0,0.0,0.0,0.0,0.0,0.0,0.0,0.0,0.0,
0.6265,3.6656921022879794,3.53703197545776,3.709703078450294,0.0,0.0,0.07157101822076818,3.637475718732011,0.0,0.0,0.0,0.0,0.0,0.0,0.0,0.0,0.0,0.0,0.0,0.0,0.0,0.0,
0.6401,3.6663629459117897,3.537633618920562,3.710379395512074,0.0,0.0,0.07159636254920211,3.6381253201148085,0.0,0.0,0.0,0.0,0.0,0.0,0.0,0.0,0.0,0.0,0.0,0.0,0.0,0.0,
0.6537,3.6670486799423467,3.5382485911550723,3.711070717316074,0.0,0.0,0.07162227313159779,3.638789329471164,0.0,0.0,0.0,0.0,0.0,0.0,0.0,0.0,0.0,0.0,0.0,0.0,0.0,0.0,
0.6673,3.667749335885585,3.538876918721425,3.711777075153648,0.0,0.0,0.07164875140192886,3.6394677765868857,0.0,0.0,0.0,0.0,0.0,0.0,0.0,0.0,0.0,0.0,0.0,0.0,0.0,0.0,
0.681,3.668470263281727,3.5395233968805826,3.712503861529517,0.0,0.0,0.07167599981748994,3.640165840563942,0.0,0.0,0.0,0.0,0.0,0.0,0.0,0.0,0.0,0.0,0.0,0.0,0.0,0.0,
0.6946,3.669200970821733,3.5401786159591944,3.7132404993748915,0.0,0.0,0.07170362210197091,3.6408733620519396,0.0,0.0,0.0,0.0,0.0,0.0,0.0,0.0,0.0,0.0,0.0,0.0,0.0,0.0,
0.7082,3.669946699449725,3.540847273958106,3.713992271750209,0.0,0.0,0.07173181659035614,3.6415954150526804,0.0,0.0,0.0,0.0,0.0,0.0,0.0,0.0,0.0,0.0,0.0,0.0,0.0,0.0,
0.7218,3.670707483630528,3.5415293999188764,3.714759212883013,0.0,0.0,0.07176058485273323,3.642332032144139,0.0,0.0,0.0,0.0,0.0,0.0,0.0,0.0,0.0,0.0,0.0,0.0,0.0,0.0,
0.7354,3.671483358579269,3.5422250235117447,3.7155413577451495,0.0,0.0,0.07178992849375501,3.643083246612054,0.0,0.0,0.0,0.0,0.0,0.0,0.0,0.0,0.0,0.0,0.0,0.0,0.0,0.0,
0.7491,3.6722802325676054,3.542939439566092,3.7163446617069766,0.0,0.0,0.07182007129884888,3.6438547779468915,0.0,0.0,0.0,0.0,0.0,0.0,0.0,0.0,0.0,0.0,0.0,0.0,0.0,0.0,
0.7627,3.6730865093574283,3.5436622497822805,3.717157434405389,0.0,0.0,0.07185057491200575,3.6446353978483654,0.0,0.0,0.0,0.0,0.0,0.0,0.0,0.0,0.0,0.0,0.0,0.0,0.0,0.0,
0.7763,3.673907987390792,3.544398650688106,3.7179855205410344,0.0,0.0,0.07188165894037862,3.6454307195399775,0.0,0.0,0.0,0.0,0.0,0.0,0.0,0.0,0.0,0.0,0.0,0.0,0.0,0.0,
0.7899,3.6747447049403643,3.545148674513923,3.718828958118985,0.0,0.0,0.07191332512969865,3.646240779191091,0.0,0.0,0.0,0.0,0.0,0.0,0.0,0.0,0.0,0.0,0.0,0.0,0.0,0.0,
0.8035,3.675596701055195,3.5459123541396145,3.7196877859143855,0.0,0.0,0.0719455752615764,3.6470656137030653,0.0,0.0,0.0,0.0,0.0,0.0,0.0,0.0,0.0,0.0,0.0,0.0,0.0,0.0,
0.8172,3.676470449710724,3.546695489830065,3.720568529086001,0.0,0.0,0.07197865476810195,3.6479114895422633,0.0,0.0,0.0,0.0,0.0,0.0,0.0,0.0,0.0,0.0,0.0,0.0,0.0,0.0,
0.8308,3.677353236322977,3.5474866833520737,3.721458370651559,0.0,0.0,0.0720120826025035,3.6487660967755366,0.0,0.0,0.0,0.0,0.0,0.0,0.0,0.0,0.0,0.0,0.0,0.0,0.0,0.0,
0.8444,3.678251423669655,3.5482916355144876,3.722363723741144,0.0,0.0,0.07204609995644988,3.6496355943084287,0.0,0.0,0.0,0.0,0.0,0.0,0.0,0.0,0.0,0.0,0.0,0.0,0.0,0.0,
0.858,3.679165053968291,3.5491103818457037,3.723284630272243,0.0,0.0,0.07208070875821714,3.6505200220287457,0.0,0.0,0.0,0.0,0.0,0.0,0.0,0.0,0.0,0.0,0.0,0.0,0.0,0.0,
0.8716,3.680094170241937,3.5499429585470312,3.724221132961125,0.0,0.0,0.07211591097343618,3.6514194205833643,0.0,0.0,0.0,0.0,0.0,0.0,0.0,0.0,0.0,0.0,0.0,0.0,0.0,0.0,
0.8852,3.681038816325583,3.5507894024974895,3.725173275329114,0.0,0.0,0.07215170860540428,3.6523338313840625,0.0,0.0,0.0,0.0,0.0,0.0,0.0,0.0,0.0,0.0,0.0,0.0,0.0,0.0,
0.8989,3.682006155109888,3.5516561289438187,3.726148276276413,0.0,0.0,0.07218837352418478,3.6532701867767066,0.0,0.0,0.0,0.0,0.0,0.0,0.0,0.0,0.0,0.0,0.0,0.0,0.0,0.0,
0.9125,3.6829821106208427,3.5525305234325324,3.727131947642953,0.0,0.0,0.07222537256800055,3.6542148605654425,0.0,0.0,0.0,0.0,0.0,0.0,0.0,0.0,0.0,0.0,0.0,0.0,0.0,0.0,
0.9261,3.6839737327258657,3.553418900214825,3.7281313944871073,0.0,0.0,0.07226297328344336,3.6551746758092656,0.0,0.0,0.0,0.0,0.0,0.0,0.0,0.0,0.0,0.0,0.0,0.0,0.0,0.0,
0.9397,3.684981068578699,3.5543212989381106,3.7291466636204986,0.0,0.0,0.07230117782806476,3.6561496770457693,0.0,0.0,0.0,0.0,0.0,0.0,0.0,0.0,0.0,0.0,0.0,0.0,0.0,0.0,
0.9533,3.686004166178227,3.5552377599541654,3.7301778026925554,0.0,0.0,0.07233998839876221,3.657139909608316,0.0,0.0,0.0,0.0,0.0,0.0,0.0,0.0,0.0,0.0,0.0,0.0,0.0,0.0,
0.967,3.6870507720837726,3.5561752190447344,3.7312326182254467,0.0,0.0,0.07237969933483011,3.6581528697846513,0.0,0.0,0.0,0.0,0.0,0.0,0.0,0.0,0.0,0.0,0.0,0.0,0.0,0.0,
0.9806,3.6881056573960116,3.5571200327122368,3.732295761104411,0.0,0.0,0.07241973320537926,3.6591738170708865,0.0,0.0,0.0,0.0,0.0,0.0,0.0,0.0,0.0,0.0,0.0,0.0,0.0,0.0,
0.9942,3.6891764539696577,3.5580790343261928,3.7333749223401202,0.0,0.0,0.07246037994962468,3.660210136878657,0.0,0.0,0.0,0.0,0.0,0.0,0.0,0.0,0.0,0.0,0.0,0.0,0.0,0.0,
1.0078,3.690263213263226,3.5590522671188007,3.7344701530109647,0.0,0.0,0.07250164192583178,3.6612618777976635,0.0,0.0,0.0,0.0,0.0,0.0,0.0,0.0,0.0,0.0,0.0,0.0,0.0,0.0,
1.0214,3.6913659876175124,3.56003977505608,3.7355815050696126,0.0,0.0,0.07254352153349033,3.6623290892477347,0.0,0.0,0.0,0.0,0.0,0.0,0.0,0.0,0.0,0.0,0.0,0.0,0.0,0.0,
1.0351,3.6924931166900636,3.5610490223706917,3.7367173820190165,0.0,0.0,0.0725863360139256,3.6634198403599236,0.0,0.0,0.0,0.0,0.0,0.0,0.0,0.0,0.0,0.0,0.0,0.0,0.0,0.0,
1.0487,3.6936282005063035,3.562065321259428,3.7378612557715036,0.0,0.0,0.07262946283675673,3.664518259179079,0.0,0.0,0.0,0.0,0.0,0.0,0.0,0.0,0.0,0.0,0.0,0.0,0.0,0.0,
1.0623,3.6947794621862977,3.5630960319994496,3.739021412498556,0.0,0.0,0.07267321475958767,3.6656323022281008,0.0,0.0,0.0,0.0,0.0,0.0,0.0,0.0,0.0,0.0,0.0,0.0,0.0,0.0,
1.0759,3.6959469576866453,3.564141201561394,3.7401979077356287,0.0,0.0,0.07271759435117256,3.666762022327889,0.0,0.0,0.0,0.0,0.0,0.0,0.0,0.0,0.0,0.0,0.0,0.0,0.0,0.0,
1.0895,3.69713074388721,3.565200877682308,3.7413907979327865,0.0,0.0,0.0727626042235656,3.667907473167435,0.0,0.0,0.0,0.0,0.0,0.0,0.0,0.0,0.0,0.0,0.0,0.0,0.0,0.0,
1.1032,3.6983397638114353,3.566283061657716,3.742609093762928,0.0,0.0,0.07280858499219162,3.6690773064106934,0.0,0.0,0.0,0.0,0.0,0.0,0.0,0.0,0.0,0.0,0.0,0.0,0.0,0.0,
1.1168,3.6995564266499894,3.5673720047774062,3.743835068552006,0.0,0.0,0.07285486812166517,3.6702544999931335,0.0,0.0,0.0,0.0,0.0,0.0,0.0,0.0,0.0,0.0,0.0,0.0,0.0,0.0,
1.1304,3.7007895568979,3.5684756027064197,3.745077613664822,0.0,0.0,0.0729017896526836,3.671447591089714,0.0,0.0,0.0,0.0,0.0,0.0,0.0,0.0,0.0,0.0,0.0,0.0,0.0,0.0,
1.144,3.7020392152236656,3.569593906323679,3.7463367893044035,0.0,0.0,0.07294935237531572,3.6726566369505824,0.0,0.0,0.0,0.0,0.0,0.0,0.0,0.0,0.0,0.0,0.0,0.0,0.0,0.0,
1.1576,3.7033054632643245,3.570726967310412,3.7476126566330112,0.0,0.0,0.07299755912522325,3.673881695735916,0.0,0.0,0.0,0.0,0.0,0.0,0.0,0.0,0.0,0.0,0.0,0.0,0.0,0.0,
1.1712,3.7045883636350845,3.5718748381578256,3.748905277781656,0.0,0.0,0.07304641278415087,3.6751228265248557,0.0,0.0,0.0,0.0,0.0,0.0,0.0,0.0,0.0,0.0,0.0,0.0,0.0,0.0,
1.1849,3.705897598008242,3.573046176869228,3.750224406520648,0.0,0.0,0.07309628269073051,3.6763893937993726,0.0,0.0,0.0,0.0,0.0,0.0,0.0,0.0,0.0,0.0,0.0,0.0,0.0,0.0,
1.1985,3.7072141184744405,3.5742239380792027,3.7515508499906667,0.0,0.0,0.07314644381096659,3.6776629688481033,0.0,0.0,0.0,0.0,0.0,0.0,0.0,0.0,0.0,0.0,0.0,0.0,0.0,0.0,
1.2121,3.7085474855701754,3.5754166719691027,3.7528942400658054,0.0,0.0,0.07319726078935165,3.6789527992016944,0.0,0.0,0.0,0.0,0.0,0.0,0.0,0.0,0.0,0.0,0.0,0.0,0.0,0.0,
1.2257,3.7098977659305827,3.5766244343553644,3.7542546428577133,0.0,0.0,0.07324873669737055,3.6802589477145538,0.0,0.0,0.0,0.0,0.0,0.0,0.0,0.0,0.0,0.0,0.0,0.0,0.0,0.0,
1.2393,3.711265027219969,3.5778472819048743,3.7556321254970286,0.0,0.0,0.07330087465517629,3.6815814782072906,0.0,0.0,0.0,0.0,0.0,0.0,0.0,0.0,0.0,0.0,0.0,0.0,0.0,0.0,
1.253,3.7126595802148956,3.5790944312380164,3.757037074459657,0.0,0.0,0.07335406856238084,3.682930361970856,0.0,0.0,0.0,0.0,0.0,0.0,0.0,0.0,0.0,0.0,0.0,0.0,0.0,0.0,
1.2666,3.7140611366646574,3.5803477345501733,3.7584490491709257,0.0,0.0,0.07340754510467806,3.6842859734619187,0.0,0.0,0.0,0.0,0.0,0.0,0.0,0.0,0.0,0.0,0.0,0.0,0.0,0.0,
1.2802,3.715479883844832,3.5816162986539193,3.7598783118630945,0.0,0.0,0.07346169337899529,3.685658164787282,0.0,0.0,0.0,0.0,0.0,0.0,0.0,0.0,0.0,0.0,0.0,0.0,0.0,0.0,
1.2938,3.7169158936543254,3.5829001837113217,3.7613249338589307,0.0,0.0,0.07351651670612705,3.687047003741526,0.0,0.0,0.0,0.0,0.0,0.0,0.0,0.0,0.0,0.0,0.0,0.0,0.0,0.0,
1.3074,3.718369239077417,3.5841994507793755,3.7627889875555014,0.0,0.0,0.0735720184583915,3.6884525591374313,0.0,0.0,0.0,0.0,0.0,0.0,0.0,0.0,0.0,0.0,0.0,0.0,0.0,0.0,
1.3211,3.719850873234048,3.585523886164347,3.764281505265895,0.0,0.0,0.07362861770877205,3.6898854215547634,0.0,0.0,0.0,0.0,0.0,0.0,0.0,0.0,0.0,0.0,0.0,0.0,0.0,0.0,
1.3347,3.7213392420849845,3.5868542183074354,3.76578077345322,0.0,0.0,0.07368549168956888,3.6913247446152133,0.0,0.0,0.0,0.0,0.0,0.0,0.0,0.0,0.0,0.0,0.0,0.0,0.0,0.0,
1.3483,3.7228451727000293,3.5882001215689034,3.767297697657547,0.0,0.0,0.07374305455386856,3.6927809973088266,0.0,0.0,0.0,0.0,0.0,0.0,0.0,0.0,0.0,0.0,0.0,0.0,0.0,0.0,
1.3619,3.7243687425346677,3.58956166068799,3.7688323547010563,0.0,0.0,0.07380130988665609,3.694254252641238,0.0,0.0,0.0,0.0,0.0,0.0,0.0,0.0,0.0,0.0,0.0,0.0,0.0,0.0,
1.3755,3.7259100301916437,3.590938901347788,3.770384822541263,0.0,0.0,0.07386026132759091,3.6957445846935646,0.0,0.0,0.0,0.0,0.0,0.0,0.0,0.0,0.0,0.0,0.0,0.0,0.0,0.0,
1.3892,3.7274806454095035,3.592342211462007,3.7719667934856433,0.0,0.0,0.07392035378474918,3.697263216785718,0.0,0.0,0.0,0.0,0.0,0.0,0.0,0.0,0.0,0.0,0.0,0.0,0.0,0.0,
1.4028,3.729057740936953,3.5937511727720195,3.7735552538319332,0.0,0.0,0.07398071377023432,3.6987880558469683,0.0,0.0,0.0,0.0,0.0,0.0,0.0,0.0,0.0,0.0,0.0,0.0,0.0,0.0,
1.4164,3.7306527977195834,3.5951760389472054,3.775161766393264,0.0,0.0,0.07404178114584561,3.7003302010200176,0.0,0.0,0.0,0.0,0.0,0.0,0.0,0.0,0.0,0.0,0.0,0.0,0.0,0.0,
1.43,3.732265899091879,3.5966168795587325,3.7767864138090217,0.0,0.0,0.07410355977717212,3.7018897308198775,0.0,0.0,0.0,0.0,0.0,0.0,0.0,0.0,0.0,0.0,0.0,0.0,0.0,0.0,
1.4436,3.7338971296039434,3.598073765175309,3.7784292799211494,0.0,0.0,0.07416605358795364,3.703466724900134,0.0,0.0,0.0,0.0,0.0,0.0,0.0,0.0,0.0,0.0,0.0,0.0,0.0,0.0,
1.4573,3.7355587709848943,3.599557658140359,3.7801027322737757,0.0,0.0,0.07422973403548509,3.7050730537996763,0.0,0.0,0.0,0.0,0.0,0.0,0.0,0.0,0.0,0.0,0.0,0.0,0.0,0.0,
1.4709,3.73722665325972,3.601046968830548,3.781782427729716,0.0,0.0,0.07429367554548641,3.706685349939995,0.0,0.0,0.0,0.0,0.0,0.0,0.0,0.0,0.0,0.0,0.0,0.0,0.0,0.0,
1.4845,3.7389129264172554,3.602552542878077,3.7834806014151723,0.0,0.0,0.07435834439288297,3.7083153569035017,0.0,0.0,0.0,0.0,0.0,0.0,0.0,0.0,0.0,0.0,0.0,0.0,0.0,0.0,
1.4981,3.740617680026281,3.6040744549659567,3.7851973421367267,0.0,0.0,0.07442374474196922,3.7099631590429882,0.0,0.0,0.0,0.0,0.0,0.0,0.0,0.0,0.0,0.0,0.0,0.0,0.0,0.0,
1.5117,3.74234100494627,3.6056127808341185,3.786932739977577,0.0,0.0,0.07448988081902419,3.7116288419193224,0.0,0.0,0.0,0.0,0.0,0.0,0.0,0.0,0.0,0.0,0.0,0.0,0.0,0.0,
1.5253,3.7440829933432775,3.607167597291779,3.7886868863131635,0.0,0.0,0.07455675691311886,3.713312492316073,0.0,0.0,0.0,0.0,0.0,0.0,0.0,0.0,0.0,0.0,0.0,0.0,0.0,0.0,
1.539,3.745856755063826,3.6087505980878283,3.7904729805107054,0.0,0.0,0.07462487735392052,3.7150267778874535,0.0,0.0,0.0,0.0,0.0,0.0,0.0,0.0,0.0,0.0,0.0,0.0,0.0,0.0,
1.5526,3.747636491191279,3.6103387531968583,3.7922650427924616,0.0,0.0,0.07469325212694465,3.7167467623935333,0.0,0.0,0.0,0.0,0.0,0.0,0.0,0.0,0.0,0.0,0.0,0.0,0.0,0.0,
1.5662,3.749435176009293,3.6119436364611333,3.794076136316632,0.0,0.0,0.07476238020254655,3.7184849829290196,0.0,0.0,0.0,0.0,0.0,0.0,0.0,0.0,0.0,0.0,0.0,0.0,0.0,0.0,
1.5798,3.7512529070856124,3.613565329105698,3.7959063578008783,0.0,0.0,0.07483226612990229,3.7202415313307298,0.0,0.0,0.0,0.0,0.0,0.0,0.0,0.0,0.0,0.0,0.0,0.0,0.0,0.0,
1.5934,3.7530897833790378,3.615203913491276,3.7977558053383027,0.0,0.0,0.07490291452529542,3.722016500736206,0.0,0.0,0.0,0.0,0.0,0.0,0.0,0.0,0.0,0.0,0.0,0.0,0.0,0.0,
1.6071,3.754959624739618,3.6168717094380365,3.79963839121507,0.0,0.0,0.07497485804023538,3.723823241797575,0.0,0.0,0.0,0.0,0.0,0.0,0.0,0.0,0.0,0.0,0.0,0.0,0.0,0.0,
