energies(eV),real_xx,real_yy,real_zz,real_xy,real_yz,real_xz,real_ave,imag_xx,imag_yy,imag_zz,imag_xy,imag_yz,imag_xz,imag_ave,absorption_xx,absorption_yy,absorption_zz,absorption_xy,absorption_yz,absorption_xz,absorption_ave,band_gap
0.0,3.259287209458934,3.2428565660907323,3.2417996137016694,0.0,0.0,0.0,3.247981129750445,0.0,0.0,0.0,0.0,0.0,0.0,0.0,0.0,0.0,0.0,0.0,0.0,0.0,0.0,5.2364
0.0218,3.2592955957317034,3.242864696256028,3.2418076278784147,0.0,0.0,0.0,3.247989306622049,0.0,0.0,0.0,0.0,0.0,0.0,0.0,0.0,0.0,0.0,0.0,0.0,0.0,0.0,
0.0437,3.259320909144216,3.2428892366130566,3.2418318181374555,0.0,0.0,0.0,3.2480139879649097,0.0,0.0,0.0,0.0,0.0,0.0,0.0,0.0,0.0,0.0,0.0,0.0,0.0,0.0,
0.0655,3.2593629201388636,3.242929964579178,3.2418719650884307,0.0,0.0,0.0,3.2480549499354905,0.0,0.0,0.0,0.0,0.0,0.0,0.0,0.0,0.0,0.0,0.0,0.0,0.0,0.0,
0.0874,3.2594220168470467,3.242987256372454,3.2419284396107306,0.0,0.0,0.0,3.24811257094341,0.0,0.0,0.0,0.0,0.0,0.0,0.0,0.0,0.0,0.0,0.0,0.0,0.0,0.0,
0.1092,3.2594976633441934,3.243060592353306,3.242000729516964,0.0,0.0,0.0,3.2481863284048216,0.0,0.0,0.0,0.0,0.0,0.0,0.0,0.0,0.0,0.0,0.0,0.0,0.0,0.0,
0.1311,3.2595905585151366,3.2431506499525775,3.2420895026261154,0.0,0.0,0.0,3.2482769036979433,0.0,0.0,0.0,0.0,0.0,0.0,0.0,0.0,0.0,0.0,0.0,0.0,0.0,0.0,
0.1529,3.2596998599329026,3.2432566123453244,3.242193953825848,0.0,0.0,0.0,3.248383475368025,0.0,0.0,0.0,0.0,0.0,0.0,0.0,0.0,0.0,0.0,0.0,0.0,0.0,0.0,
0.1747,3.2598259602575106,3.243378860043963,3.242314458274538,0.0,0.0,0.0,3.248506426192004,0.0,0.0,0.0,0.0,0.0,0.0,0.0,0.0,0.0,0.0,0.0,0.0,0.0,0.0,
0.1966,3.259969561827063,3.243518073746948,3.2424516870507345,0.0,0.0,0.0,3.2486464408749156,0.0,0.0,0.0,0.0,0.0,0.0,0.0,0.0,0.0,0.0,0.0,0.0,0.0,0.0,
0.2184,3.2601293623883207,3.2436729907901305,3.2426043955903965,0.0,0.0,0.0,3.248802249589616,0.0,0.0,0.0,0.0,0.0,0.0,0.0,0.0,0.0,0.0,0.0,0.0,0.0,0.0,
0.2403,3.2603068383270704,3.2438450422130947,3.24277399464141,0.0,0.0,0.0,3.2489752917271915,0.0,0.0,0.0,0.0,0.0,0.0,0.0,0.0,0.0,0.0,0.0,0.0,0.0,0.0,
0.2621,3.2605003802094807,3.2440326675235704,3.2429589460747854,0.0,0.0,0.0,3.249163997935946,0.0,0.0,0.0,0.0,0.0,0.0,0.0,0.0,0.0,0.0,0.0,0.0,0.0,0.0,
0.284,3.2607117761667266,3.2442375999133275,3.243160958515593,0.0,0.0,0.0,3.2493701115318827,0.0,0.0,0.0,0.0,0.0,0.0,0.0,0.0,0.0,0.0,0.0,0.0,0.0,0.0,
0.3058,3.2609391091765794,3.2444579806754734,3.243378199884979,0.0,0.0,0.0,3.2495917632456774,0.0,0.0,0.0,0.0,0.0,0.0,0.0,0.0,0.0,0.0,0.0,0.0,0.0,0.0,
0.3277,3.2611844795826213,3.244695845596161,3.2436126771265257,0.0,0.0,0.0,3.2498310007684363,0.0,0.0,0.0,0.0,0.0,0.0,0.0,0.0,0.0,0.0,0.0,0.0,0.0,0.0,
0.3495,3.261445662287867,3.2449490372930168,3.243862263752582,0.0,0.0,0.0,3.2500856544444887,0.0,0.0,0.0,0.0,0.0,0.0,0.0,0.0,0.0,0.0,0.0,0.0,0.0,0.0,
0.3713,3.261723755748203,3.2452186202547377,3.2441280092708826,0.0,0.0,0.0,3.2503567950912746,0.0,0.0,0.0,0.0,0.0,0.0,0.0,0.0,0.0,0.0,0.0,0.0,0.0,0.0,
0.3932,3.2620201701745493,3.2455059611234227,3.2444112610718525,0.0,0.0,0.0,3.2506457974566083,0.0,0.0,0.0,0.0,0.0,0.0,0.0,0.0,0.0,0.0,0.0,0.0,0.0,0.0,
0.415,3.262332217627609,3.245808453818987,3.2447094503693914,0.0,0.0,0.0,3.250950040605329,0.0,0.0,0.0,0.0,0.0,0.0,0.0,0.0,0.0,0.0,0.0,0.0,0.0,0.0,
0.4369,3.2626627812057065,3.2461288927114196,3.2450253320017897,0.0,0.0,0.0,3.251272335306305,0.0,0.0,0.0,0.0,0.0,0.0,0.0,0.0,0.0,0.0,0.0,0.0,0.0,0.0,
0.4587,3.263008863334268,3.2464643715661863,3.2453560413011266,0.0,0.0,0.0,3.2516097587338604,0.0,0.0,0.0,0.0,0.0,0.0,0.0,0.0,0.0,0.0,0.0,0.0,0.0,0.0,
0.4806,3.263373661607542,3.246817989510053,3.2457046335828608,0.0,0.0,0.0,3.251965428233485,0.0,0.0,0.0,0.0,0.0,0.0,0.0,0.0,0.0,0.0,0.0,0.0,0.0,0.0,
0.5024,3.263753868051742,3.247186539430005,3.2460679475759067,0.0,0.0,0.0,3.252336118352551,0.0,0.0,0.0,0.0,0.0,0.0,0.0,0.0,0.0,0.0,0.0,0.0,0.0,0.0,
0.5242,3.2641511339313762,3.2475716214454784,3.246447560929796,0.0,0.0,0.0,3.2527234387688835,0.0,0.0,0.0,0.0,0.0,0.0,0.0,0.0,0.0,0.0,0.0,0.0,0.0,0.0,
0.5461,3.2645674250274856,3.247975140444326,3.2468453517866314,0.0,0.0,0.0,3.2531293057528146,0.0,0.0,0.0,0.0,0.0,0.0,0.0,0.0,0.0,0.0,0.0,0.0,0.0,0.0,
0.5679,3.2649989665153605,3.2483934368173637,3.247257712792588,0.0,0.0,0.0,3.2535500387084375,0.0,0.0,0.0,0.0,0.0,0.0,0.0,0.0,0.0,0.0,0.0,0.0,0.0,0.0,
0.5898,3.265449745729312,3.248830374888939,3.247688453762255,0.0,0.0,0.0,3.253989524793502,0.0,0.0,0.0,0.0,0.0,0.0,0.0,0.0,0.0,0.0,0.0,0.0,0.0,0.0,
0.6116,3.265915675182199,3.2492819920269786,3.2481336686017657,0.0,0.0,0.0,3.2544437786036475,0.0,0.0,0.0,0.0,0.0,0.0,0.0,0.0,0.0,0.0,0.0,0.0,0.0,0.0,
0.6335,3.2664010600175897,3.2497524604492702,3.2485974707360237,0.0,0.0,0.0,3.254916997067628,0.0,0.0,0.0,0.0,0.0,0.0,0.0,0.0,0.0,0.0,0.0,0.0,0.0,0.0,
0.6553,3.266901499036669,3.2502375135068426,3.2490756543403747,0.0,0.0,0.0,3.2554048889612957,0.0,0.0,0.0,0.0,0.0,0.0,0.0,0.0,0.0,0.0,0.0,0.0,0.0,0.0,
0.6771,3.2674192017212635,3.2507392920681717,3.249570330324355,0.0,0.0,0.0,3.25590960803793,0.0,0.0,0.0,0.0,0.0,0.0,0.0,0.0,0.0,0.0,0.0,0.0,0.0,0.0,
0.699,3.2679566958634667,3.2512602453620745,3.250083913676897,0.0,0.0,0.0,3.2564336183008127,0.0,0.0,0.0,0.0,0.0,0.0,0.0,0.0,0.0,0.0,0.0,0.0,0.0,0.0,
0.7208,3.2685091079089164,3.2517956490281077,3.2506117472922815,0.0,0.0,0.0,3.256972168076435,0.0,0.0,0.0,0.0,0.0,0.0,0.0,0.0,0.0,0.0,0.0,0.0,0.0,0.0,
0.7427,3.2690815423392103,3.2523504495670683,3.2511587081724564,0.0,0.0,0.0,3.2575302333595784,0.0,0.0,0.0,0.0,0.0,0.0,0.0,0.0,0.0,0.0,0.0,0.0,0.0,0.0,
0.7645,3.269668808900651,3.2529196157712925,3.2517198366588915,0.0,0.0,0.0,3.2581027537769454,0.0,0.0,0.0,0.0,0.0,0.0,0.0,0.0,0.0,0.0,0.0,0.0,0.0,0.0,
0.7864,3.2702763342610517,3.2535084061777586,3.25230031750476,0.0,0.0,0.0,3.258695019314523,0.0,0.0,0.0,0.0,0.0,0.0,0.0,0.0,0.0,0.0,0.0,0.0,0.0,0.0,
0.8082,3.2708986101227584,3.2541114814578966,3.2528948872283285,0.0,0.0,0.0,3.2593016596029947,0.0,0.0,0.0,0.0,0.0,0.0,0.0,0.0,0.0,0.0,0.0,0.0,0.0,0.0,
0.83,3.271538411478789,3.254731530130049,3.2535061969043255,0.0,0.0,0.0,3.259925379504388,0.0,0.0,0.0,0.0,0.0,0.0,0.0,0.0,0.0,0.0,0.0,0.0,0.0,0.0,
0.8519,3.272198836496773,3.255371553677256,3.2541372062883327,0.0,0.0,0.0,3.260569198820787,0.0,0.0,0.0,0.0,0.0,0.0,0.0,0.0,0.0,0.0,0.0,0.0,0.0,0.0,
0.8737,3.2728738974692955,3.2560257483777053,3.2547821939529586,0.0,0.0,0.0,3.2612272799333195,0.0,0.0,0.0,0.0,0.0,0.0,0.0,0.0,0.0,0.0,0.0,0.0,0.0,0.0,
0.8956,3.2735698327115177,3.2567001587001445,3.255447119877037,0.0,0.0,0.0,3.2619057037628996,0.0,0.0,0.0,0.0,0.0,0.0,0.0,0.0,0.0,0.0,0.0,0.0,0.0,0.0,
0.9174,3.274280332730445,3.2573886692584164,3.2561259552742747,0.0,0.0,0.0,3.262598319087712,0.0,0.0,0.0,0.0,0.0,0.0,0.0,0.0,0.0,0.0,0.0,0.0,0.0,0.0,
0.9393,3.27501196351355,3.2580976417481917,3.256824973067921,0.0,0.0,0.0,3.2633115261098875,0.0,0.0,0.0,0.0,0.0,0.0,0.0,0.0,0.0,0.0,0.0,0.0,0.0,0.0,
0.9611,3.27575809212901,3.25882064755348,3.2575378355499405,0.0,0.0,0.0,3.26403885841081,0.0,0.0,0.0,0.0,0.0,0.0,0.0,0.0,0.0,0.0,0.0,0.0,0.0,0.0,
0.983,3.2765256140162062,3.2595643672803085,3.2582711302732803,0.0,0.0,0.0,3.2647870371899317,0.0,0.0,0.0,0.0,0.0,0.0,0.0,0.0,0.0,0.0,0.0,0.0,0.0,0.0,
1.0048,3.2773075710600916,3.2603220574312117,3.2590182089589796,0.0,0.0,0.0,3.2655492791500946,0.0,0.0,0.0,0.0,0.0,0.0,0.0,0.0,0.0,0.0,0.0,0.0,0.0,0.0,
1.0266,3.2781074792811826,3.26109712383255,3.2597824303879377,0.0,0.0,0.0,3.266329011167224,0.0,0.0,0.0,0.0,0.0,0.0,0.0,0.0,0.0,0.0,0.0,0.0,0.0,0.0,
1.0485,3.278929185785583,3.2618932927605147,3.260567469510702,0.0,0.0,0.0,3.2671299826855997,0.0,0.0,0.0,0.0,0.0,0.0,0.0,0.0,0.0,0.0,0.0,0.0,0.0,0.0,
1.0703,3.2797652415860687,3.2627033454711825,3.261366209266499,0.0,0.0,0.0,3.2679449321079166,0.0,0.0,0.0,0.0,0.0,0.0,0.0,0.0,0.0,0.0,0.0,0.0,0.0,0.0,
1.0922,3.280623373793117,3.2635347674433914,3.262186031397645,0.0,0.0,0.0,3.268781390878051,0.0,0.0,0.0,0.0,0.0,0.0,0.0,0.0,0.0,0.0,0.0,0.0,0.0,0.0,
1.114,3.281495803469113,3.2643800205390576,3.2630195037639793,0.0,0.0,0.0,3.2696317759240503,0.0,0.0,0.0,0.0,0.0,0.0,0.0,0.0,0.0,0.0,0.0,0.0,0.0,0.0,
1.1359,3.2823905941760056,3.2652469157666877,3.2638743293698402,0.0,0.0,0.0,3.270503946437511,0.0,0.0,0.0,0.0,0.0,0.0,0.0,0.0,0.0,0.0,0.0,0.0,0.0,0.0,
1.1577,3.2832996349505947,3.266127593629964,3.2647427590322744,0.0,0.0,0.0,3.271389995870944,0.0,0.0,0.0,0.0,0.0,0.0,0.0,0.0,0.0,0.0,0.0,0.0,0.0,0.0,
1.1795,3.2842270315320414,3.2670260304941072,3.2656287146410015,0.0,0.0,0.0,3.272293925555717,0.0,0.0,0.0,0.0,0.0,0.0,0.0,0.0,0.0,0.0,0.0,0.0,0.0,0.0,
1.2014,3.285177228267301,3.2679465302877317,3.26653644138273,0.0,0.0,0.0,3.273220066645921,0.0,0.0,0.0,0.0,0.0,0.0,0.0,0.0,0.0,0.0,0.0,0.0,0.0,0.0,
1.2232,3.286141612433048,3.2688807479635043,3.267457710991637,0.0,0.0,0.0,3.2741600237960635,0.0,0.0,0.0,0.0,0.0,0.0,0.0,0.0,0.0,0.0,0.0,0.0,0.0,0.0,
1.2451,3.2871290983086245,3.269837317409841,3.2684010387166538,0.0,0.0,0.0,3.2751224848117064,0.0,0.0,0.0,0.0,0.0,0.0,0.0,0.0,0.0,0.0,0.0,0.0,0.0,0.0,
1.2669,3.288130735525389,3.270807566903593,3.2693578739302867,0.0,0.0,0.0,3.2760987254530893,0.0,0.0,0.0,0.0,0.0,0.0,0.0,0.0,0.0,0.0,0.0,0.0,0.0,0.0,
1.2888,3.2891557830767284,3.271800463672644,3.2703370609798568,0.0,0.0,0.0,3.2770977692430763,0.0,0.0,0.0,0.0,0.0,0.0,0.0,0.0,0.0,0.0,0.0,0.0,0.0,0.0,
1.3106,3.290194950520998,3.272807007021497,3.2713297245775235,0.0,0.0,0.0,3.2781105607066725,0.0,0.0,0.0,0.0,0.0,0.0,0.0,0.0,0.0,0.0,0.0,0.0,0.0,0.0,
1.3324,3.2912529474770675,3.2738317572340283,3.272340363162729,0.0,0.0,0.0,3.2791416892912744,0.0,0.0,0.0,0.0,0.0,0.0,0.0,0.0,0.0,0.0,0.0,0.0,0.0,0.0,
1.3543,3.2923348309812304,3.274879610484048,3.2733738068272267,0.0,0.0,0.0,3.2801960827641685,0.0,0.0,0.0,0.0,0.0,0.0,0.0,0.0,0.0,0.0,0.0,0.0,0.0,0.0,
1.3761,3.2934307960944915,3.2759410684758845,3.2744206891395127,0.0,0.0,0.0,3.281264184569963,0.0,0.0,0.0,0.0,0.0,0.0,0.0,0.0,0.0,0.0,0.0,0.0,0.0,0.0,
1.398,3.2945509748415303,3.2770259424021657,3.2754906878660406,0.0,0.0,0.0,3.2823558683699123,0.0,0.0,0.0,0.0,0.0,0.0,0.0,0.0,0.0,0.0,0.0,0.0,0.0,0.0,
1.4198,3.295685215678717,3.2781243988176185,3.276574105727294,0.0,0.0,0.0,3.283461240074543,0.0,0.0,0.0,0.0,0.0,0.0,0.0,0.0,0.0,0.0,0.0,0.0,0.0,0.0,
1.4417,3.296844004963308,3.279246591340323,3.277680958720849,0.0,0.0,0.0,3.2845905183414934,0.0,0.0,0.0,0.0,0.0,0.0,0.0,0.0,0.0,0.0,0.0,0.0,0.0,0.0,
1.4635,3.29801684174098,3.2803823487223034,3.278801216059524,0.0,0.0,0.0,3.285733468840936,0.0,0.0,0.0,0.0,0.0,0.0,0.0,0.0,0.0,0.0,0.0,0.0,0.0,0.0,
1.4854,3.29921456971499,3.281542169852478,3.2799452348355405,0.0,0.0,0.0,3.286900658134336,0.0,0.0,0.0,0.0,0.0,0.0,0.0,0.0,0.0,0.0,0.0,0.0,0.0,0.0,
1.5072,3.300426335600548,3.2827155429200388,3.281102647985772,0.0,0.0,0.0,3.2880815088354534,0.0,0.0,0.0,0.0,0.0,0.0,0.0,0.0,0.0,0.0,0.0,0.0,0.0,0.0,
1.529,3.301657650174238,3.2839078023223793,3.2822787187415154,0.0,0.0,0.0,3.289281390412711,0.0,0.0,0.0,0.0,0.0,0.0,0.0,0.0,0.0,0.0,0.0,0.0,0.0,0.0,
1.5509,3.3029143850111735,3.285124630985362,3.2834790546949284,0.0,0.0,0.0,3.2905060235638217,0.0,0.0,0.0,0.0,0.0,0.0,0.0,0.0,0.0,0.0,0.0,0.0,0.0,0.0,
1.5727,3.304185153011512,3.2863550012351794,3.284692779326108,0.0,0.0,0.0,3.2917443111909326,0.0,0.0,0.0,0.0,0.0,0.0,0.0,0.0,0.0,0.0,0.0,0.0,0.0,0.0,
1.5946,3.3054817048200147,3.2876102879440463,3.2859311153713855,0.0,0.0,0.0,3.293007702711815,0.0,0.0,0.0,0.0,0.0,0.0,0.0,0.0,0.0,0.0,0.0,0.0,0.0,0.0,
1.6164,3.3067922931959965,3.288879115494337,3.287182842625369,0.0,0.0,0.0,3.2942847504385675,0.0,0.0,0.0,0.0,0.0,0.0,0.0,0.0,0.0,0.0,0.0,0.0,0.0,0.0,
1.6383,3.308129037660138,3.290173214910694,3.2884595358856994,0.0,0.0,0.0,3.295587262818844,0.0,0.0,0.0,0.0,0.0,0.0,0.0,0.0,0.0,0.0,0.0,0.0,0.0,0.0,
1.6601,3.3094798274917867,3.29148085947719,3.289749628091851,0.0,0.0,0.0,3.2969034383536093,0.0,0.0,0.0,0.0,0.0,0.0,0.0,0.0,0.0,0.0,0.0,0.0,0.0,0.0,
1.6819,3.3108508190260286,3.2928080068447745,3.291058998669003,0.0,0.0,0.0,3.2982392748466025,0.0,0.0,0.0,0.0,0.0,0.0,0.0,0.0,0.0,0.0,0.0,0.0,0.0,0.0,
1.7038,3.3122485415536644,3.294160974665807,3.2923938829679336,0.0,0.0,0.0,3.2996011330624686,0.0,0.0,0.0,0.0,0.0,0.0,0.0,0.0,0.0,0.0,0.0,0.0,0.0,0.0,
1.7256,3.313660333019305,3.295527503810421,3.293742187840115,0.0,0.0,0.0,3.300976674889947,0.0,0.0,0.0,0.0,0.0,0.0,0.0,0.0,0.0,0.0,0.0,0.0,0.0,0.0,
1.7475,3.31509925071134,3.296920230367541,3.295116383070734,0.0,0.0,0.0,3.3023786213832054,0.0,0.0,0.0,0.0,0.0,0.0,0.0,0.0,0.0,0.0,0.0,0.0,0.0,0.0,
1.7693,3.3165522601894875,3.2983265356994504,3.296504020197184,0.0,0.0,0.0,3.303794272028707,0.0,0.0,0.0,0.0,0.0,0.0,0.0,0.0,0.0,0.0,0.0,0.0,0.0,0.0,
1.7912,3.3180328007934334,3.299759424471604,3.2979179336179754,0.0,0.0,0.0,3.3052367196276706,0.0,0.0,0.0,0.0,0.0,0.0,0.0,0.0,0.0,0.0,0.0,0.0,0.0,0.0,
1.813,3.319527461900886,3.301205914953917,3.2993453159468644,0.0,0.0,0.0,3.3066928976005556,0.0,0.0,0.0,0.0,0.0,0.0,0.0,0.0,0.0,0.0,0.0,0.0,0.0,0.0,
1.8348,3.321043068236529,3.3026726095696994,3.3007926845750055,0.0,0.0,0.0,3.308169454127078,0.0,0.0,0.0,0.0,0.0,0.0,0.0,0.0,0.0,0.0,0.0,0.0,0.0,0.0,
1.8567,3.322586831331239,3.304166483803221,3.302266926016472,0.0,0.0,0.0,3.309673413716977,0.0,0.0,0.0,0.0,0.0,0.0,0.0,0.0,0.0,0.0,0.0,0.0,0.0,0.0,
1.8785,3.3241447693045894,3.3056740047027167,3.3037546878573782,0.0,0.0,0.0,3.3111911539548946,0.0,0.0,0.0,0.0,0.0,0.0,0.0,0.0,0.0,0.0,0.0,0.0,0.0,0.0,
1.9004,3.325731294404686,3.307209115119031,3.305269732992802,0.0,0.0,0.0,3.312736714172173,0.0,0.0,0.0,0.0,0.0,0.0,0.0,0.0,0.0,0.0,0.0,0.0,0.0,0.0,
1.9222,3.327332038464386,3.308757909472959,3.306798340472016,0.0,0.0,0.0,3.3142960961364536,0.0,0.0,0.0,0.0,0.0,0.0,0.0,0.0,0.0,0.0,0.0,0.0,0.0,0.0,
1.9441,3.3289618107726175,3.3103347133129333,3.3083546521106717,0.0,0.0,0.0,3.315883725398741,0.0,0.0,0.0,0.0,0.0,0.0,0.0,0.0,0.0,0.0,0.0,0.0,0.0,0.0,
1.9659,3.330605852574545,3.311925244375502,3.3099245743261125,0.0,0.0,0.0,3.3174852237587196,0.0,0.0,0.0,0.0,0.0,0.0,0.0,0.0,0.0,0.0,0.0,0.0,0.0,0.0,
1.9878,3.3322793748447017,3.313544215279327,3.311522632293878,0.0,0.0,0.0,3.3191154074726357,0.0,0.0,0.0,0.0,0.0,0.0,0.0,0.0,0.0,0.0,0.0,0.0,0.0,0.0,
2.0096,3.333967223785996,3.3151769628761665,3.3131343555557042,0.0,0.0,0.0,3.320759514072622,0.0,0.0,0.0,0.0,0.0,0.0,0.0,0.0,0.0,0.0,0.0,0.0,0.0,0.0,
2.0314,3.3356771222927235,3.3168309551227497,3.3147671188377505,0.0,0.0,0.0,3.3224250654177414,0.0,0.0,0.0,0.0,0.0,0.0,0.0,0.0,0.0,0.0,0.0,0.0,0.0,0.0,
2.0533,3.337417200653744,3.318514052426596,3.316428685650992,0.0,0.0,0.0,3.3241199795771106,0.0,0.0,0.0,0.0,0.0,0.0,0.0,0.0,0.0,0.0,0.0,0.0,0.0,0.0,
2.0751,3.3391717042714943,3.3202110125570963,3.3181040123723484,0.0,0.0,0.0,3.325828909733646,0.0,0.0,0.0,0.0,0.0,0.0,0.0,0.0,0.0,0.0,0.0,0.0,0.0,0.0,
2.097,3.3409568693061997,3.3219375355307825,3.3198086026420963,0.0,0.0,0.0,3.3275676691596927,0.0,0.0,0.0,0.0,0.0,0.0,0.0,0.0,0.0,0.0,0.0,0.0,0.0,0.0,
2.1188,3.34275653428422,3.3236779870786988,3.3215270246775446,0.0,0.0,0.0,3.329320515346821,0.0,0.0,0.0,0.0,0.0,0.0,0.0,0.0,0.0,0.0,0.0,0.0,0.0,0.0,
2.1407,3.34458735467557,3.3254484708659553,3.3232751823491364,0.0,0.0,0.0,3.331103669296887,0.0,0.0,0.0,0.0,0.0,0.0,0.0,0.0,0.0,0.0,0.0,0.0,0.0,0.0,
2.1625,3.3464327571005104,3.3272329558467706,3.3250372509134634,0.0,0.0,0.0,3.332900987953581,0.0,0.0,0.0,0.0,0.0,0.0,0.0,0.0,0.0,0.0,0.0,0.0,0.0,0.0,
2.1843,3.348301197650826,3.3290396157193016,3.326821305086579,0.0,0.0,0.0,3.3347207061522357,0.0,0.0,0.0,0.0,0.0,0.0,0.0,0.0,0.0,0.0,0.0,0.0,0.0,0.0,
2.2062,3.3502015582599447,3.3308770339822864,3.328635826032484,0.0,0.0,0.0,3.3365714727582385,0.0,0.0,0.0,0.0,0.0,0.0,0.0,0.0,0.0,0.0,0.0,0.0,0.0,0.0,
2.228,3.352116638353602,3.3327285756436758,3.3304643906491243,0.0,0.0,0.0,3.3384365348821343,0.0,0.0,0.0,0.0,0.0,0.0,0.0,0.0,0.0,0.0,0.0,0.0,0.0,0.0,
2.2499,3.354064165470927,3.3346113758383353,3.3323239262072573,0.0,0.0,0.0,3.34033315583884,0.0,0.0,0.0,0.0,0.0,0.0,0.0,0.0,0.0,0.0,0.0,0.0,0.0,0.0,
2.2717,3.3560265137783514,3.3365083902250356,3.334197603884646,0.0,0.0,0.0,3.342244169296011,0.0,0.0,0.0,0.0,0.0,0.0,0.0,0.0,0.0,0.0,0.0,0.0,0.0,0.0,
2.2936,3.358021850084266,3.338437176336641,3.336102770338052,0.0,0.0,0.0,3.3441872655863194,0.0,0.0,0.0,0.0,0.0,0.0,0.0,0.0,0.0,0.0,0.0,0.0,0.0,0.0,
2.3154,3.360032117622576,3.3403802751443408,3.3380221855979406,0.0,0.0,0.0,3.3461448594549523,0.0,0.0,0.0,0.0,0.0,0.0,0.0,0.0,0.0,0.0,0.0,0.0,0.0,0.0,
2.3372,3.362066540512981,3.342346598782765,3.3399646578444706,0.0,0.0,0.0,3.3481259323800727,0.0,0.0,0.0,0.0,0.0,0.0,0.0,0.0,0.0,0.0,0.0,0.0,0.0,0.0,
2.3591,3.364134789584916,3.344345488786522,3.3419394217404146,0.0,0.0,0.0,3.3501399000372842,0.0,0.0,0.0,0.0,0.0,0.0,0.0,0.0,0.0,0.0,0.0,0.0,0.0,0.0,
2.3809,3.366218151107919,3.3463588541682543,3.34392861047799,0.0,0.0,0.0,3.352168538584721,0.0,0.0,0.0,0.0,0.0,0.0,0.0,0.0,0.0,0.0,0.0,0.0,0.0,0.0,
2.4028,3.368335917046371,3.348405333759893,3.345950645138881,0.0,0.0,0.0,3.354230631981715,0.0,0.0,0.0,0.0,0.0,0.0,0.0,0.0,0.0,0.0,0.0,0.0,0.0,0.0,
2.4246,3.370468927679978,3.3504664077267514,3.347987233345705,0.0,0.0,0.0,3.356307522917478,0.0,0.0,0.0,0.0,0.0,0.0,0.0,0.0,0.0,0.0,0.0,0.0,0.0,0.0,
2.4465,3.3726369368439566,3.352561158496045,3.350057237323237,0.0,0.0,0.0,3.35841844422108,0.0,0.0,0.0,0.0,0.0,0.0,0.0,0.0,0.0,0.0,0.0,0.0,0.0,0.0,
2.4683,3.3748203324312165,3.354670631374143,3.3521419329894173,0.0,0.0,0.0,3.360544298931592,0.0,0.0,0.0,0.0,0.0,0.0,0.0,0.0,0.0,0.0,0.0,0.0,0.0,0.0,
2.4901,3.377029146108557,3.356804513964479,3.354250900090432,0.0,0.0,0.0,3.3626948533878225,0.0,0.0,0.0,0.0,0.0,0.0,0.0,0.0,0.0,0.0,0.0,0.0,0.0,0.0,
2.512,3.379273879864812,3.3589729454110238,3.356394167594143,0.0,0.0,0.0,3.3648803309566593,0.0,0.0,0.0,0.0,0.0,0.0,0.0,0.0,0.0,0.0,0.0,0.0,0.0,0.0,
2.5338,3.381534231059514,3.3611563075149897,3.358552352383829,0.0,0.0,0.0,3.367080963652777,0.0,0.0,0.0,0.0,0.0,0.0,0.0,0.0,0.0,0.0,0.0,0.0,0.0,0.0,
2.5557,3.3838311388177154,3.3633748203484477,3.3607454490943574,0.0,0.0,0.0,3.36931713608684,0.0,0.0,0.0,0.0,0.0,0.0,0.0,0.0,0.0,0.0,0.0,0.0,0.0,0.0,
2.5775,3.38614383113043,3.365608414906198,3.3629536265943356,0.0,0.0,0.0,3.371568624210321,0.0,0.0,0.0,0.0,0.0,0.0,0.0,0.0,0.0,0.0,0.0,0.0,0.0,0.0,
2.5994,3.388493734608781,3.3678777788338556,3.365197345405369,0.0,0.0,0.0,3.3738562862826686,0.0,0.0,0.0,0.0,0.0,0.0,0.0,0.0,0.0,0.0,0.0,0.0,0.0,0.0,
2.6212,3.3908596006580822,3.3701623855472564,3.36745631943944,0.0,0.0,0.0,3.3761594352149267,0.0,0.0,0.0,0.0,0.0,0.0,0.0,0.0,0.0,0.0,0.0,0.0,0.0,0.0,
2.6431,3.3932633513113317,3.3724833976842716,3.3697514827892725,0.0,0.0,0.0,3.3784994105949586,0.0,0.0,0.0,0.0,0.0,0.0,0.0,0.0,0.0,0.0,0.0,0.0,0.0,0.0,
2.6649,3.3956832539162187,3.3748198240733265,3.3720620872167446,0.0,0.0,0.0,3.380855055068763,0.0,0.0,0.0,0.0,0.0,0.0,0.0,0.0,0.0,0.0,0.0,0.0,0.0,0.0,
2.6867,3.398130445286355,3.377182411871542,3.374398769218644,0.0,0.0,0.0,3.3832372087921807,0.0,0.0,0.0,0.0,0.0,0.0,0.0,0.0,0.0,0.0,0.0,0.0,0.0,0.0,
2.7086,3.4006165675903626,3.3795823925524484,3.3767726483899465,0.0,0.0,0.0,3.385657202844252,0.0,0.0,0.0,0.0,0.0,0.0,0.0,0.0,0.0,0.0,0.0,0.0,0.0,0.0,
2.7304,3.4031191480695475,3.381998064932906,3.379162269749909,0.0,0.0,0.0,3.3880931609174545,0.0,0.0,0.0,0.0,0.0,0.0,0.0,0.0,0.0,0.0,0.0,0.0,0.0,0.0,
2.7523,3.4056613833996554,3.3844518128186505,3.381589786335063,0.0,0.0,0.0,3.3905676608511226,0.0,0.0,0.0,0.0,0.0,0.0,0.0,0.0,0.0,0.0,0.0,0.0,0.0,0.0,
2.7741,3.4082202969127082,3.3869214518350366,3.3840332618704103,0.0,0.0,0.0,3.3930583368727185,0.0,0.0,0.0,0.0,0.0,0.0,0.0,0.0,0.0,0.0,0.0,0.0,0.0,0.0,
2.796,3.410819610876801,3.389429868939302,3.3865153522594817,0.0,0.0,0.0,3.3955882773585286,0.0,0.0,0.0,0.0,0.0,0.0,0.0,0.0,0.0,0.0,0.0,0.0,0.0,0.0,
2.8178,3.4134358362693358,3.3919543886577412,3.3890136317743713,0.0,0.0,0.0,3.398134618900483,0.0,0.0,0.0,0.0,0.0,0.0,0.0,0.0,0.0,0.0,0.0,0.0,0.0,0.0,
2.8396,3.4160810292662394,3.394506638001217,3.3915396169989163,0.0,0.0,0.0,3.4007090947554577,0.0,0.0,0.0,0.0,0.0,0.0,0.0,0.0,0.0,0.0,0.0,0.0,0.0,0.0,
