energies(eV),real_xx,real_yy,real_zz,real_xy,real_yz,real_xz,real_ave,imag_xx,imag_yy,imag_zz,imag_xy,imag_yz,imag_xz,imag_ave,absorption_xx,absorption_yy,absorption_zz,absorption_xy,absorption_yz,absorption_xz,absorption_ave,band_gap
0.0,1.9420163862102626,1.964839111528812,1.9516247016227424,0.0,0.0,0.0,1.9528267331206057,0.0,0.0,0.0,0.0,0.0,0.0,0.0,0.0,0.0,0.0,0.0,0.0,0.0,0.0,9.2766
0.0164,1.9420172752391494,1.964840031745636,1.9516255998668577,0.0,0.0,0.0,1.9528276356172143,0.0,0.0,0.0,0.0,0.0,0.0,0.0,0.0,0.0,0.0,0.0,0.0,0.0,0.0,
0.0327,1.9420199206875695,1.9648427699988313,1.951628272736537,0.0,0.0,0.0,1.9528303211409792,0.0,0.0,0.0,0.0,0.0,0.0,0.0,0.0,0.0,0.0,0.0,0.0,0.0,0.0,
0.0491,1.9420243550523075,1.9648473599253715,1.9516327530650779,0.0,0.0,0.0,1.952834822680919,0.0,0.0,0.0,0.0,0.0,0.0,0.0,0.0,0.0,0.0,0.0,0.0,0.0,0.0,
0.0655,1.9420305675870295,1.964853790402202,1.9516390299941808,0.0,0.0,0.0,1.952841129327804,0.0,0.0,0.0,0.0,0.0,0.0,0.0,0.0,0.0,0.0,0.0,0.0,0.0,0.0,
0.0818,1.9420385042662227,1.9648620055089014,1.951647048937541,0.0,0.0,0.0,1.952849186237555,0.0,0.0,0.0,0.0,0.0,0.0,0.0,0.0,0.0,0.0,0.0,0.0,0.0,0.0,
0.0982,1.9420482625843283,1.964872106160636,1.9516569083991162,0.0,0.0,0.0,1.9528590923813602,0.0,0.0,0.0,0.0,0.0,0.0,0.0,0.0,0.0,0.0,0.0,0.0,0.0,0.0,
0.1146,1.9420597994091073,1.9648840477126468,1.9516685647983398,0.0,0.0,0.0,1.9528708039733644,0.0,0.0,0.0,0.0,0.0,0.0,0.0,0.0,0.0,0.0,0.0,0.0,0.0,0.0,
0.1309,1.9420730283209562,1.9648977407142902,1.9516819308184206,0.0,0.0,0.0,1.9528842332845555,0.0,0.0,0.0,0.0,0.0,0.0,0.0,0.0,0.0,0.0,0.0,0.0,0.0,0.0,
0.1473,1.9420881118243285,1.9649133533717587,1.9516971706463557,0.0,0.0,0.0,1.9528995452808144,0.0,0.0,0.0,0.0,0.0,0.0,0.0,0.0,0.0,0.0,0.0,0.0,0.0,0.0,
0.1637,1.9421049743956762,1.9649308075129515,1.9517142079738736,0.0,0.0,0.0,1.952916663294167,0.0,0.0,0.0,0.0,0.0,0.0,0.0,0.0,0.0,0.0,0.0,0.0,0.0,0.0,
0.18,1.9421234972104204,1.9649499801457173,1.9517329227428357,0.0,0.0,0.0,1.952935466699658,0.0,0.0,0.0,0.0,0.0,0.0,0.0,0.0,0.0,0.0,0.0,0.0,0.0,0.0,
0.1964,1.942143907803588,1.9649711067886209,1.9517535448438434,0.0,0.0,0.0,1.9529561864786842,0.0,0.0,0.0,0.0,0.0,0.0,0.0,0.0,0.0,0.0,0.0,0.0,0.0,0.0,
0.2128,1.9421660982508455,1.964994075732384,1.9517759652314366,0.0,0.0,0.0,1.9529787130715555,0.0,0.0,0.0,0.0,0.0,0.0,0.0,0.0,0.0,0.0,0.0,0.0,0.0,0.0,
0.2291,1.9421899173076802,1.9650187304277946,1.9518000310911556,0.0,0.0,0.0,1.9530028929422103,0.0,0.0,0.0,0.0,0.0,0.0,0.0,0.0,0.0,0.0,0.0,0.0,0.0,0.0,
0.2455,1.942215657568519,1.9650453737357474,1.9518260380460337,0.0,0.0,0.0,1.9530290231167668,0.0,0.0,0.0,0.0,0.0,0.0,0.0,0.0,0.0,0.0,0.0,0.0,0.0,0.0,
0.2619,1.942243178694639,1.9650738603956732,1.9518538442998645,0.0,0.0,0.0,1.953056961130059,0.0,0.0,0.0,0.0,0.0,0.0,0.0,0.0,0.0,0.0,0.0,0.0,0.0,0.0,
0.2782,1.9422722970026145,1.9651040002815252,1.9518832642628046,0.0,0.0,0.0,1.953086520515648,0.0,0.0,0.0,0.0,0.0,0.0,0.0,0.0,0.0,0.0,0.0,0.0,0.0,0.0,
0.2946,1.9423033701832608,1.9651361636350273,1.9519146593274148,0.0,0.0,0.0,1.9531180643819013,0.0,0.0,0.0,0.0,0.0,0.0,0.0,0.0,0.0,0.0,0.0,0.0,0.0,0.0,
0.311,1.9423362254658825,1.9651701716259922,1.9519478549290645,0.0,0.0,0.0,1.9531514173403128,0.0,0.0,0.0,0.0,0.0,0.0,0.0,0.0,0.0,0.0,0.0,0.0,0.0,0.0,
0.3273,1.942370646704977,1.9652058005274888,1.951982632679372,0.0,0.0,0.0,1.9531863599706127,0.0,0.0,0.0,0.0,0.0,0.0,0.0,0.0,0.0,0.0,0.0,0.0,0.0,0.0,
0.3437,1.9424070567330958,1.9652434880091822,1.9520194197858096,0.0,0.0,0.0,1.9532233215093626,0.0,0.0,0.0,0.0,0.0,0.0,0.0,0.0,0.0,0.0,0.0,0.0,0.0,0.0,
0.3601,1.9424452503258114,1.965283021648676,1.952058008893546,0.0,0.0,0.0,1.9532620936226779,0.0,0.0,0.0,0.0,0.0,0.0,0.0,0.0,0.0,0.0,0.0,0.0,0.0,0.0,
0.3764,1.9424849788483503,1.9653241440898608,1.9520981487884415,0.0,0.0,0.0,1.953302423908884,0.0,0.0,0.0,0.0,0.0,0.0,0.0,0.0,0.0,0.0,0.0,0.0,0.0,0.0,
0.3928,1.9425267303285536,1.9653673604860336,1.9521403325464814,0.0,0.0,0.0,1.9533448077870228,0.0,0.0,0.0,0.0,0.0,0.0,0.0,0.0,0.0,0.0,0.0,0.0,0.0,0.0,
0.4092,1.9425702670624663,1.9654124247957534,1.9521843199968165,0.0,0.0,0.0,1.9533890039516788,0.0,0.0,0.0,0.0,0.0,0.0,0.0,0.0,0.0,0.0,0.0,0.0,0.0,0.0,
0.4255,1.9426153078947075,1.9654590460011738,1.952229827068161,0.0,0.0,0.0,1.9534347269880143,0.0,0.0,0.0,0.0,0.0,0.0,0.0,0.0,0.0,0.0,0.0,0.0,0.0,0.0,
0.4419,1.942662406110305,1.9655077968035448,1.9522774127669837,0.0,0.0,0.0,1.9534825385602776,0.0,0.0,0.0,0.0,0.0,0.0,0.0,0.0,0.0,0.0,0.0,0.0,0.0,0.0,
0.4583,1.9427112914958427,1.9655583975112627,1.952326804076443,0.0,0.0,0.0,1.9535321643611827,0.0,0.0,0.0,0.0,0.0,0.0,0.0,0.0,0.0,0.0,0.0,0.0,0.0,0.0,
0.4747,1.9427619647420706,1.965610848842326,1.9523780016880572,0.0,0.0,0.0,1.9535836050908177,0.0,0.0,0.0,0.0,0.0,0.0,0.0,0.0,0.0,0.0,0.0,0.0,0.0,0.0,
0.491,1.9428141012548217,1.9656648148156406,1.9524306776427474,0.0,0.0,0.0,1.9536365312377366,0.0,0.0,0.0,0.0,0.0,0.0,0.0,0.0,0.0,0.0,0.0,0.0,0.0,0.0,
0.5074,1.942868341483755,1.9657209583573212,1.9524854790099049,0.0,0.0,0.0,1.9536915929503271,0.0,0.0,0.0,0.0,0.0,0.0,0.0,0.0,0.0,0.0,0.0,0.0,0.0,0.0,
0.5238,1.9429243717937164,1.965778954830224,1.952542088901958,0.0,0.0,0.0,1.9537484718419662,0.0,0.0,0.0,0.0,0.0,0.0,0.0,0.0,0.0,0.0,0.0,0.0,0.0,0.0,
0.5401,1.942981834980761,1.9658384344988291,1.9526001464134324,0.0,0.0,0.0,1.953806805297674,0.0,0.0,0.0,0.0,0.0,0.0,0.0,0.0,0.0,0.0,0.0,0.0,0.0,0.0,
0.5565,1.943041436928576,1.9659001280210213,1.952660364721209,0.0,0.0,0.0,1.9538673098902688,0.0,0.0,0.0,0.0,0.0,0.0,0.0,0.0,0.0,0.0,0.0,0.0,0.0,0.0,
0.5729,1.9431028314066678,1.965963677020235,1.9527223940057714,0.0,0.0,0.0,1.9539296341442247,0.0,0.0,0.0,0.0,0.0,0.0,0.0,0.0,0.0,0.0,0.0,0.0,0.0,0.0,
0.5892,1.9431656285561978,1.9660286779596263,1.9527858403700487,0.0,0.0,0.0,1.953993382295291,0.0,0.0,0.0,0.0,0.0,0.0,0.0,0.0,0.0,0.0,0.0,0.0,0.0,0.0,
0.6056,1.943230599784627,1.9660959293221105,1.952851483188275,0.0,0.0,0.0,1.954059337431671,0.0,0.0,0.0,0.0,0.0,0.0,0.0,0.0,0.0,0.0,0.0,0.0,0.0,0.0,
0.622,1.9432973662224184,1.9661650389462906,1.9529189396652011,0.0,0.0,0.0,1.9541271149446366,0.0,0.0,0.0,0.0,0.0,0.0,0.0,0.0,0.0,0.0,0.0,0.0,0.0,0.0,
0.6383,1.9433655053065584,1.9662355694427598,1.9529877828628528,0.0,0.0,0.0,1.9541962858707238,0.0,0.0,0.0,0.0,0.0,0.0,0.0,0.0,0.0,0.0,0.0,0.0,0.0,0.0,
0.6547,1.9434358540664327,1.9663083872214888,1.9530588584510489,0.0,0.0,0.0,1.9542676999129902,0.0,0.0,0.0,0.0,0.0,0.0,0.0,0.0,0.0,0.0,0.0,0.0,0.0,0.0,
0.6711,1.9435080009455925,1.9663830662864767,1.9531317506109134,0.0,0.0,0.0,1.9543409392809943,0.0,0.0,0.0,0.0,0.0,0.0,0.0,0.0,0.0,0.0,0.0,0.0,0.0,0.0,
0.6874,1.943581490623385,1.9664591353401906,1.953205999310005,0.0,0.0,0.0,1.9544155417578601,0.0,0.0,0.0,0.0,0.0,0.0,0.0,0.0,0.0,0.0,0.0,0.0,0.0,0.0,
0.7038,1.943657225857726,1.9665375288304654,1.9532825166204693,0.0,0.0,0.0,1.9544924237695536,0.0,0.0,0.0,0.0,0.0,0.0,0.0,0.0,0.0,0.0,0.0,0.0,0.0,0.0,
0.7202,1.943734762353218,1.9666177868725927,1.9533608536476894,0.0,0.0,0.0,1.954571134291167,0.0,0.0,0.0,0.0,0.0,0.0,0.0,0.0,0.0,0.0,0.0,0.0,0.0,0.0,
0.7365,1.943813611973874,1.9666994042009702,1.953440517207032,0.0,0.0,0.0,1.9546511777939586,0.0,0.0,0.0,0.0,0.0,0.0,0.0,0.0,0.0,0.0,0.0,0.0,0.0,0.0,
0.7529,1.943894743321251,1.9667833834209134,1.9535224858881541,0.0,0.0,0.0,1.9547335375434394,0.0,0.0,0.0,0.0,0.0,0.0,0.0,0.0,0.0,0.0,0.0,0.0,0.0,0.0,
0.7693,1.9439776793047727,1.9668692307005617,1.9536062776644232,0.0,0.0,0.0,1.9548177292232527,0.0,0.0,0.0,0.0,0.0,0.0,0.0,0.0,0.0,0.0,0.0,0.0,0.0,0.0,
0.7856,1.9440618989111975,1.9669564067418783,1.953691366137024,0.0,0.0,0.0,1.9549032239300332,0.0,0.0,0.0,0.0,0.0,0.0,0.0,0.0,0.0,0.0,0.0,0.0,0.0,0.0,
0.802,1.9441484367093906,1.9670459824361815,1.95377879653692,0.0,0.0,0.0,1.954991071894164,0.0,0.0,0.0,0.0,0.0,0.0,0.0,0.0,0.0,0.0,0.0,0.0,0.0,0.0,
0.8184,1.9442367827531002,1.9671374299416136,1.9538680536448916,0.0,0.0,0.0,1.955080755446535,0.0,0.0,0.0,0.0,0.0,0.0,0.0,0.0,0.0,0.0,0.0,0.0,0.0,0.0,
0.8347,1.9443263830856987,1.9672301758589286,1.9539585777817288,0.0,0.0,0.0,1.9551717122421188,0.0,0.0,0.0,0.0,0.0,0.0,0.0,0.0,0.0,0.0,0.0,0.0,0.0,0.0,
0.8511,1.9444183383755607,1.9673253595028861,1.9540514809520602,0.0,0.0,0.0,1.955265059610169,0.0,0.0,0.0,0.0,0.0,0.0,0.0,0.0,0.0,0.0,0.0,0.0,0.0,0.0,
0.8675,1.9445121057560808,1.9674224189543676,1.9541462146793154,0.0,0.0,0.0,1.9553602464632547,0.0,0.0,0.0,0.0,0.0,0.0,0.0,0.0,0.0,0.0,0.0,0.0,0.0,0.0,
0.8838,1.944607098256776,1.9675207466397002,1.9542421859333667,0.0,0.0,0.0,1.955456676943281,0.0,0.0,0.0,0.0,0.0,0.0,0.0,0.0,0.0,0.0,0.0,0.0,0.0,0.0,
0.9002,1.9447044827864395,1.9676215504435097,1.9543405736335009,0.0,0.0,0.0,1.9555555356211503,0.0,0.0,0.0,0.0,0.0,0.0,0.0,0.0,0.0,0.0,0.0,0.0,0.0,0.0,
0.9166,1.9448036834891231,1.9677242342977128,1.954440795976764,0.0,0.0,0.0,1.9556562379211997,0.0,0.0,0.0,0.0,0.0,0.0,0.0,0.0,0.0,0.0,0.0,0.0,0.0,0.0,
0.9329,1.9449040803057493,1.9678281563765263,1.9545422265072796,0.0,0.0,0.0,1.9557581543965183,0.0,0.0,0.0,0.0,0.0,0.0,0.0,0.0,0.0,0.0,0.0,0.0,0.0,0.0,
0.9493,1.9450069065350761,1.9679345932898764,1.9546461112087117,0.0,0.0,0.0,1.9558625370112213,0.0,0.0,0.0,0.0,0.0,0.0,0.0,0.0,0.0,0.0,0.0,0.0,0.0,0.0,
0.9657,1.9451115532585415,1.968042914744566,1.9547518348783552,0.0,0.0,0.0,1.9559687676271542,0.0,0.0,0.0,0.0,0.0,0.0,0.0,0.0,0.0,0.0,0.0,0.0,0.0,0.0,
0.982,1.9452173672494164,1.9681524445805119,1.9548587375554407,0.0,0.0,0.0,1.956076183128456,0.0,0.0,0.0,0.0,0.0,0.0,0.0,0.0,0.0,0.0,0.0,0.0,0.0,0.0,
0.9984,1.9453256483547323,1.9682645282974787,1.9549681324464743,0.0,0.0,0.0,1.956186103032895,0.0,0.0,0.0,0.0,0.0,0.0,0.0,0.0,0.0,0.0,0.0,0.0,0.0,0.0,
1.0148,1.9454357545157286,1.9683785012965034,1.9550793708713115,0.0,0.0,0.0,1.9562978755611813,0.0,0.0,0.0,0.0,0.0,0.0,0.0,0.0,0.0,0.0,0.0,0.0,0.0,0.0,
1.0311,1.9455469992545578,1.9684936529964787,1.955191759280793,0.0,0.0,0.0,1.9564108038439432,0.0,0.0,0.0,0.0,0.0,0.0,0.0,0.0,0.0,0.0,0.0,0.0,0.0,0.0,
1.0475,1.9456607491336781,1.9686113979606974,1.9553066782714905,0.0,0.0,0.0,1.9565262751219554,0.0,0.0,0.0,0.0,0.0,0.0,0.0,0.0,0.0,0.0,0.0,0.0,0.0,0.0,
1.0639,1.9457763288721681,1.9687310371992561,1.955423445603858,0.0,0.0,0.0,1.9566436038917605,0.0,0.0,0.0,0.0,0.0,0.0,0.0,0.0,0.0,0.0,0.0,0.0,0.0,0.0,
1.0802,1.94589301865325,1.9688518256187435,1.95554133405237,0.0,0.0,0.0,1.9567620594414545,0.0,0.0,0.0,0.0,0.0,0.0,0.0,0.0,0.0,0.0,0.0,0.0,0.0,0.0,
1.0966,1.9460122519307963,1.9689752470288775,1.9556617917798715,0.0,0.0,0.0,1.9568830969131816,0.0,0.0,0.0,0.0,0.0,0.0,0.0,0.0,0.0,0.0,0.0,0.0,0.0,0.0,
1.113,1.9461333201153894,1.9691005679591014,1.9557841029009437,0.0,0.0,0.0,1.9570059969918117,0.0,0.0,0.0,0.0,0.0,0.0,0.0,0.0,0.0,0.0,0.0,0.0,0.0,0.0,
1.1293,1.94625546995907,1.9692270087078096,1.9559075064213973,0.0,0.0,0.0,1.9571299950294254,0.0,0.0,0.0,0.0,0.0,0.0,0.0,0.0,0.0,0.0,0.0,0.0,0.0,0.0,
1.1457,1.946380201992058,1.9693561225233425,1.9560335182554156,0.0,0.0,0.0,1.9572566142569385,0.0,0.0,0.0,0.0,0.0,0.0,0.0,0.0,0.0,0.0,0.0,0.0,0.0,0.0,
1.1621,1.9465067742257143,1.9694871413601738,1.9561613887808948,0.0,0.0,0.0,1.9573851014555945,0.0,0.0,0.0,0.0,0.0,0.0,0.0,0.0,0.0,0.0,0.0,0.0,0.0,0.0,
1.1784,1.9466343998841622,1.9696192508079768,1.9562903231381665,0.0,0.0,0.0,1.9575146579434353,0.0,0.0,0.0,0.0,0.0,0.0,0.0,0.0,0.0,0.0,0.0,0.0,0.0,0.0,
1.1948,1.9467646467679294,1.9697540737552939,1.9564219051868625,0.0,0.0,0.0,1.9576468752366953,0.0,0.0,0.0,0.0,0.0,0.0,0.0,0.0,0.0,0.0,0.0,0.0,0.0,0.0,
1.2112,1.946896739393964,1.9698908074826629,1.9565553514729106,0.0,0.0,0.0,1.9577809661165126,0.0,0.0,0.0,0.0,0.0,0.0,0.0,0.0,0.0,0.0,0.0,0.0,0.0,0.0,
1.2275,1.9470298573572242,1.9700286027658773,1.95668983316986,0.0,0.0,0.0,1.9579160977643204,0.0,0.0,0.0,0.0,0.0,0.0,0.0,0.0,0.0,0.0,0.0,0.0,0.0,0.0,
1.2439,1.947165635931627,1.9701691523446343,1.9568270022859733,0.0,0.0,0.0,1.9580539301874118,0.0,0.0,0.0,0.0,0.0,0.0,0.0,0.0,0.0,0.0,0.0,0.0,0.0,0.0,
1.2603,1.9473032660399996,1.9703116187219845,1.9569660414354553,0.0,0.0,0.0,1.9581936420658133,0.0,0.0,0.0,0.0,0.0,0.0,0.0,0.0,0.0,0.0,0.0,0.0,0.0,0.0,
1.2766,1.9474418935424103,1.970455117749903,1.9571060877192248,0.0,0.0,0.0,1.9583343663371793,0.0,0.0,0.0,0.0,0.0,0.0,0.0,0.0,0.0,0.0,0.0,0.0,0.0,0.0,
1.293,1.9475832213983306,1.970601412239771,1.9572488615065344,0.0,0.0,0.0,1.9584778317148785,0.0,0.0,0.0,0.0,0.0,0.0,0.0,0.0,0.0,0.0,0.0,0.0,0.0,0.0,
1.3094,1.9477264068322921,1.970749629808862,1.957393511375578,0.0,0.0,0.0,1.958623182672244,0.0,0.0,0.0,0.0,0.0,0.0,0.0,0.0,0.0,0.0,0.0,0.0,0.0,0.0,
1.3257,1.9478705618591172,1.9708988512706573,1.9575391402442146,0.0,0.0,0.0,1.9587695177913298,0.0,0.0,0.0,0.0,0.0,0.0,0.0,0.0,0.0,0.0,0.0,0.0,0.0,0.0,
1.3421,1.948017457345311,1.9710509097383624,1.9576875370643056,0.0,0.0,0.0,1.958918634715993,0.0,0.0,0.0,0.0,0.0,0.0,0.0,0.0,0.0,0.0,0.0,0.0,0.0,0.0,
1.3585,1.9481662167083185,1.9712048978304082,1.9578378162691648,0.0,0.0,0.0,1.9590696436026305,0.0,0.0,0.0,0.0,0.0,0.0,0.0,0.0,0.0,0.0,0.0,0.0,0.0,0.0,
1.3749,1.948316842109195,1.9713608177923119,1.9579899800212432,0.0,0.0,0.0,1.9592225466409168,0.0,0.0,0.0,0.0,0.0,0.0,0.0,0.0,0.0,0.0,0.0,0.0,0.0,0.0,
1.3912,1.9484684002330073,1.971517703508987,1.9581430854578812,0.0,0.0,0.0,1.9593763963999586,0.0,0.0,0.0,0.0,0.0,0.0,0.0,0.0,0.0,0.0,0.0,0.0,0.0,0.0,
1.4076,1.9486227528960087,1.9716774822521423,1.958299013382128,0.0,0.0,0.0,1.959533082843426,0.0,0.0,0.0,0.0,0.0,0.0,0.0,0.0,0.0,0.0,0.0,0.0,0.0,0.0,
1.424,1.9487789782392855,1.9718391997670999,1.9584568325001839,0.0,0.0,0.0,1.9596916701688565,0.0,0.0,0.0,0.0,0.0,0.0,0.0,0.0,0.0,0.0,0.0,0.0,0.0,0.0,
1.4403,1.9489361088270916,1.972001854613913,1.9586155654905353,0.0,0.0,0.0,1.9598511763105133,0.0,0.0,0.0,0.0,0.0,0.0,0.0,0.0,0.0,0.0,0.0,0.0,0.0,0.0,
1.4567,1.9490960749360768,1.9721674449410758,1.9587771622925512,0.0,0.0,0.0,1.9600135607232347,0.0,0.0,0.0,0.0,0.0,0.0,0.0,0.0,0.0,0.0,0.0,0.0,0.0,0.0,
1.4731,1.9492579206283789,1.972334981212587,1.9589406571954986,0.0,0.0,0.0,1.960177853012155,0.0,0.0,0.0,0.0,0.0,0.0,0.0,0.0,0.0,0.0,0.0,0.0,0.0,0.0,
1.4894,1.9494206442215019,1.972503426532775,1.9591050382930053,0.0,0.0,0.0,1.9603430363490941,0.0,0.0,0.0,0.0,0.0,0.0,0.0,0.0,0.0,0.0,0.0,0.0,0.0,0.0,
1.5058,1.949586244705431,1.9726748501897622,1.95927232491385,0.0,0.0,0.0,1.960511139936348,0.0,0.0,0.0,0.0,0.0,0.0,0.0,0.0,0.0,0.0,0.0,0.0,0.0,0.0,
1.5222,1.9497537319390776,1.9728482272370205,1.959441516805956,0.0,0.0,0.0,1.9606811586606847,0.0,0.0,0.0,0.0,0.0,0.0,0.0,0.0,0.0,0.0,0.0,0.0,0.0,0.0,
1.5385,1.9499220698624806,1.9730224851873774,1.959611567347332,0.0,0.0,0.0,1.9608520407990635,0.0,0.0,0.0,0.0,0.0,0.0,0.0,0.0,0.0,0.0,0.0,0.0,0.0,0.0,
1.5549,1.9500933264415554,1.9731997647413841,1.9597845655188837,0.0,0.0,0.0,1.9610258855672746,0.0,0.0,0.0,0.0,0.0,0.0,0.0,0.0,0.0,0.0,0.0,0.0,0.0,0.0,
1.5713,1.9502664772029221,1.9733790054079143,1.9599594763980694,0.0,0.0,0.0,1.9612016530029688,0.0,0.0,0.0,0.0,0.0,0.0,0.0,0.0,0.0,0.0,0.0,0.0,0.0,0.0,
1.5876,1.9504404515736333,1.9735590989674483,1.9601352185116494,0.0,0.0,0.0,1.9613782563509101,0.0,0.0,0.0,0.0,0.0,0.0,0.0,0.0,0.0,0.0,0.0,0.0,0.0,0.0,
1.604,1.9506173867679024,1.9737422578159523,1.9603139507651433,0.0,0.0,0.0,1.9615578651163326,0.0,0.0,0.0,0.0,0.0,0.0,0.0,0.0,0.0,0.0,0.0,0.0,0.0,0.0,
1.6204,1.9507962238461696,1.9739273857785793,1.9604946034315998,0.0,0.0,0.0,1.9617394043521161,0.0,0.0,0.0,0.0,0.0,0.0,0.0,0.0,0.0,0.0,0.0,0.0,0.0,0.0,
1.6367,1.9509758575820757,1.9741133387575882,1.9606760600460331,0.0,0.0,0.0,1.9619217521285657,0.0,0.0,0.0,0.0,0.0,0.0,0.0,0.0,0.0,0.0,0.0,0.0,0.0,0.0,
1.6531,1.9511584947203797,1.9743024011375354,1.960860549720942,0.0,0.0,0.0,1.9621071485262858,0.0,0.0,0.0,0.0,0.0,0.0,0.0,0.0,0.0,0.0,0.0,0.0,0.0,0.0,
1.6695,1.9513430417165927,1.974493440915733,1.9610469677861309,0.0,0.0,0.0,1.9622944834728189,0.0,0.0,0.0,0.0,0.0,0.0,0.0,0.0,0.0,0.0,0.0,0.0,0.0,0.0,
1.6858,1.9515283585456165,1.9746852779651847,1.9612341626394634,0.0,0.0,0.0,1.9624825997167548,0.0,0.0,0.0,0.0,0.0,0.0,0.0,0.0,0.0,0.0,0.0,0.0,0.0,0.0,
1.7022,1.951716721774918,1.9748802689626284,1.961424433892706,0.0,0.0,0.0,1.962673808210084,0.0,0.0,0.0,0.0,0.0,0.0,0.0,0.0,0.0,0.0,0.0,0.0,0.0,0.0,
1.7186,1.951907003111449,1.9750772459282366,1.9616166417887044,0.0,0.0,0.0,1.9628669636094633,0.0,0.0,0.0,0.0,0.0,0.0,0.0,0.0,0.0,0.0,0.0,0.0,0.0,0.0,
1.7349,1.9520980275810043,1.9752749925495916,1.9618095994377591,0.0,0.0,0.0,1.9630608731894519,0.0,0.0,0.0,0.0,0.0,0.0,0.0,0.0,0.0,0.0,0.0,0.0,0.0,0.0,
1.7513,1.9522921418760975,1.975475938109612,1.9620056772533103,0.0,0.0,0.0,1.9632579190796733,0.0,0.0,0.0,0.0,0.0,0.0,0.0,0.0,0.0,0.0,0.0,0.0,0.0,0.0,
1.7677,1.952488182806452,1.9756788784969541,1.962203700242553,0.0,0.0,0.0,1.9634569205153198,0.0,0.0,0.0,0.0,0.0,0.0,0.0,0.0,0.0,0.0,0.0,0.0,0.0,0.0,
1.784,1.952684940293389,1.9758825610523105,1.9624024460727347,0.0,0.0,0.0,1.9636566491394778,0.0,0.0,0.0,0.0,0.0,0.0,0.0,0.0,0.0,0.0,0.0,0.0,0.0,0.0,
1.8004,1.952884831466935,1.9760894879894308,1.9626043562715916,0.0,0.0,0.0,1.9638595585759857,0.0,0.0,0.0,0.0,0.0,0.0,0.0,0.0,0.0,0.0,0.0,0.0,0.0,0.0,
1.8168,1.9530866580859798,1.9762984189057997,1.962808220456934,0.0,0.0,0.0,1.9640644324829044,0.0,0.0,0.0,0.0,0.0,0.0,0.0,0.0,0.0,0.0,0.0,0.0,0.0,0.0,
1.8331,1.9532891748067982,1.9765080646284612,1.9630127806923983,0.0,0.0,0.0,1.9642700067092191,0.0,0.0,0.0,0.0,0.0,0.0,0.0,0.0,0.0,0.0,0.0,0.0,0.0,0.0,
1.8495,1.9534948695198397,1.9767210006373854,1.963220549942951,0.0,0.0,0.0,1.9644788067000587,0.0,0.0,0.0,0.0,0.0,0.0,0.0,0.0,0.0,0.0,0.0,0.0,0.0,0.0,
1.8659,1.953702508774359,1.9769359500739316,1.9634302822781888,0.0,0.0,0.0,1.9646895803754931,0.0,0.0,0.0,0.0,0.0,0.0,0.0,0.0,0.0,0.0,0.0,0.0,0.0,0.0,
1.8822,1.9539108117959159,1.9771515870793799,1.9636406839923772,0.0,0.0,0.0,1.9649010276225578,0.0,0.0,0.0,0.0,0.0,0.0,0.0,0.0,0.0,0.0,0.0,0.0,0.0,0.0,
1.8986,1.9541223375686942,1.9773705607461507,1.963854339821133,0.0,0.0,0.0,1.965115746045326,0.0,0.0,0.0,0.0,0.0,0.0,0.0,0.0,0.0,0.0,0.0,0.0,0.0,0.0,
1.915,1.9543358172684249,1.9775915575892196,1.964069968121867,0.0,0.0,0.0,1.965332447659837,0.0,0.0,0.0,0.0,0.0,0.0,0.0,0.0,0.0,0.0,0.0,0.0,0.0,0.0,
1.9313,1.9545499345189592,1.9778132148864838,1.9642862392484624,0.0,0.0,0.0,1.9655497962179684,0.0,0.0,0.0,0.0,0.0,0.0,0.0,0.0,0.0,0.0,0.0,0.0,0.0,0.0,
1.9477,1.9547673197422122,1.9780382557000915,1.9645058100512203,0.0,0.0,0.0,1.9657704618311744,0.0,0.0,0.0,0.0,0.0,0.0,0.0,0.0,0.0,0.0,0.0,0.0,0.0,0.0,
1.9641,1.9549866685711987,1.9782653297429174,1.9647273630061535,0.0,0.0,0.0,1.9659931204400898,0.0,0.0,0.0,0.0,0.0,0.0,0.0,0.0,0.0,0.0,0.0,0.0,0.0,0.0,
1.9804,1.955206628851831,1.9784930372463718,1.9649495323504578,0.0,0.0,0.0,1.966216399482887,0.0,0.0,0.0,0.0,0.0,0.0,0.0,0.0,0.0,0.0,0.0,0.0,0.0,0.0,
1.9968,1.9554299027984503,1.9787241756107532,1.9651750474038456,0.0,0.0,0.0,1.9664430419376828,0.0,0.0,0.0,0.0,0.0,0.0,0.0,0.0,0.0,0.0,0.0,0.0,0.0,0.0,
2.0132,1.955655150326932,1.9789573575656187,1.9654025545864817,0.0,0.0,0.0,1.9666716874930108,0.0,0.0,0.0,0.0,0.0,0.0,0.0,0.0,0.0,0.0,0.0,0.0,0.0,0.0,
2.0295,1.9558809833235589,1.979191146107235,1.9656306518371554,0.0,0.0,0.0,1.9669009270893163,0.0,0.0,0.0,0.0,0.0,0.0,0.0,0.0,0.0,0.0,0.0,0.0,0.0,0.0,
2.0459,1.95611017616071,1.9794284133537166,1.9658621413106632,0.0,0.0,0.0,1.9671335769416967,0.0,0.0,0.0,0.0,0.0,0.0,0.0,0.0,0.0,0.0,0.0,0.0,0.0,0.0,
2.0623,1.956341352857328,1.9796677348645688,1.9660956331914292,0.0,0.0,0.0,1.967368240304442,0.0,0.0,0.0,0.0,0.0,0.0,0.0,0.0,0.0,0.0,0.0,0.0,0.0,0.0,
2.0786,1.9565730891529247,1.979907636206526,1.9663296889327286,0.0,0.0,0.0,1.9676034714307267,0.0,0.0,0.0,0.0,0.0,0.0,0.0,0.0,0.0,0.0,0.0,0.0,0.0,0.0,
2.095,1.9568082319546103,1.9801510646067488,1.9665671839010699,0.0,0.0,0.0,1.9678421601541431,0.0,0.0,0.0,0.0,0.0,0.0,0.0,0.0,0.0,0.0,0.0,0.0,0.0,0.0,
2.1114,1.9570453691991316,1.980396558262243,1.9668066918599174,0.0,0.0,0.0,1.9680828731070974,0.0,0.0,0.0,0.0,0.0,0.0,0.0,0.0,0.0,0.0,0.0,0.0,0.0,0.0,
