energies(eV),real_xx,real_yy,real_zz,real_xy,real_yz,real_xz,real_ave,imag_xx,imag_yy,imag_zz,imag_xy,imag_yz,imag_xz,imag_ave,absorption_xx,absorption_yy,absorption_zz,absorption_xy,absorption_yz,absorption_xz,absorption_ave,band_gap
0.0,2.1995796493373025,2.1862362351073217,2.1803779536894967,0.0,0.0,-0.001059191986455052,2.18873127937804,0.0,0.0,0.0,0.0,0.0,0.0,0.0,0.0,0.0,0.0,0.0,0.0,0.0,0.0,9.8057
0.0169,2.1995809070698265,2.1862374719192537,2.180379155821098,0.0,0.0,-0.0010591902438883245,2.188732511603393,0.0,0.0,0.0,0.0,0.0,0.0,0.0,0.0,0.0,0.0,0.0,0.0,55.74644996279759,0.0,
0.0339,2.199584710100096,2.18624121169145,2.1803827907292552,0.0,0.0,-0.001059184974798218,2.1887362375069337,0.0,0.0,0.0,0.0,0.0,0.0,0.0,0.0,0.0,0.0,0.0,0.0,111.82248243693044,0.0,
0.0508,2.1995910137457324,2.1862474104844587,2.1803888157053186,0.0,0.0,-0.001059176240921578,2.1887424133118363,0.0,0.0,0.0,0.0,0.0,0.0,0.0,0.0,0.0,0.0,0.0,0.0,167.56810286560315,0.0,
0.0677,2.1995998330333153,2.186256083074473,2.180397245109017,0.0,0.0,-0.0010591640211563653,2.188751053738935,0.0,0.0,0.0,0.0,0.0,0.0,0.0,0.0,0.0,0.0,0.0,0.0,223.31289613398988,0.0,
0.0847,2.1996112426590546,2.186267302914567,2.1804081503307042,0.0,0.0,-0.0010591482116027145,2.188762231968109,0.0,0.0,0.0,0.0,0.0,0.0,0.0,0.0,0.0,0.0,0.0,0.0,279.38642744660876,0.0,
0.1016,2.1996251085695064,2.186280938180273,2.1804214032386082,0.0,0.0,-0.0010591289974978828,2.1887758166627957,0.0,0.0,0.0,0.0,0.0,0.0,0.0,0.0,0.0,0.0,0.0,0.0,335.1287314518048,0.0,
0.1186,2.1996415950769426,2.186297150449685,2.180437160875113,0.0,0.0,-0.0010591061505225519,2.18879196880058,0.0,0.0,0.0,0.0,0.0,0.0,0.0,0.0,0.0,0.0,0.0,0.0,391.1992013292494,0.0,
0.1355,2.199660508478904,2.186315749241191,2.1804552380946265,0.0,0.0,-0.0010590799383698765,2.1888104986049073,0.0,0.0,0.0,0.0,0.0,0.0,0.0,0.0,0.0,0.0,0.0,0.0,446.9379074744983,0.0,
0.1524,2.199681938604791,2.186336822888589,2.180475720747495,0.0,0.0,-0.0010590502357094769,2.1888314940802918,0.0,0.0,0.0,0.0,0.0,0.0,0.0,0.0,0.0,0.0,0.0,0.0,502.6744055246818,0.0,
0.1694,2.1997060349793394,2.186360518427733,2.1804987517385777,0.0,0.0,-0.0010590168343033537,2.1888551017152165,0.0,0.0,0.0,0.0,0.0,0.0,0.0,0.0,0.0,0.0,0.0,0.0,558.7381985795755,0.0,
0.1863,2.1997325144906776,2.186386557454468,2.1805240604635143,0.0,0.0,-0.0010589801255083138,2.18888104413622,0.0,0.0,0.0,0.0,0.0,0.0,0.0,0.0,0.0,0.0,0.0,0.0,614.4694349972968,0.0,
0.2032,2.1997615118473393,2.186415072434558,2.180551775664144,0.0,0.0,-0.0010589399214168155,2.1889094533153473,0.0,0.0,0.0,0.0,0.0,0.0,0.0,0.0,0.0,0.0,0.0,0.0,670.1976329342896,0.0,
0.2202,2.199793221479791,2.18644625456188,2.1805820831615925,0.0,0.0,-0.001058895951099844,2.1889405197344214,0.0,0.0,0.0,0.0,0.0,0.0,0.0,0.0,0.0,0.0,0.0,0.0,726.2522382521192,0.0,
0.2371,2.199827270827037,2.1864797374708456,2.1806146268557667,0.0,0.0,-0.001058848729747122,2.18897387838455,0.0,0.0,0.0,0.0,0.0,0.0,0.0,0.0,0.0,0.0,0.0,0.0,781.9735065900744,0.0,
0.2541,2.199864063377268,2.186515917934763,2.1806497923786043,0.0,0.0,-0.0010587976962304082,2.189009924563545,0.0,0.0,0.0,0.0,0.0,0.0,0.0,0.0,0.0,0.0,0.0,0.0,838.0205803053555,0.0,
0.271,2.199903166849718,2.186554370861667,2.1806871665504444,0.0,0.0,-0.0010587434484966803,2.189048234753943,0.0,0.0,0.0,0.0,0.0,0.0,0.0,0.0,0.0,0.0,0.0,0.0,893.7338029802016,0.0,
0.2879,2.199944790826413,2.1865953023441005,2.180726949669438,0.0,0.0,-0.0010586856941064945,2.189089014279984,0.0,0.0,0.0,0.0,0.0,0.0,0.0,0.0,0.0,0.0,0.0,0.0,949.4425969375242,0.0,
0.3049,2.199989204674471,2.1866389772645305,2.180769399171697,0.0,0.0,-0.0010586240573287223,2.1891325270368998,0.0,0.0,0.0,0.0,0.0,0.0,0.0,0.0,0.0,0.0,0.0,0.0,1005.4762791269068,0.0,
0.3218,2.200035886569774,2.1866848824773353,2.180814016294252,0.0,0.0,-0.001058559260344822,2.189178261780454,0.0,0.0,0.0,0.0,0.0,0.0,0.0,0.0,0.0,0.0,0.0,0.0,1061.1753494964537,0.0,
0.3387,2.200085091038445,2.1867332682706326,2.1808610442871728,0.0,0.0,-0.0010584909478589674,2.1892264678654167,0.0,0.0,0.0,0.0,0.0,0.0,0.0,0.0,0.0,0.0,0.0,0.0,1116.8691528194536,0.0,
0.3557,2.2001371324408536,2.1867844437705317,2.1809107835841224,0.0,0.0,-0.0010584186810733613,2.1892774532651695,0.0,0.0,0.0,0.0,0.0,0.0,0.0,0.0,0.0,0.0,0.0,0.0,1172.886908549028,0.0,
0.3726,2.2001913993361875,2.1868378077060124,2.180962649770695,0.0,0.0,-0.0010583433067165363,2.189330618937632,0.0,0.0,0.0,0.0,0.0,0.0,0.0,0.0,0.0,0.0,0.0,0.0,1228.5693025971834,0.0,
0.3896,2.200248534793814,2.1868939924421937,2.181017257444986,0.0,0.0,-0.001058263929115316,2.1893865948936644,0.0,0.0,0.0,0.0,0.0,0.0,0.0,0.0,0.0,0.0,0.0,0.0,1284.5750137914672,0.0,
0.4065,2.2003078675226266,2.1869523378539153,2.1810739649916826,0.0,0.0,-0.0010581814783120857,2.189444723456075,0.0,0.0,0.0,0.0,0.0,0.0,0.0,0.0,0.0,0.0,0.0,0.0,1340.2448686801247,0.0,
0.4234,2.2003697270683977,2.187013167999112,2.1811330873529373,0.0,0.0,-0.0010580954938510325,2.189505327473482,0.0,0.0,0.0,0.0,0.0,0.0,0.0,0.0,0.0,0.0,0.0,0.0,1395.9080490691272,0.0,
0.4404,2.200434502911924,2.187076865872324,2.1811949967482085,0.0,0.0,-0.001058005431342606,2.189568788510819,0.0,0.0,0.0,0.0,0.0,0.0,0.0,0.0,0.0,0.0,0.0,0.0,1451.8935779554781,0.0,
0.4573,2.2005014339950413,2.1871426830758094,2.1812589657709465,0.0,0.0,-0.0010579123460180706,2.1896343609472657,0.0,0.0,0.0,0.0,0.0,0.0,0.0,0.0,0.0,0.0,0.0,0.0,1507.542517541718,0.0,
0.4742,2.2005708949179974,2.187210987971075,2.181325352417769,0.0,0.0,-0.0010578157140906325,2.189702411768947,0.0,0.0,0.0,0.0,0.0,0.0,0.0,0.0,0.0,0.0,0.0,0.0,1563.1839315713516,0.0,
0.4912,2.2006433202878464,2.1872822079264798,2.1813945720293244,0.0,0.0,-0.0010577149275319351,2.189773366747884,0.0,0.0,0.0,0.0,0.0,0.0,0.0,0.0,0.0,0.0,0.0,0.0,1619.1467047286676,0.0,
0.5081,2.2007178591722427,2.187355506166895,2.181465811308244,0.0,0.0,-0.0010576111672196593,2.189846392215794,0.0,0.0,0.0,0.0,0.0,0.0,0.0,0.0,0.0,0.0,0.0,0.0,1674.7721649163198,0.0,
0.5251,2.200795394868477,2.1874317512821833,2.1815399144198793,0.0,0.0,-0.0010575032001610414,2.1899223535235133,0.0,0.0,0.0,0.0,0.0,0.0,0.0,0.0,0.0,0.0,0.0,0.0,1730.718312080995,0.0,
0.542,2.2008750164032396,2.1875100474564535,2.1816160106887077,0.0,0.0,-0.00105739229136214,2.1900003581828003,0.0,0.0,0.0,0.0,0.0,0.0,0.0,0.0,0.0,0.0,0.0,0.0,1786.326668252065,0.0,
0.5589,2.2009571736184403,2.1875908370382904,2.1816945300098007,0.0,0.0,-0.0010572778109205737,2.190080846888844,0.0,0.0,0.0,0.0,0.0,0.0,0.0,0.0,0.0,0.0,0.0,0.0,1841.9260661382218,0.0,
0.5759,2.2010423765015354,2.187674621518919,2.1817759597511674,0.0,0.0,-0.0010571590440969472,2.190164319257207,0.0,0.0,0.0,0.0,0.0,0.0,0.0,0.0,0.0,0.0,0.0,0.0,1897.8451252976843,0.0,
0.5928,2.2011296239980487,2.1877604165024565,2.181859343154094,0.0,0.0,-0.0010570373824287766,2.190249794551533,0.0,0.0,0.0,0.0,0.0,0.0,0.0,0.0,0.0,0.0,0.0,0.0,1953.4256840394319,0.0,
0.6097,2.2012194111604524,2.18784870879379,2.181945153313137,0.0,0.0,-0.0010569121320104134,2.190337757755793,0.0,0.0,0.0,0.0,0.0,0.0,0.0,0.0,0.0,0.0,0.0,0.0,2008.996415819668,0.0,
0.6267,2.201312293281368,2.187940044433062,2.182033920883761,0.0,0.0,-0.0010567825136923285,2.1904287528660635,0.0,0.0,0.0,0.0,0.0,0.0,0.0,0.0,0.0,0.0,0.0,0.0,2064.88576027383,0.0,
0.6436,2.2014071790839527,2.188033350306216,2.182124602892798,0.0,0.0,-0.001056650046148166,2.1905217107609887,0.0,0.0,0.0,0.0,0.0,0.0,0.0,0.0,0.0,0.0,0.0,0.0,2120.4359026561447,0.0,
0.6606,2.201505192983607,2.1881297320990507,2.1822182739001104,0.0,0.0,-0.001056513155238905,2.190617732994256,0.0,0.0,0.0,0.0,0.0,0.0,0.0,0.0,0.0,0.0,0.0,0.0,2176.3039447994192,0.0,
0.6775,2.2016051834110977,2.188228057410729,2.1823138333207446,0.0,0.0,-0.0010563734448430142,2.190715691380857,0.0,0.0,0.0,0.0,0.0,0.0,0.0,0.0,0.0,0.0,0.0,0.0,2231.8323206786304,0.0,
0.6944,2.201707720959143,2.1883288873254134,2.182411826425146,0.0,0.0,-0.0010562301136514398,2.190816144903234,0.0,0.0,0.0,0.0,0.0,0.0,0.0,0.0,0.0,0.0,0.0,0.0,2287.3494033205475,0.0,
0.7114,2.2018134366377007,2.1884328423357884,2.1825128562091693,0.0,0.0,-0.0010560822743491982,2.190919711727553,0.0,0.0,0.0,0.0,0.0,0.0,0.0,0.0,0.0,0.0,0.0,0.0,2343.1832970402297,0.0,
0.7283,2.2019210883909954,2.1885387010643225,2.182615735627918,0.0,0.0,-0.0010559316590834998,2.1910251750277454,0.0,0.0,0.0,0.0,0.0,0.0,0.0,0.0,0.0,0.0,0.0,0.0,2398.676834517429,0.0,
0.7452,2.2020312922245138,2.18864706924937,2.182721053339198,0.0,0.0,-0.001055777401668703,2.191133138271027,0.0,0.0,0.0,0.0,0.0,0.0,0.0,0.0,0.0,0.0,0.0,0.0,2454.1581874200992,0.0,
0.7622,2.2021447246787593,2.188758612153059,2.182829455835718,0.0,0.0,-0.0010556185494054037,2.191244264222512,0.0,0.0,0.0,0.0,0.0,0.0,0.0,0.0,0.0,0.0,0.0,0.0,2509.9552374940063,0.0,
0.7791,2.2022600530356486,2.1888720192491755,2.1829396694492775,0.0,0.0,-0.0010554569634643035,2.1913572472447007,0.0,0.0,0.0,0.0,0.0,0.0,0.0,0.0,0.0,0.0,0.0,0.0,2565.4112475864185,0.0,
0.7961,2.2023786439649173,2.1889886344312863,2.183053000190026,0.0,0.0,-0.001055290723662584,2.19147342619541,0.0,0.0,0.0,0.0,0.0,0.0,0.0,0.0,0.0,0.0,0.0,0.0,2621.182197030404,0.0,
0.813,2.202499104143242,2.1891070875802194,2.1831681164872054,0.0,0.0,-0.0010551217777193507,2.1915914360702224,0.0,0.0,0.0,0.0,0.0,0.0,0.0,0.0,0.0,0.0,0.0,0.0,2676.6116534071534,0.0,
0.8299,2.2026221254924145,2.189228059081575,2.1832856795238955,0.0,0.0,-0.0010549491504191898,2.191711954699295,0.0,0.0,0.0,0.0,0.0,0.0,0.0,0.0,0.0,0.0,0.0,0.0,2732.0274168286064,0.0,
0.8469,2.2027484606850996,2.189352289055986,2.183406408518649,0.0,0.0,-0.0010547717791005386,2.1918357194199114,0.0,0.0,0.0,0.0,0.0,0.0,0.0,0.0,0.0,0.0,0.0,0.0,2787.7569615898456,0.0,
0.8638,2.2028766254135848,2.1894783179203747,2.1835288849780876,0.0,0.0,-0.0010545917418916864,2.1919612761040157,0.0,0.0,0.0,0.0,0.0,0.0,0.0,0.0,0.0,0.0,0.0,0.0,2843.1443386799947,0.0,
0.8807,2.2030073572613724,2.1896068709581473,2.1836538137039763,0.0,0.0,-0.0010544079976219879,2.192089347307832,0.0,0.0,0.0,0.0,0.0,0.0,0.0,0.0,0.0,0.0,0.0,0.0,2898.5171035825488,0.0,
0.8977,2.2031414547041517,2.1897387333260063,2.18378195766482,0.0,0.0,-0.001054219417063372,2.1922207152316595,0.0,0.0,0.0,0.0,0.0,0.0,0.0,0.0,0.0,0.0,0.0,0.0,2954.2024640887,0.0,
0.9146,2.2032773422390033,2.1898723557706843,2.1839118112487497,0.0,0.0,-0.001054028209661752,2.192353836419479,0.0,0.0,0.0,0.0,0.0,0.0,0.0,0.0,0.0,0.0,0.0,0.0,3009.544987039264,0.0,
0.9316,2.203416630175548,2.1900093217493826,2.184044913203558,0.0,0.0,-0.0010538321031982117,2.1924902883761628,0.0,0.0,0.0,0.0,0.0,0.0,0.0,0.0,0.0,0.0,0.0,0.0,3065.199298413954,0.0,
0.9485,2.203557682030394,2.1901480220487057,2.184179699666144,0.0,0.0,-0.0010536333952843242,2.1926284679150814,0.0,0.0,0.0,0.0,0.0,0.0,0.0,0.0,0.0,0.0,0.0,0.0,3120.5103275474357,0.0,
0.9654,2.2037013117578876,2.1902892570440935,2.1843169483858187,0.0,0.0,-0.001053430933746753,2.1927691723959333,0.0,0.0,0.0,0.0,0.0,0.0,0.0,0.0,0.0,0.0,0.0,0.0,3175.805185088872,0.0,
0.9824,2.2038483944599703,2.190433887234182,2.1844574955158835,0.0,0.0,-0.0010532234772474241,2.192913259070012,0.0,0.0,0.0,0.0,0.0,0.0,0.0,0.0,0.0,0.0,0.0,0.0,3231.410596884042,0.0,
0.9993,2.2039972020770175,2.190580213362538,2.184599689720738,0.0,0.0,-0.00105301345636116,2.193059035053431,0.0,0.0,0.0,0.0,0.0,0.0,0.0,0.0,0.0,0.0,0.0,0.0,3286.6720631541766,0.0,
1.0162,2.2041485945215773,2.1907290809924973,2.1847443526437478,0.0,0.0,-0.0010527996516701097,2.193207342719274,0.0,0.0,0.0,0.0,0.0,0.0,0.0,0.0,0.0,0.0,0.0,0.0,3341.9164052299875,0.0,
1.0332,2.2043034930189656,2.1908813959722595,2.184892364485769,0.0,0.0,-0.0010525807538738965,2.1933590844923314,0.0,0.0,0.0,0.0,0.0,0.0,0.0,0.0,0.0,0.0,0.0,0.0,3397.4700369677494,0.0,
1.0501,2.20446007768689,2.1910353687611606,2.1850419862097006,0.0,0.0,-0.0010523593275772142,2.193512477552584,0.0,0.0,0.0,0.0,0.0,0.0,0.0,0.0,0.0,0.0,0.0,0.0,3452.679063092474,0.0,
1.067,2.204619254519657,2.191191890231365,2.185194083467781,0.0,0.0,-0.001052134085578771,2.1936684094062677,0.0,0.0,0.0,0.0,0.0,0.0,0.0,0.0,0.0,0.0,0.0,0.0,3507.8699984411633,0.0,
1.084,2.204781990998617,2.191351911710412,2.185349580631603,0.0,0.0,-0.0010519036500361715,2.193827827780211,0.0,0.0,0.0,0.0,0.0,0.0,0.0,0.0,0.0,0.0,0.0,0.0,3563.368927372063,0.0,
1.1009,2.204946375158819,2.191513553119025,2.185506650721037,0.0,0.0,-0.0010516707207112086,2.1939888596662933,0.0,0.0,0.0,0.0,0.0,0.0,0.0,0.0,0.0,0.0,0.0,0.0,3618.522593222699,0.0,
1.1179,2.2051143550207923,2.1916787299622342,2.1856671550113376,0.0,0.0,-0.0010514325295132656,2.194153413331455,0.0,0.0,0.0,0.0,0.0,0.0,0.0,0.0,0.0,0.0,0.0,0.0,3673.9833696922783,0.0,
1.1348,2.205283957019352,2.1918455015941376,2.185829207695363,0.0,0.0,-0.0010511918670549896,2.194319555436284,0.0,0.0,0.0,0.0,0.0,0.0,0.0,0.0,0.0,0.0,0.0,0.0,3729.09844551074,0.0,
1.1517,2.205456164275397,2.1920148347184307,2.185993748074853,0.0,0.0,-0.001050947331835718,2.194488249022894,0.0,0.0,0.0,0.0,0.0,0.0,0.0,0.0,0.0,0.0,0.0,0.0,3784.19378560737,0.0,
1.1687,2.205632021707795,2.1921877567984245,2.1861617744596984,0.0,0.0,-0.0010506974303566654,2.194660517655306,0.0,0.0,0.0,0.0,0.0,0.0,0.0,0.0,0.0,0.0,0.0,0.0,3839.59488528206,0.0,
1.1856,2.2058094632048144,2.1923622361956747,2.1863313126687802,0.0,0.0,-0.0010504450904040253,2.1948343373564234,0.0,0.0,0.0,0.0,0.0,0.0,0.0,0.0,0.0,0.0,0.0,0.0,3894.649629919885,0.0,
1.2025,2.2059895183323457,2.1925392852781074,2.186503346350049,0.0,0.0,-0.001050188841104031,2.195010716653501,0.0,0.0,0.0,0.0,0.0,0.0,0.0,0.0,0.0,0.0,0.0,0.0,3949.6836308703055,0.0,
1.2195,2.2061732786531403,2.1927199773678456,2.1866789183443256,0.0,0.0,-0.0010499271187147429,2.195190724788437,0.0,0.0,0.0,0.0,0.0,0.0,0.0,0.0,0.0,0.0,0.0,0.0,4005.022005862459,0.0,
1.2364,2.2063585852122305,2.1929021895436196,2.1868559658209428,0.0,0.0,-0.0010496629894887685,2.195372246858931,0.0,0.0,0.0,0.0,0.0,0.0,0.0,0.0,0.0,0.0,0.0,0.0,4060.0133725002142,0.0,
1.2534,2.206547633985579,2.1930880810968265,2.1870365868013972,0.0,0.0,-0.0010493933144959406,2.195557433961268,0.0,0.0,0.0,0.0,0.0,0.0,0.0,0.0,0.0,0.0,0.0,0.0,4115.308168800617,0.0,
1.2703,2.206738203889837,2.1932754680228035,2.1872186591374465,0.0,0.0,-0.0010491212531414371,2.195744110350029,0.0,0.0,0.0,0.0,0.0,0.0,0.0,0.0,0.0,0.0,0.0,0.0,4170.255521074901,0.0,
1.2872,2.206931402264469,2.1934654391540107,2.187403240727349,0.0,0.0,-0.0010488452174134853,2.195933360715276,0.0,0.0,0.0,0.0,0.0,0.0,0.0,0.0,0.0,0.0,0.0,0.0,4225.180410575673,0.0,
1.3042,2.2071283987982353,2.193659144621985,2.187591448989537,0.0,0.0,-0.001048563524885542,2.1961263308032524,0.0,0.0,0.0,0.0,0.0,0.0,0.0,0.0,0.0,0.0,0.0,0.0,4280.407284016603,0.0,
1.3211,2.2073268790387837,2.193854308624732,2.1877810726378786,0.0,0.0,-0.001048279475727042,2.1963207534337985,0.0,0.0,0.0,0.0,0.0,0.0,0.0,0.0,0.0,0.0,0.0,0.0,4335.28606057665,0.0,
1.338,2.2075279971836395,2.194052066063112,2.1879732143004174,0.0,0.0,-0.0010479914107357526,2.1965177591823895,0.0,0.0,0.0,0.0,0.0,0.0,0.0,0.0,0.0,0.0,0.0,0.0,4390.141318756851,0.0,
1.355,2.207732970003754,2.194253613356313,2.1881690363334627,0.0,0.0,-0.001047697575308635,2.196718539897843,0.0,0.0,0.0,0.0,0.0,0.0,0.0,0.0,0.0,0.0,0.0,0.0,4445.297077392221,0.0,
1.3719,2.2079393893434736,2.1944565825779714,2.188366238002558,0.0,0.0,-0.0010474014118443868,2.1969207366413346,0.0,0.0,0.0,0.0,0.0,0.0,0.0,0.0,0.0,0.0,0.0,0.0,4500.104085767756,0.0,
1.3889,2.2081497013963074,2.1946633790192003,2.1885671561760454,0.0,0.0,-0.0010470994006332424,2.1971267455305177,0.0,0.0,0.0,0.0,0.0,0.0,0.0,0.0,0.0,0.0,0.0,0.0,4555.210582986568,0.0,
1.4058,2.2083614352832264,2.19487157308804,2.18876943024933,0.0,0.0,-0.0010467950798345523,2.1973341462068654,0.0,0.0,0.0,0.0,0.0,0.0,0.0,0.0,0.0,0.0,0.0,0.0,4609.967893337501,0.0,
1.4227,2.2085758237064272,2.195082376865204,2.188974237779571,0.0,0.0,-0.0010464866698821575,2.1975441461170675,0.0,0.0,0.0,0.0,0.0,0.0,0.0,0.0,0.0,0.0,0.0,0.0,4664.699881303364,0.0,
1.4397,2.208794162336554,2.1952970643362337,2.1891828164189353,0.0,0.0,-0.0010461722940652714,2.1977580143639077,0.0,0.0,0.0,0.0,0.0,0.0,0.0,0.0,0.0,0.0,0.0,0.0,4719.729808757456,0.0,
1.4566,2.209013886002002,2.195513113208235,2.1893927155673474,0.0,0.0,-0.0010458556353632792,2.1979732382591948,0.0,0.0,0.0,0.0,0.0,0.0,0.0,0.0,0.0,0.0,0.0,0.0,4774.409893728215,0.0,
1.4735,2.209236274727279,2.1957317820844846,2.189605157942694,0.0,0.0,-0.001045534840965176,2.198191071584819,0.0,0.0,0.0,0.0,0.0,0.0,0.0,0.0,0.0,0.0,0.0,0.0,4829.063546379375,0.0,
1.4905,2.2094626717552672,2.1959543917176196,2.1898214265899485,0.0,0.0,-0.0010452079598083383,2.198412830020945,0.0,0.0,0.0,0.0,0.0,0.0,0.0,0.0,0.0,0.0,0.0,0.0,4884.01354784239,0.0,
1.5074,2.209690417248967,2.196178326749042,2.190038980567346,0.0,0.0,-0.0010448788213367234,2.1986359081884514,0.0,0.0,0.0,0.0,0.0,0.0,0.0,0.0,0.0,0.0,0.0,0.0,4938.613049032922,0.0,
1.5244,2.2099222101548524,2.196406240950134,2.190260397943929,0.0,0.0,-0.0010445435138521143,2.198862949682972,0.0,0.0,0.0,0.0,0.0,0.0,0.0,0.0,0.0,0.0,0.0,0.0,4993.507813853945,0.0,
1.5413,2.2101553272488337,2.1966354566473547,2.1904830772915416,0.0,0.0,-0.0010442059654867913,2.1990912870625765,0.0,0.0,0.0,0.0,0.0,0.0,0.0,0.0,0.0,0.0,0.0,0.0,5048.051637920937,0.0,
1.5582,2.210391127877532,2.196867310423563,2.1907083170160138,0.0,0.0,-0.001043864199436277,2.19932225177237,0.0,0.0,0.0,0.0,0.0,0.0,0.0,0.0,0.0,0.0,0.0,0.0,5102.5671291914505,0.0,
1.5752,2.2106310350447824,2.1971032014403216,2.1909374762575915,0.0,0.0,-0.0010435161386943871,2.1995572375808985,0.0,0.0,0.0,0.0,0.0,0.0,0.0,0.0,0.0,0.0,0.0,0.0,5157.37622134637,0.0,
1.5921,2.2108722302065607,2.1973403583179922,2.191167862638764,0.0,0.0,-0.001043165860754798,2.1997934837211055,0.0,0.0,0.0,0.0,0.0,0.0,0.0,0.0,0.0,0.0,0.0,0.0,5211.8337099118025,0.0,
1.609,2.2111161205485024,2.197580164667513,2.191400820205739,0.0,0.0,-0.0010428113132662804,2.2000323684739183,0.0,0.0,0.0,0.0,0.0,0.0,0.0,0.0,0.0,0.0,0.0,0.0,5266.261694231013,0.0,
1.626,2.2113641771900725,2.1978240669491322,2.1916377539958134,0.0,0.0,-0.0010424503424422834,2.200275332711673,0.0,0.0,0.0,0.0,0.0,0.0,0.0,0.0,0.0,0.0,0.0,0.0,5320.9815714805645,0.0,
1.6429,2.211613485854733,2.1980691996734762,2.1918758802992,0.0,0.0,-0.0010420871769702591,2.20051952194247,0.0,0.0,0.0,0.0,0.0,0.0,0.0,0.0,0.0,0.0,0.0,0.0,5375.349178406058,0.0,
1.6599,2.211867001058381,2.198318467847582,2.1921180209998767,0.0,0.0,-0.001041717500628678,2.2007678299686133,0.0,0.0,0.0,0.0,0.0,0.0,0.0,0.0,0.0,0.0,0.0,0.0,5430.007512590595,0.0,
1.6768,2.21212174440295,2.1985689429486257,2.1923613312199057,0.0,0.0,-0.001041345644055416,2.201017339523827,0.0,0.0,0.0,0.0,0.0,0.0,0.0,0.0,0.0,0.0,0.0,0.0,5484.313129023653,0.0,
1.6937,2.2123792033025547,2.1988220874538116,2.19260723153456,0.0,0.0,-0.0010409694268538757,2.201269507430309,0.0,0.0,0.0,0.0,0.0,0.0,0.0,0.0,0.0,0.0,0.0,0.0,5538.587231813446,0.0,
1.7107,2.2126409295891247,2.199079427163094,2.192857203959342,0.0,0.0,-0.001040586565025727,2.20152585357052,0.0,0.0,0.0,0.0,0.0,0.0,0.0,0.0,0.0,0.0,0.0,0.0,5593.150275058975,0.0,
1.7276,2.2129038484102614,2.199337938737763,2.1931083116140666,0.0,0.0,-0.0010402015436204364,2.2017833662540305,0.0,0.0,0.0,0.0,0.0,0.0,0.0,0.0,0.0,0.0,0.0,0.0,5647.359925819143,0.0,
1.7445,2.213169495589974,2.199599132241554,2.1933620212440768,0.0,0.0,-0.0010398121041332144,2.202043549691868,0.0,0.0,0.0,0.0,0.0,0.0,0.0,0.0,0.0,0.0,0.0,0.0,5701.536822206981,0.0,
1.7615,2.21343947167418,2.199864581358455,2.1936198613171323,0.0,0.0,-0.0010394158830910154,2.202307971449922,0.0,0.0,0.0,0.0,0.0,0.0,0.0,0.0,0.0,0.0,0.0,0.0,5756.0008227839235,0.0,
1.7784,2.2137106049026025,2.20013116749014,2.193878802529891,0.0,0.0,-0.001039017521984543,2.2025735249742113,0.0,0.0,0.0,0.0,0.0,0.0,0.0,0.0,0.0,0.0,0.0,0.0,5810.110750420453,0.0,
1.7954,2.213986108466803,2.2004020499180177,2.194141913463733,0.0,0.0,-0.0010386122861430762,2.2028433572828514,0.0,0.0,0.0,0.0,0.0,0.0,0.0,0.0,0.0,0.0,0.0,0.0,5864.5065285076125,0.0,
1.8123,2.214262745677553,2.2006740462204224,2.1944061028978687,0.0,0.0,-0.0010382049226211924,2.2031142982652816,0.0,0.0,0.0,0.0,0.0,0.0,0.0,0.0,0.0,0.0,0.0,0.0,5918.547776036734,0.0,
