energies(eV),real_xx,real_yy,real_zz,real_xy,real_yz,real_xz,real_ave,imag_xx,imag_yy,imag_zz,imag_xy,imag_yz,imag_xz,imag_ave,absorption_xx,absorption_yy,absorption_zz,absorption_xy,absorption_yz,absorption_xz,absorption_ave,band_gap
0.0,4.373694968086284,3.96894265881495,4.227079495234053,0.0,0.0,0.09808825941620934,4.189905707378429,0.0,0.0,0.0,0.0,0.0,0.0,0.0,0.0,0.0,0.0,0.0,0.0,0.0,0.0,4.9498999999999995
0.0159,4.37370804349394,3.9689528435522017,4.227091066643447,0.0,0.0,0.09808862712176418,4.18991731789653,0.0,0.0,0.0,0.0,0.0,0.0,0.0,0.0,0.0,0.0,0.0,0.0,0.0,0.0,
0.0319,4.373747600051209,3.968983655015515,4.227126073149048,0.0,0.0,0.09808973950547535,4.189952442738591,0.0,0.0,0.0,0.0,0.0,0.0,0.0,0.0,0.0,0.0,0.0,0.0,0.0,0.0,
0.0478,4.373813145910205,3.9690347099345464,4.227184079299327,0.0,0.0,0.09809158266863639,4.190010645048027,0.0,0.0,0.0,0.0,0.0,0.0,0.0,0.0,0.0,0.0,0.0,0.0,0.0,0.0,
0.0638,4.373905509934406,3.969106653659105,4.2272658183126595,0.0,0.0,0.09809417980591363,4.190092660635391,0.0,0.0,0.0,0.0,0.0,0.0,0.0,0.0,0.0,0.0,0.0,0.0,0.0,0.0,
0.0797,4.374023543666929,3.9691985912668284,4.227370273425304,0.0,0.0,0.09809749846724272,4.190197469453021,0.0,0.0,0.0,0.0,0.0,0.0,0.0,0.0,0.0,0.0,0.0,0.0,0.0,0.0,
0.0957,4.374168739711671,3.969311684878845,4.2274987649888764,0.0,0.0,0.09810158041507301,4.190326396526464,0.0,0.0,0.0,0.0,0.0,0.0,0.0,0.0,0.0,0.0,0.0,0.0,0.0,0.0,
0.1116,4.374339292700457,3.9694445277036463,4.22764969468051,0.0,0.0,0.09810637464710825,4.190477838361537,0.0,0.0,0.0,0.0,0.0,0.0,0.0,0.0,0.0,0.0,0.0,0.0,0.0,0.0,
0.1276,4.374537359378461,3.969598798921163,4.2278249703119055,0.0,0.0,0.09811194149428247,4.190653709537177,0.0,0.0,0.0,0.0,0.0,0.0,0.0,0.0,0.0,0.0,0.0,0.0,0.0,0.0,
0.1435,4.3747604769908754,3.969772579529306,4.22802241161269,0.0,0.0,0.09811821140069953,4.190851822710957,0.0,0.0,0.0,0.0,0.0,0.0,0.0,0.0,0.0,0.0,0.0,0.0,0.0,0.0,
0.1595,4.375011467003577,3.9699680661824366,4.228244514327265,0.0,0.0,0.09812526326677579,4.191074682504426,0.0,0.0,0.0,0.0,0.0,0.0,0.0,0.0,0.0,0.0,0.0,0.0,0.0,0.0,
0.1754,4.375287208626484,3.9701828272019615,4.228488515707811,0.0,0.0,0.09813300898116782,4.191319517178752,0.0,0.0,0.0,0.0,0.0,0.0,0.0,0.0,0.0,0.0,0.0,0.0,0.0,0.0,
0.1914,4.375591188804577,3.9704195772607442,4.228757500049836,0.0,0.0,0.09814154601505033,4.191589422038386,0.0,0.0,0.0,0.0,0.0,0.0,0.0,0.0,0.0,0.0,0.0,0.0,0.0,0.0,
0.2073,4.375919627889915,3.970675371412681,4.229048121456062,0.0,0.0,0.09815076769932436,4.191881040252886,0.0,0.0,0.0,0.0,0.0,0.0,0.0,0.0,0.0,0.0,0.0,0.0,0.0,0.0,
0.2233,4.376276679244748,3.970953443022122,4.229364053538176,0.0,0.0,0.09816079007745801,4.192198058601682,0.0,0.0,0.0,0.0,0.0,0.0,0.0,0.0,0.0,0.0,0.0,0.0,0.0,0.0,
0.2392,4.376657903366054,3.9712503331593005,4.22970136643486,0.0,0.0,0.09817148791984466,4.192536534320071,0.0,0.0,0.0,0.0,0.0,0.0,0.0,0.0,0.0,0.0,0.0,0.0,0.0,0.0,
0.2552,4.37706812115198,3.9715697946821824,4.230064323985925,0.0,0.0,0.09818299584401445,4.192900746606695,0.0,0.0,0.0,0.0,0.0,0.0,0.0,0.0,0.0,0.0,0.0,0.0,0.0,0.0,
0.2711,4.377502232071969,3.9719078538352726,4.2304484114084735,0.0,0.0,0.09819517005668493,4.193286165771905,0.0,0.0,0.0,0.0,0.0,0.0,0.0,0.0,0.0,0.0,0.0,0.0,0.0,0.0,
0.287,4.377962745932158,3.9722664634199605,4.23085584740253,0.0,0.0,0.09820808022636685,4.193695018918216,0.0,0.0,0.0,0.0,0.0,0.0,0.0,0.0,0.0,0.0,0.0,0.0,0.0,0.0,
0.303,4.37845283960894,3.9726480953338124,4.231289440444792,0.0,0.0,0.09822181456769144,4.194130125129182,0.0,0.0,0.0,0.0,0.0,0.0,0.0,0.0,0.0,0.0,0.0,0.0,0.0,0.0,
0.3189,4.378966419487085,3.973048002537233,4.231743797180284,0.0,0.0,0.09823620146419577,4.1945860730682005,0.0,0.0,0.0,0.0,0.0,0.0,0.0,0.0,0.0,0.0,0.0,0.0,0.0,0.0,
0.3349,4.379509980336898,3.973471240167341,4.232224661049182,0.0,0.0,0.09825142194839111,4.195068627184474,0.0,0.0,0.0,0.0,0.0,0.0,0.0,0.0,0.0,0.0,0.0,0.0,0.0,0.0,
0.3508,4.380076763814102,3.9739125437008367,4.2327260507522055,0.0,0.0,0.09826728583061471,4.195571786089048,0.0,0.0,0.0,0.0,0.0,0.0,0.0,0.0,0.0,0.0,0.0,0.0,0.0,0.0,
0.3668,4.380673937571489,3.974377491602265,4.233254304315701,0.0,0.0,0.09828399272493549,4.196101911163152,0.0,0.0,0.0,0.0,0.0,0.0,0.0,0.0,0.0,0.0,0.0,0.0,0.0,0.0,
0.3827,4.3812940767421615,3.9748603005768945,4.233802851031831,0.0,0.0,0.09830133386413716,4.196652409450295,0.0,0.0,0.0,0.0,0.0,0.0,0.0,0.0,0.0,0.0,0.0,0.0,0.0,0.0,
0.3987,4.381945023804274,3.97536707380957,4.234378625096155,0.0,0.0,0.09831952744617897,4.197230240903333,0.0,0.0,0.0,0.0,0.0,0.0,0.0,0.0,0.0,0.0,0.0,0.0,0.0,0.0,
0.4146,4.382618685394439,3.9758915078171513,4.2349744647810335,0.0,0.0,0.09833834612169695,4.197828219330874,0.0,0.0,0.0,0.0,0.0,0.0,0.0,0.0,0.0,0.0,0.0,0.0,0.0,0.0,
0.4306,4.383323580946083,3.976440232031489,4.235597902186576,0.0,0.0,0.09835802667486222,4.198453905054716,0.0,0.0,0.0,0.0,0.0,0.0,0.0,0.0,0.0,0.0,0.0,0.0,0.0,0.0,
0.4465,4.384050946443488,3.9770064212336034,4.236241182805902,0.0,0.0,0.09837832316937638,4.199099516827665,0.0,0.0,0.0,0.0,0.0,0.0,0.0,0.0,0.0,0.0,0.0,0.0,0.0,0.0,
0.4625,4.384809980594108,3.9775972327641176,4.236912438532272,0.0,0.0,0.09839949097786434,4.1997732172968325,0.0,0.0,0.0,0.0,0.0,0.0,0.0,0.0,0.0,0.0,0.0,0.0,0.0,0.0,
0.4784,4.385591246390449,3.9782053179893007,4.237603320170708,0.0,0.0,0.09842126557218349,4.200466628183486,0.0,0.0,0.0,0.0,0.0,0.0,0.0,0.0,0.0,0.0,0.0,0.0,0.0,0.0,
0.4944,4.386404624323183,3.978838363956576,4.238322561451053,0.0,0.0,0.09844392091550794,4.201188516576937,0.0,0.0,0.0,0.0,0.0,0.0,0.0,0.0,0.0,0.0,0.0,0.0,0.0,0.0,
0.5103,4.387240001868424,3.9794884968058777,4.239061216430574,0.0,0.0,0.09846717388286286,4.201929905034959,0.0,0.0,0.0,0.0,0.0,0.0,0.0,0.0,0.0,0.0,0.0,0.0,0.0,0.0,
0.5263,4.388107944001718,3.9801639352270386,4.2398286228754145,0.0,0.0,0.09849131702984723,4.202700167368057,0.0,0.0,0.0,0.0,0.0,0.0,0.0,0.0,0.0,0.0,0.0,0.0,0.0,0.0,
0.5422,4.388997659970778,3.9808562781879657,4.240615235883054,0.0,0.0,0.09851604862967968,4.203489724680599,0.0,0.0,0.0,0.0,0.0,0.0,0.0,0.0,0.0,0.0,0.0,0.0,0.0,0.0,
0.5582,4.389920402132487,3.9815742780957066,4.241430999613765,0.0,0.0,0.0985416798319418,4.20430855994732,0.0,0.0,0.0,0.0,0.0,0.0,0.0,0.0,0.0,0.0,0.0,0.0,0.0,0.0,
0.5741,4.390864698604762,3.9823090046650362,4.242265767839234,0.0,0.0,0.09856789030314721,4.205146490369677,0.0,0.0,0.0,0.0,0.0,0.0,0.0,0.0,0.0,0.0,0.0,0.0,0.0,0.0,
0.59,4.391836295022689,3.9830649248554577,4.243124615760655,0.0,0.0,0.09859483797291013,4.206008611879601,0.0,0.0,0.0,0.0,0.0,0.0,0.0,0.0,0.0,0.0,0.0,0.0,0.0,0.0,
0.606,4.39284162687121,3.983847041050659,4.244013226914331,0.0,0.0,0.0986226993416535,4.206900631612066,0.0,0.0,0.0,0.0,0.0,0.0,0.0,0.0,0.0,0.0,0.0,0.0,0.0,0.0,
0.6219,4.393868195790934,3.9846456257198257,4.24492054925685,0.0,0.0,0.09865112618619895,4.207811456922537,0.0,0.0,0.0,0.0,0.0,0.0,0.0,0.0,0.0,0.0,0.0,0.0,0.0,0.0,
0.6379,4.394928985470576,3.9854707747200258,4.245858053338909,0.0,0.0,0.09868047611592745,4.208752604509837,0.0,0.0,0.0,0.0,0.0,0.0,0.0,0.0,0.0,0.0,0.0,0.0,0.0,0.0,
0.6538,4.396010808328902,3.9863122254650234,4.246814079195719,0.0,0.0,0.09871038228961004,4.209712370996548,0.0,0.0,0.0,0.0,0.0,0.0,0.0,0.0,0.0,0.0,0.0,0.0,0.0,0.0,
0.6698,4.397127347136312,3.987180615906024,4.247800713290427,0.0,0.0,0.09874122091228502,4.210702892110921,0.0,0.0,0.0,0.0,0.0,0.0,0.0,0.0,0.0,0.0,0.0,0.0,0.0,0.0,
0.6857,4.398264721506818,3.988065145833219,4.248805684818016,0.0,0.0,0.09877260652074442,4.211711850719351,0.0,0.0,0.0,0.0,0.0,0.0,0.0,0.0,0.0,0.0,0.0,0.0,0.0,0.0,
0.7017,4.3994373170961385,3.9889769980140257,4.249841699246415,0.0,0.0,0.09880493391462389,4.212752004785527,0.0,0.0,0.0,0.0,0.0,0.0,0.0,0.0,0.0,0.0,0.0,0.0,0.0,0.0,
0.7176,4.400630556929713,3.989904831903466,4.250895871848639,0.0,0.0,0.09883779900530588,4.213810420227273,0.0,0.0,0.0,0.0,0.0,0.0,0.0,0.0,0.0,0.0,0.0,0.0,0.0,0.0,
0.7336,4.401859533562,3.990860377956428,4.251981530359122,0.0,0.0,0.09887161518506259,4.21490048062585,0.0,0.0,0.0,0.0,0.0,0.0,0.0,0.0,0.0,0.0,0.0,0.0,0.0,0.0,
0.7495,4.40310896944215,3.9918317524359304,4.253085172882319,0.0,0.0,0.09890595973705567,4.2160086315868,0.0,0.0,0.0,0.0,0.0,0.0,0.0,0.0,0.0,0.0,0.0,0.0,0.0,0.0,
0.7655,4.40439466824953,3.9928312365071386,4.254220752852881,0.0,0.0,0.09894126464318867,4.217148885869849,0.0,0.0,0.0,0.0,0.0,0.0,0.0,0.0,0.0,0.0,0.0,0.0,0.0,0.0,
0.7814,4.405700647662361,3.993846400236584,4.255374147792397,0.0,0.0,0.09897708855633075,4.218307065230447,0.0,0.0,0.0,0.0,0.0,0.0,0.0,0.0,0.0,0.0,0.0,0.0,0.0,0.0,
0.7974,4.407043426927762,3.9948900786765726,4.256559940444236,0.0,0.0,0.09901388204382101,4.2194978153495235,0.0,0.0,0.0,0.0,0.0,0.0,0.0,0.0,0.0,0.0,0.0,0.0,0.0,0.0,
0.8133,4.408406314547741,3.995949292542761,4.257763384162799,0.0,0.0,0.09905118512703906,4.220706330417767,0.0,0.0,0.0,0.0,0.0,0.0,0.0,0.0,0.0,0.0,0.0,0.0,0.0,0.0,
0.8293,4.409806550000317,3.9970374341080124,4.258999694786009,0.0,0.0,0.0990894669532147,4.22194789296478,0.0,0.0,0.0,0.0,0.0,0.0,0.0,0.0,0.0,0.0,0.0,0.0,0.0,0.0,
0.8452,4.411226727991974,3.9981409714303067,4.260253497744083,0.0,0.0,0.09912824891205338,4.2232070657221215,0.0,0.0,0.0,0.0,0.0,0.0,0.0,0.0,0.0,0.0,0.0,0.0,0.0,0.0,
0.8611,4.412675609611238,3.999266706999974,4.261532521775536,0.0,0.0,0.0991677678450063,4.224491612795583,0.0,0.0,0.0,0.0,0.0,0.0,0.0,0.0,0.0,0.0,0.0,0.0,0.0,0.0,
0.8771,4.414162681454643,4.000422004242663,4.262845132934482,0.0,0.0,0.0992082791469195,4.22580993954393,0.0,0.0,0.0,0.0,0.0,0.0,0.0,0.0,0.0,0.0,0.0,0.0,0.0,0.0,
0.893,4.415669459531161,4.001592496567483,4.264175008332225,0.0,0.0,0.09924927629142838,4.22714565481029,0.0,0.0,0.0,0.0,0.0,0.0,0.0,0.0,0.0,0.0,0.0,0.0,0.0,0.0,
0.909,4.417215004625055,4.002792984043312,4.265538963286335,0.0,0.0,0.09929127481176656,4.228515650651567,0.0,0.0,0.0,0.0,0.0,0.0,0.0,0.0,0.0,0.0,0.0,0.0,0.0,0.0,
0.9249,4.4187801064483745,4.004008538477205,4.266920036822752,0.0,0.0,0.0993337495548696,4.22990289391611,0.0,0.0,0.0,0.0,0.0,0.0,0.0,0.0,0.0,0.0,0.0,0.0,0.0,0.0,
0.9409,4.420384564120984,4.005254530091576,4.2683356920392725,0.0,0.0,0.0993772346013343,4.2313249287506105,0.0,0.0,0.0,0.0,0.0,0.0,0.0,0.0,0.0,0.0,0.0,0.0,0.0,0.0,
0.9568,4.422008435659087,4.006515465230512,4.269768325491356,0.0,0.0,0.0994211861760061,4.232764075460318,0.0,0.0,0.0,0.0,0.0,0.0,0.0,0.0,0.0,0.0,0.0,0.0,0.0,0.0,
0.9728,4.423672264223617,4.007807288342805,4.271236052680656,0.0,0.0,0.09946615689298893,4.234238535082359,0.0,0.0,0.0,0.0,0.0,0.0,0.0,0.0,0.0,0.0,0.0,0.0,0.0,0.0,
0.9887,4.425355370503283,4.009113936283793,4.272720623119884,0.0,0.0,0.09951158436142335,4.235729976635653,0.0,0.0,0.0,0.0,0.0,0.0,0.0,0.0,0.0,0.0,0.0,0.0,0.0,0.0,
1.0047,4.427079047650077,4.010451931974337,4.27424080953427,0.0,0.0,0.09955803971262961,4.237257263052894,0.0,0.0,0.0,0.0,0.0,0.0,0.0,0.0,0.0,0.0,0.0,0.0,0.0,0.0,
1.0206,4.428821873156308,4.011804638587073,4.27577770963104,0.0,0.0,0.09960494194840107,4.238801407124807,0.0,0.0,0.0,0.0,0.0,0.0,0.0,0.0,0.0,0.0,0.0,0.0,0.0,0.0,
1.0366,4.430605896364803,4.013189161937282,4.2773507583785655,0.0,0.0,0.09965288069832873,4.24038193889355,0.0,0.0,0.0,0.0,0.0,0.0,0.0,0.0,0.0,0.0,0.0,0.0,0.0,0.0,
1.0525,4.432408945460294,4.014588287149344,4.27894039672143,0.0,0.0,0.09970125636740007,4.241979209777022,0.0,0.0,0.0,0.0,0.0,0.0,0.0,0.0,0.0,0.0,0.0,0.0,0.0,0.0,
1.0685,4.4342538324314,4.016019707535687,4.28056672709509,0.0,0.0,0.09975067706159593,4.243613422354059,0.0,0.0,0.0,0.0,0.0,0.0,0.0,0.0,0.0,0.0,0.0,0.0,0.0,0.0,
1.0844,4.436117629796599,4.017465625631743,4.282209528525902,0.0,0.0,0.0998005246020678,4.2452642613180815,0.0,0.0,0.0,0.0,0.0,0.0,0.0,0.0,0.0,0.0,0.0,0.0,0.0,0.0,
1.1004,4.438023918906337,4.0189443270339575,4.283889576348736,0.0,0.0,0.09985142554610552,4.2469526074296775,0.0,0.0,0.0,0.0,0.0,0.0,0.0,0.0,0.0,0.0,0.0,0.0,0.0,0.0,
1.1163,4.439949010001138,4.020437426969263,4.285585982313721,0.0,0.0,0.09990274314664517,4.248657473094707,0.0,0.0,0.0,0.0,0.0,0.0,0.0,0.0,0.0,0.0,0.0,0.0,0.0,0.0,
1.1322,4.44190486217563,4.021954193772077,4.287309276640636,0.0,0.0,0.09995479271285687,4.250389444196114,0.0,0.0,0.0,0.0,0.0,0.0,0.0,0.0,0.0,0.0,0.0,0.0,0.0,0.0,
1.1482,4.443904212323886,4.023504494022633,4.289070669218175,0.0,0.0,0.10000790796059687,4.252159791854898,0.0,0.0,0.0,0.0,0.0,0.0,0.0,0.0,0.0,0.0,0.0,0.0,0.0,0.0,
1.1641,4.445922215521849,4.0250690536711256,4.290848261445731,0.0,0.0,0.1000614243552688,4.253946510212902,0.0,0.0,0.0,0.0,0.0,0.0,0.0,0.0,0.0,0.0,0.0,0.0,0.0,0.0,
1.1801,4.44798440643479,4.026667660260959,4.2926645350011325,0.0,0.0,0.10011601442028094,4.255772200565627,0.0,0.0,0.0,0.0,0.0,0.0,0.0,0.0,0.0,0.0,0.0,0.0,0.0,0.0,
1.196,4.450065160198173,4.028280439834537,4.294496909706814,0.0,0.0,0.10017099510520994,4.257614169913175,0.0,0.0,0.0,0.0,0.0,0.0,0.0,0.0,0.0,0.0,0.0,0.0,0.0,0.0,
1.212,4.452190806477676,4.0299277904766795,4.296368560853416,0.0,0.0,0.10022705726748436,4.259495719269257,0.0,0.0,0.0,0.0,0.0,0.0,0.0,0.0,0.0,0.0,0.0,0.0,0.0,0.0,
1.2279,4.454334932924809,4.031589232944926,4.298256220584218,0.0,0.0,0.10028349936792463,4.261393462151317,0.0,0.0,0.0,0.0,0.0,0.0,0.0,0.0,0.0,0.0,0.0,0.0,0.0,0.0,
1.2439,4.456524672174406,4.033285781534474,4.300183764232912,0.0,0.0,0.10034103055460881,4.263331405980598,0.0,0.0,0.0,0.0,0.0,0.0,0.0,0.0,0.0,0.0,0.0,0.0,0.0,0.0,
1.2598,4.458732816569485,4.034996346142979,4.3021272299376,0.0,0.0,0.10039893083063564,4.265285464216688,0.0,0.0,0.0,0.0,0.0,0.0,0.0,0.0,0.0,0.0,0.0,0.0,0.0,0.0,
1.2758,4.460987309980901,4.036742563154602,4.304111199741715,0.0,0.0,0.10045792758630293,4.267280357625739,0.0,0.0,0.0,0.0,0.0,0.0,0.0,0.0,0.0,0.0,0.0,0.0,0.0,0.0,
1.2917,4.463260141330739,4.038502725829314,4.306111011223146,0.0,0.0,0.10051728240231837,4.2692912927944,0.0,0.0,0.0,0.0,0.0,0.0,0.0,0.0,0.0,0.0,0.0,0.0,0.0,0.0,
1.3077,4.465580074298247,4.040299098733274,4.308151960044233,0.0,0.0,0.10057774085728989,4.271343711025251,0.0,0.0,0.0,0.0,0.0,0.0,0.0,0.0,0.0,0.0,0.0,0.0,0.0,0.0,
1.3236,4.467918285976721,4.042109352503386,4.310208676432715,0.0,0.0,0.10063854614954067,4.273412104970941,0.0,0.0,0.0,0.0,0.0,0.0,0.0,0.0,0.0,0.0,0.0,0.0,0.0,0.0,
1.3396,4.470304368740134,4.04395638620074,4.312307176827607,0.0,0.0,0.10070046198615963,4.2755226439228275,0.0,0.0,0.0,0.0,0.0,0.0,0.0,0.0,0.0,0.0,0.0,0.0,0.0,0.0,
1.3555,4.472708679142036,4.045817241641031,4.314421377076118,0.0,0.0,0.10076271322814018,4.277649099286395,0.0,0.0,0.0,0.0,0.0,0.0,0.0,0.0,0.0,0.0,0.0,0.0,0.0,0.0,
1.3715,4.4751616474599825,4.047715458919194,4.316578021806741,0.0,0.0,0.10082608164483765,4.279818376061972,0.0,0.0,0.0,0.0,0.0,0.0,0.0,0.0,0.0,0.0,0.0,0.0,0.0,0.0,
1.3874,4.47763280068563,4.049627444613052,4.31875030520898,0.0,0.0,0.10088977381043614,4.2820035168358865,0.0,0.0,0.0,0.0,0.0,0.0,0.0,0.0,0.0,0.0,0.0,0.0,0.0,0.0,
1.4034,4.480153416540222,4.051577386622199,4.320965707775635,0.0,0.0,0.10095458948344971,4.284232170312685,0.0,0.0,0.0,0.0,0.0,0.0,0.0,0.0,0.0,0.0,0.0,0.0,0.0,0.0,
1.4193,4.4826921831118,4.053541049645842,4.3231966945080185,0.0,0.0,0.1010197170076834,4.286476642421887,0.0,0.0,0.0,0.0,0.0,0.0,0.0,0.0,0.0,0.0,0.0,0.0,0.0,0.0,
1.4352,4.485264946538678,4.0555306805206675,4.325457179136919,0.0,0.0,0.10108555770440929,4.288750935398755,0.0,0.0,0.0,0.0,0.0,0.0,0.0,0.0,0.0,0.0,0.0,0.0,0.0,0.0,
1.4512,4.4878884130579655,4.057559182826456,4.327761821395793,0.0,0.0,0.10115253078745541,4.291069805760071,0.0,0.0,0.0,0.0,0.0,0.0,0.0,0.0,0.0,0.0,0.0,0.0,0.0,0.0,
1.4671,4.490529995511315,4.059601346516269,4.330081978981828,0.0,0.0,0.10121979740330123,4.29340444033647,0.0,0.0,0.0,0.0,0.0,0.0,0.0,0.0,0.0,0.0,0.0,0.0,0.0,0.0,
1.4831,4.4932231328517185,4.061683009153943,4.332447006217206,0.0,0.0,0.10128820188558624,4.295784382740956,0.0,0.0,0.0,0.0,0.0,0.0,0.0,0.0,0.0,0.0,0.0,0.0,0.0,0.0,
1.499,4.495934374221825,4.063778301203433,4.334827511646083,0.0,0.0,0.10135688732033693,4.298180062357114,0.0,0.0,0.0,0.0,0.0,0.0,0.0,0.0,0.0,0.0,0.0,0.0,0.0,0.0,
1.515,4.498698042141059,4.065913733639224,4.337253614470477,0.0,0.0,0.10142671571232384,4.300621796750253,0.0,0.0,0.0,0.0,0.0,0.0,0.0,0.0,0.0,0.0,0.0,0.0,0.0,0.0,
1.5309,4.501479811520802,4.068062769962724,4.339695165610974,0.0,0.0,0.10149681216808623,4.303079249031501,0.0,0.0,0.0,0.0,0.0,0.0,0.0,0.0,0.0,0.0,0.0,0.0,0.0,0.0,
1.5469,4.504314899600497,4.070252602455759,4.342183058094776,0.0,0.0,0.10156805625226879,4.305583520050344,0.0,0.0,0.0,0.0,0.0,0.0,0.0,0.0,0.0,0.0,0.0,0.0,0.0,0.0,
1.5628,4.507168096165573,4.0724560199304864,4.344686376462564,0.0,0.0,0.10163955518115501,4.308103497519541,0.0,0.0,0.0,0.0,0.0,0.0,0.0,0.0,0.0,0.0,0.0,0.0,0.0,0.0,
1.5788,4.510075524717887,4.074700904143391,4.34723679681738,0.0,0.0,0.10171220595768866,4.31067107522622,0.0,0.0,0.0,0.0,0.0,0.0,0.0,0.0,0.0,0.0,0.0,0.0,0.0,0.0,
1.5947,4.513001078648226,4.076959361230102,4.349802628269762,0.0,0.0,0.10178509800600968,4.313254356049364,0.0,0.0,0.0,0.0,0.0,0.0,0.0,0.0,0.0,0.0,0.0,0.0,0.0,0.0,
1.6107,4.51598179966442,4.079259970867842,4.3524163395634385,0.0,0.0,0.10185914563471989,4.315886036698567,0.0,0.0,0.0,0.0,0.0,0.0,0.0,0.0,0.0,0.0,0.0,0.0,0.0,0.0,
1.6266,4.518980673109436,4.081574148260353,4.355045455026148,0.0,0.0,0.10193342058346307,4.318533425465312,0.0,0.0,0.0,0.0,0.0,0.0,0.0,0.0,0.0,0.0,0.0,0.0,0.0,0.0,
1.6426,4.5220356712538,4.0839311797389595,4.35772324593102,0.0,0.0,0.10200885432196562,4.321230032307926,0.0,0.0,0.0,0.0,0.0,0.0,0.0,0.0,0.0,0.0,0.0,0.0,0.0,0.0,
1.6585,4.5251088593427085,4.086301781043867,4.360416442158932,0.0,0.0,0.1020845010232731,4.323942360848503,0.0,0.0,0.0,0.0,0.0,0.0,0.0,0.0,0.0,0.0,0.0,0.0,0.0,0.0,
1.6745,4.5282391529933,4.0887159541900875,4.36315912773509,0.0,0.0,0.10216130916094412,4.326704744972825,0.0,0.0,0.0,0.0,0.0,0.0,0.0,0.0,0.0,0.0,0.0,0.0,0.0,0.0,
1.6904,4.531387684893726,4.091143706638206,4.365917228108592,0.0,0.0,0.10223831547031936,4.329482873213508,0.0,0.0,0.0,0.0,0.0,0.0,0.0,0.0,0.0,0.0,0.0,0.0,0.0,0.0,
1.7063,4.534574165818344,4.093600224200755,4.36870799480861,0.0,0.0,0.10231599458800547,4.332294128275904,0.0,0.0,0.0,0.0,0.0,0.0,0.0,0.0,0.0,0.0,0.0,0.0,0.0,0.0,
1.7223,4.537819267259559,4.0961014206133015,4.3715495059822445,0.0,0.0,0.10239483796173343,4.335156731285035,0.0,0.0,0.0,0.0,0.0,0.0,0.0,0.0,0.0,0.0,0.0,0.0,0.0,0.0,
1.7382,4.541082700284522,4.0986162248821945,4.374406462277586,0.0,0.0,0.1024738564648743,4.338035129148101,0.0,0.0,0.0,0.0,0.0,0.0,0.0,0.0,0.0,0.0,0.0,0.0,0.0,0.0,
1.7542,4.544405796192878,4.101176468598071,4.377315025285086,0.0,0.0,0.1025540402743233,4.340965763358678,0.0,0.0,0.0,0.0,0.0,0.0,0.0,0.0,0.0,0.0,0.0,0.0,0.0,0.0,
1.7701,4.5477473004915385,4.103750349159711,4.38023906480775,0.0,0.0,0.10263438320122155,4.343912238153,0.0,0.0,0.0,0.0,0.0,0.0,0.0,0.0,0.0,0.0,0.0,0.0,0.0,0.0,
1.7861,4.551149536116814,4.106370447900293,4.383215593733658,0.0,0.0,0.10271589176159812,4.3469118592502545,0.0,0.0,0.0,0.0,0.0,0.0,0.0,0.0,0.0,0.0,0.0,0.0,0.0,0.0,
1.802,4.5545702690184875,4.1090042207280995,4.386207639833881,0.0,0.0,0.10279754287839557,4.349927376526822,0.0,0.0,0.0,0.0,0.0,0.0,0.0,0.0,0.0,0.0,0.0,0.0,0.0,0.0,
1.818,4.55805282865632,4.111685009203194,4.389253079155374,0.0,0.0,0.10288035917961116,4.352996972338296,0.0,0.0,0.0,0.0,0.0,0.0,0.0,0.0,0.0,0.0,0.0,0.0,0.0,0.0,
1.8339,4.561553986953463,4.114379517533209,4.392314085881937,0.0,0.0,0.10296330088905868,4.35608253012287,0.0,0.0,0.0,0.0,0.0,0.0,0.0,0.0,0.0,0.0,0.0,0.0,0.0,0.0,
1.8499,4.565118095292249,4.117121858342864,4.395429411478743,0.0,0.0,0.10304740650079688,4.359223121704619,0.0,0.0,0.0,0.0,0.0,0.0,0.0,0.0,0.0,0.0,0.0,0.0,0.0,0.0,
1.8658,4.568700916611256,4.119877973591294,4.398560364606465,0.0,0.0,0.10313161974470708,4.3623797516030045,0.0,0.0,0.0,0.0,0.0,0.0,0.0,0.0,0.0,0.0,0.0,0.0,0.0,0.0,
1.8818,4.572347840145033,4.122682758171161,4.40174658481938,0.0,0.0,0.10321699471491468,4.365592394378525,0.0,0.0,0.0,0.0,0.0,0.0,0.0,0.0,0.0,0.0,0.0,0.0,0.0,0.0,
1.8977,4.57601360438414,4.125501380895925,4.404948502926166,0.0,0.0,0.1033024588698239,4.3688211627354105,0.0,0.0,0.0,0.0,0.0,0.0,0.0,0.0,0.0,0.0,0.0,0.0,0.0,0.0,
