energies(eV),real_xx,real_yy,real_zz,real_xy,real_yz,real_xz,real_ave,imag_xx,imag_yy,imag_zz,imag_xy,imag_yz,imag_xz,imag_ave,absorption_xx,absorption_yy,absorption_zz,absorption_xy,absorption_yz,absorption_xz,absorption_ave,band_gap
0.0,2.243704355214228,2.1879420264390714,2.2786265636987997,0.0,0.0,0.0,2.2367576484506997,0.0,0.0,0.0,0.0,0.0,0.0,0.0,0.0,0.0,0.0,0.0,0.0,0.0,0.0,7.3457
0.0151,2.2437058168691237,2.1879433988296206,2.2786281201488205,0.0,0.0,0.0,2.2367591119491883,0.0,0.0,0.0,0.0,0.0,0.0,0.0,0.0,0.0,0.0,0.0,0.0,0.0,0.0,
0.0303,2.2437102406456395,2.1879475524430068,2.2786328308285677,0.0,0.0,0.0,2.2367635413057383,0.0,0.0,0.0,0.0,0.0,0.0,0.0,0.0,0.0,0.0,0.0,0.0,0.0,0.0,
0.0454,2.2437175684207205,2.187954432706319,2.2786406338476466,0.0,0.0,0.0,2.2367708783248954,0.0,0.0,0.0,0.0,0.0,0.0,0.0,0.0,0.0,0.0,0.0,0.0,0.0,0.0,
0.0605,2.2437278197583064,2.1879640579896393,2.278651550042513,0.0,0.0,0.0,2.23678114259682,0.0,0.0,0.0,0.0,0.0,0.0,0.0,0.0,0.0,0.0,0.0,0.0,0.0,0.0,
0.0757,2.243741091852734,2.187976519552875,2.2786656829163676,0.0,0.0,0.0,2.236794431440659,0.0,0.0,0.0,0.0,0.0,0.0,0.0,0.0,0.0,0.0,0.0,0.0,0.0,0.0,
0.0908,2.243757210324782,2.187991653667834,2.278682846787053,0.0,0.0,0.0,2.2368105702598897,0.0,0.0,0.0,0.0,0.0,0.0,0.0,0.0,0.0,0.0,0.0,0.0,0.0,0.0,
0.106,2.2437763889769267,2.1880096610820576,2.2787032693318947,0.0,0.0,0.0,2.236829773130293,0.0,0.0,0.0,0.0,0.0,0.0,0.0,0.0,0.0,0.0,0.0,0.0,0.0,0.0,
0.1211,2.2437983758249755,2.1880303052023664,2.278726682233131,0.0,0.0,0.0,2.236851787753491,0.0,0.0,0.0,0.0,0.0,0.0,0.0,0.0,0.0,0.0,0.0,0.0,0.0,0.0,
0.1362,2.2438232877813857,2.188053695804087,2.2787532099969203,0.0,0.0,0.0,2.236876731194131,0.0,0.0,0.0,0.0,0.0,0.0,0.0,0.0,0.0,0.0,0.0,0.0,0.0,0.0,
0.1514,2.2438513194300875,2.18808001559123,2.2787830598410643,0.0,0.0,0.0,2.2369047982874606,0.0,0.0,0.0,0.0,0.0,0.0,0.0,0.0,0.0,0.0,0.0,0.0,0.0,0.0,
0.1665,2.2438821024694526,2.1881089187574014,2.278815839589153,0.0,0.0,0.0,2.236935620272002,0.0,0.0,0.0,0.0,0.0,0.0,0.0,0.0,0.0,0.0,0.0,0.0,0.0,0.0,
0.1816,2.243915812219454,2.188140569919743,2.278851735948167,0.0,0.0,0.0,2.2369693726957878,0.0,0.0,0.0,0.0,0.0,0.0,0.0,0.0,0.0,0.0,0.0,0.0,0.0,0.0,
0.1968,2.24395270171416,2.188175206664411,2.2788910183831907,0.0,0.0,0.0,2.2370063089205874,0.0,0.0,0.0,0.0,0.0,0.0,0.0,0.0,0.0,0.0,0.0,0.0,0.0,0.0,
0.2119,2.2439922862709696,2.1882123739117127,2.2789331707898732,0.0,0.0,0.0,2.2370459436575185,0.0,0.0,0.0,0.0,0.0,0.0,0.0,0.0,0.0,0.0,0.0,0.0,0.0,0.0,
0.2271,2.2440350909575555,2.188252564670009,2.27897875231725,0.0,0.0,0.0,2.2370888026482714,0.0,0.0,0.0,0.0,0.0,0.0,0.0,0.0,0.0,0.0,0.0,0.0,0.0,0.0,
0.2422,2.244080553373241,2.188295250887715,2.2790271641019384,0.0,0.0,0.0,2.2371343227876315,0.0,0.0,0.0,0.0,0.0,0.0,0.0,0.0,0.0,0.0,0.0,0.0,0.0,0.0,
0.2573,2.2441289462997007,2.1883406886942973,2.279078696644197,0.0,0.0,0.0,2.2371827772127317,0.0,0.0,0.0,0.0,0.0,0.0,0.0,0.0,0.0,0.0,0.0,0.0,0.0,0.0,
0.2725,2.244180620333773,2.188389207283733,2.27913372331263,0.0,0.0,0.0,2.237234516976712,0.0,0.0,0.0,0.0,0.0,0.0,0.0,0.0,0.0,0.0,0.0,0.0,0.0,0.0,
0.2876,2.2442348965431442,2.1884401691887567,2.2791915211515272,0.0,0.0,0.0,2.237288862294476,0.0,0.0,0.0,0.0,0.0,0.0,0.0,0.0,0.0,0.0,0.0,0.0,0.0,0.0,
0.3027,2.244292106221136,2.1884938854791045,2.279252442975543,0.0,0.0,0.0,2.237346144891928,0.0,0.0,0.0,0.0,0.0,0.0,0.0,0.0,0.0,0.0,0.0,0.0,0.0,0.0,
0.3179,2.244352658554887,2.188550740363439,2.279316924553541,0.0,0.0,0.0,2.2374067744906223,0.0,0.0,0.0,0.0,0.0,0.0,0.0,0.0,0.0,0.0,0.0,0.0,0.0,0.0,
0.333,2.244415757963165,2.1886099868479194,2.2793841187095163,0.0,0.0,0.0,2.237469954506867,0.0,0.0,0.0,0.0,0.0,0.0,0.0,0.0,0.0,0.0,0.0,0.0,0.0,0.0,
0.3481,2.2444817943086797,2.1886719909972028,2.279454440635558,0.0,0.0,0.0,2.237536075313814,0.0,0.0,0.0,0.0,0.0,0.0,0.0,0.0,0.0,0.0,0.0,0.0,0.0,0.0,
0.3633,2.2445512354402024,2.1887371921020615,2.2795283885786204,0.0,0.0,0.0,2.2376056053736284,0.0,0.0,0.0,0.0,0.0,0.0,0.0,0.0,0.0,0.0,0.0,0.0,0.0,0.0,
0.3784,2.244623168990074,2.1888047335121064,2.2796049909923424,0.0,0.0,0.0,2.237677631164841,0.0,0.0,0.0,0.0,0.0,0.0,0.0,0.0,0.0,0.0,0.0,0.0,0.0,0.0,
0.3936,2.24469854912163,2.1888755111402904,2.279685264007096,0.0,0.0,0.0,2.237753108089672,0.0,0.0,0.0,0.0,0.0,0.0,0.0,0.0,0.0,0.0,0.0,0.0,0.0,0.0,
0.4087,2.2447763854372855,2.1889485950694922,2.2797681529771694,0.0,0.0,0.0,2.237831044494649,0.0,0.0,0.0,0.0,0.0,0.0,0.0,0.0,0.0,0.0,0.0,0.0,0.0,0.0,
0.4238,2.244857165614743,2.1890244432107715,2.279854177273468,0.0,0.0,0.0,2.2379119286996607,0.0,0.0,0.0,0.0,0.0,0.0,0.0,0.0,0.0,0.0,0.0,0.0,0.0,0.0,
0.439,2.244941455501918,2.1891035868754334,2.2799439395226773,0.0,0.0,0.0,2.2379963273000096,0.0,0.0,0.0,0.0,0.0,0.0,0.0,0.0,0.0,0.0,0.0,0.0,0.0,0.0,
0.4541,2.245028147640241,2.1891849862302584,2.2800362604091804,0.0,0.0,0.0,2.23808313142656,0.0,0.0,0.0,0.0,0.0,0.0,0.0,0.0,0.0,0.0,0.0,0.0,0.0,0.0,
0.4692,2.245117788481143,2.189269154374431,2.280131721904277,0.0,0.0,0.0,2.2381728882532834,0.0,0.0,0.0,0.0,0.0,0.0,0.0,0.0,0.0,0.0,0.0,0.0,0.0,0.0,
0.4844,2.2452110027749814,2.1893566779291516,2.2802309893755615,0.0,0.0,0.0,2.238266223359898,0.0,0.0,0.0,0.0,0.0,0.0,0.0,0.0,0.0,0.0,0.0,0.0,0.0,0.0,
0.4995,2.245306565810317,2.1894464069636266,2.280332758628054,0.0,0.0,0.0,2.2383619104673325,0.0,0.0,0.0,0.0,0.0,0.0,0.0,0.0,0.0,0.0,0.0,0.0,0.0,0.0,
0.5147,2.245405745189597,2.1895395317072603,2.2804383796360943,0.0,0.0,0.0,2.2384612188443174,0.0,0.0,0.0,0.0,0.0,0.0,0.0,0.0,0.0,0.0,0.0,0.0,0.0,0.0,
0.5298,2.245507237829746,2.1896348286394938,2.280546464732503,0.0,0.0,0.0,2.2385628437339142,0.0,0.0,0.0,0.0,0.0,0.0,0.0,0.0,0.0,0.0,0.0,0.0,0.0,0.0,
0.5449,2.2456116883991903,2.1897329030861368,2.280657700506092,0.0,0.0,0.0,2.2386674306638064,0.0,0.0,0.0,0.0,0.0,0.0,0.0,0.0,0.0,0.0,0.0,0.0,0.0,0.0,
0.5601,2.2457198201106614,2.1898344341270515,2.2807728572097363,0.0,0.0,0.0,2.2387757038158167,0.0,0.0,0.0,0.0,0.0,0.0,0.0,0.0,0.0,0.0,0.0,0.0,0.0,0.0,
0.5752,2.2458302122623905,2.189938087798226,2.280890421897726,0.0,0.0,0.0,2.2388862406527807,0.0,0.0,0.0,0.0,0.0,0.0,0.0,0.0,0.0,0.0,0.0,0.0,0.0,0.0,
0.5903,2.245943568574617,2.190044524876652,2.281011144062791,0.0,0.0,0.0,2.23899974583802,0.0,0.0,0.0,0.0,0.0,0.0,0.0,0.0,0.0,0.0,0.0,0.0,0.0,0.0,
0.6055,2.2460606714775997,2.1901544800500803,2.281135857042498,0.0,0.0,0.0,2.239117002856726,0.0,0.0,0.0,0.0,0.0,0.0,0.0,0.0,0.0,0.0,0.0,0.0,0.0,0.0,
0.6206,2.2461799824038304,2.1902665086774817,2.281262922343084,0.0,0.0,0.0,2.2392364711414654,0.0,0.0,0.0,0.0,0.0,0.0,0.0,0.0,0.0,0.0,0.0,0.0,0.0,0.0,
0.6357,2.246302264248831,2.1903813271038155,2.281393152495892,0.0,0.0,0.0,2.2393589146161794,0.0,0.0,0.0,0.0,0.0,0.0,0.0,0.0,0.0,0.0,0.0,0.0,0.0,0.0,
0.6509,2.2464283587978517,2.1904997257547896,2.2815274440732916,0.0,0.0,0.0,2.2394851762086443,0.0,0.0,0.0,0.0,0.0,0.0,0.0,0.0,0.0,0.0,0.0,0.0,0.0,0.0,
0.666,2.2465566093497418,2.1906201490589847,2.2816640327410327,0.0,0.0,0.0,2.2396135970499196,0.0,0.0,0.0,0.0,0.0,0.0,0.0,0.0,0.0,0.0,0.0,0.0,0.0,0.0,
0.6812,2.2466887171065504,2.190744194409845,2.2818047303697866,0.0,0.0,0.0,2.239745880628728,0.0,0.0,0.0,0.0,0.0,0.0,0.0,0.0,0.0,0.0,0.0,0.0,0.0,0.0,
0.6963,2.2468229463651115,2.190870232050096,2.2819476884652374,0.0,0.0,0.0,2.239880288960148,0.0,0.0,0.0,0.0,0.0,0.0,0.0,0.0,0.0,0.0,0.0,0.0,0.0,0.0,
0.7114,2.2469601589932413,2.190999071265773,2.2820938250005054,0.0,0.0,0.0,2.2400176850865066,0.0,0.0,0.0,0.0,0.0,0.0,0.0,0.0,0.0,0.0,0.0,0.0,0.0,0.0,
0.7266,2.2471012960795953,2.191131595736868,2.282244142351079,0.0,0.0,0.0,2.240159011389181,0.0,0.0,0.0,0.0,0.0,0.0,0.0,0.0,0.0,0.0,0.0,0.0,0.0,0.0,
0.7417,2.247244503293784,2.191266064308895,2.28239666564353,0.0,0.0,0.0,2.2403024110820695,0.0,0.0,0.0,0.0,0.0,0.0,0.0,0.0,0.0,0.0,0.0,0.0,0.0,0.0,
0.7568,2.247390702060173,2.191403342196593,2.2825523763057443,0.0,0.0,0.0,2.24044880685417,0.0,0.0,0.0,0.0,0.0,0.0,0.0,0.0,0.0,0.0,0.0,0.0,0.0,0.0,
0.772,2.2475408932416205,2.1915443692145,2.2827123404054825,0.0,0.0,0.0,2.2405992009538678,0.0,0.0,0.0,0.0,0.0,0.0,0.0,0.0,0.0,0.0,0.0,0.0,0.0,0.0,
0.7871,2.247693103556084,2.1916872925041404,2.282874456336183,0.0,0.0,0.0,2.240751617465469,0.0,0.0,0.0,0.0,0.0,0.0,0.0,0.0,0.0,0.0,0.0,0.0,0.0,0.0,
0.8023,2.2478493520390486,2.191834007931908,2.283040874608078,0.0,0.0,0.0,2.2409080781930117,0.0,0.0,0.0,0.0,0.0,0.0,0.0,0.0,0.0,0.0,0.0,0.0,0.0,0.0,
0.8174,2.2480075858289448,2.1919825879072077,2.283209408824278,0.0,0.0,0.0,2.2410665275201436,0.0,0.0,0.0,0.0,0.0,0.0,0.0,0.0,0.0,0.0,0.0,0.0,0.0,0.0,
0.8325,2.2481688260218946,2.1921339912476334,2.2833811466178062,0.0,0.0,0.0,2.2412279879624446,0.0,0.0,0.0,0.0,0.0,0.0,0.0,0.0,0.0,0.0,0.0,0.0,0.0,0.0,
0.8477,2.248334173547472,2.1922892517442767,2.2835572606926444,0.0,0.0,0.0,2.241393561994798,0.0,0.0,0.0,0.0,0.0,0.0,0.0,0.0,0.0,0.0,0.0,0.0,0.0,0.0,
0.8628,2.248501456003714,2.192446329545645,2.2837354372762686,0.0,0.0,0.0,2.241561074275209,0.0,0.0,0.0,0.0,0.0,0.0,0.0,0.0,0.0,0.0,0.0,0.0,0.0,0.0,
0.8779,2.248671754501407,2.1926062398314805,2.283916827956445,0.0,0.0,0.0,2.2417316074297773,0.0,0.0,0.0,0.0,0.0,0.0,0.0,0.0,0.0,0.0,0.0,0.0,0.0,0.0,
0.8931,2.248846230241099,2.192770072997554,2.2841026696716002,0.0,0.0,0.0,2.241906324303418,0.0,0.0,0.0,0.0,0.0,0.0,0.0,0.0,0.0,0.0,0.0,0.0,0.0,0.0,
0.9082,2.249022590898382,2.192935676570021,2.2842905208566284,0.0,0.0,0.0,2.242082929441677,0.0,0.0,0.0,0.0,0.0,0.0,0.0,0.0,0.0,0.0,0.0,0.0,0.0,0.0,
0.9234,2.249203175878015,2.1931052472875363,2.2844828734288685,0.0,0.0,0.0,2.242263765531473,0.0,0.0,0.0,0.0,0.0,0.0,0.0,0.0,0.0,0.0,0.0,0.0,0.0,0.0,
0.9385,2.2493856125957583,2.19327655730057,2.2846772002904374,0.0,0.0,0.0,2.242446456728922,0.0,0.0,0.0,0.0,0.0,0.0,0.0,0.0,0.0,0.0,0.0,0.0,0.0,0.0,
0.9536,2.2495710826630777,2.1934507161761854,2.2848747601389436,0.0,0.0,0.0,2.242632186326069,0.0,0.0,0.0,0.0,0.0,0.0,0.0,0.0,0.0,0.0,0.0,0.0,0.0,0.0,
0.9688,2.2497608482414906,2.193628909133059,2.2850768975250793,0.0,0.0,0.0,2.2428222182998763,0.0,0.0,0.0,0.0,0.0,0.0,0.0,0.0,0.0,0.0,0.0,0.0,0.0,0.0,
0.9839,2.24995241613819,2.193808795050166,2.285280956809555,0.0,0.0,0.0,2.2430140559993035,0.0,0.0,0.0,0.0,0.0,0.0,0.0,0.0,0.0,0.0,0.0,0.0,0.0,0.0,
0.999,2.2501470285159177,2.1939915403645873,2.285488261230392,0.0,0.0,0.0,2.243208943370299,0.0,0.0,0.0,0.0,0.0,0.0,0.0,0.0,0.0,0.0,0.0,0.0,0.0,0.0,
1.0142,2.2503460083834983,2.1941783874452563,2.2857002202018517,0.0,0.0,0.0,2.243408205343535,0.0,0.0,0.0,0.0,0.0,0.0,0.0,0.0,0.0,0.0,0.0,0.0,0.0,0.0,
1.0293,2.250546741498333,2.1943668814820834,2.2859140490616134,0.0,0.0,0.0,2.2436092240140098,0.0,0.0,0.0,0.0,0.0,0.0,0.0,0.0,0.0,0.0,0.0,0.0,0.0,0.0,
1.0444,2.250750530796234,2.194558245992197,2.286131135830295,0.0,0.0,0.0,2.2438133042062423,0.0,0.0,0.0,0.0,0.0,0.0,0.0,0.0,0.0,0.0,0.0,0.0,0.0,0.0,
1.0596,2.2509587603704073,2.1947537807191573,2.2863529550443875,0.0,0.0,0.0,2.2440218320446506,0.0,0.0,0.0,0.0,0.0,0.0,0.0,0.0,0.0,0.0,0.0,0.0,0.0,0.0,
1.0747,2.251168694464556,2.1949509167248578,2.286576592512317,0.0,0.0,0.0,2.2442320679005765,0.0,0.0,0.0,0.0,0.0,0.0,0.0,0.0,0.0,0.0,0.0,0.0,0.0,0.0,
1.0899,2.251383117870984,2.195152269065951,2.286805014913141,0.0,0.0,0.0,2.244446800616692,0.0,0.0,0.0,0.0,0.0,0.0,0.0,0.0,0.0,0.0,0.0,0.0,0.0,0.0,
1.105,2.251599213465666,2.1953551923802097,2.287035221313283,0.0,0.0,0.0,2.244663209053053,0.0,0.0,0.0,0.0,0.0,0.0,0.0,0.0,0.0,0.0,0.0,0.0,0.0,0.0,
1.1201,2.251818386042109,2.195561005856685,2.287268708324409,0.0,0.0,0.0,2.244882700074401,0.0,0.0,0.0,0.0,0.0,0.0,0.0,0.0,0.0,0.0,0.0,0.0,0.0,0.0,
1.1353,2.2520421221043545,2.1957711054345443,2.2875070596778486,0.0,0.0,0.0,2.2451067624055825,0.0,0.0,0.0,0.0,0.0,0.0,0.0,0.0,0.0,0.0,0.0,0.0,0.0,0.0,
1.1504,2.2522674821902706,2.195982730843193,2.287747144010904,0.0,0.0,0.0,2.2453324523481224,0.0,0.0,0.0,0.0,0.0,0.0,0.0,0.0,0.0,0.0,0.0,0.0,0.0,0.0,
1.1655,2.2524959325146057,2.1961972589654133,2.2879905234252678,0.0,0.0,0.0,2.2455612383017622,0.0,0.0,0.0,0.0,0.0,0.0,0.0,0.0,0.0,0.0,0.0,0.0,0.0,0.0,
1.1807,2.2527290213552273,2.1964161437679213,2.288238847527183,0.0,0.0,0.0,2.2457946708834435,0.0,0.0,0.0,0.0,0.0,0.0,0.0,0.0,0.0,0.0,0.0,0.0,0.0,0.0,
1.1958,2.2529636863864617,2.1966365095743603,2.2884888539512867,0.0,0.0,0.0,2.246029683304036,0.0,0.0,0.0,0.0,0.0,0.0,0.0,0.0,0.0,0.0,0.0,0.0,0.0,0.0,
1.211,2.2532030404957952,2.1968612796270346,2.2887438592165923,0.0,0.0,0.0,2.2462693931131406,0.0,0.0,0.0,0.0,0.0,0.0,0.0,0.0,0.0,0.0,0.0,0.0,0.0,0.0,
1.2261,2.2534439390542884,2.19708750093982,2.2890005131945874,0.0,0.0,0.0,2.2465106510628985,0.0,0.0,0.0,0.0,0.0,0.0,0.0,0.0,0.0,0.0,0.0,0.0,0.0,0.0,
1.2412,2.2536879512846593,2.1973166471567143,2.2892604878336344,0.0,0.0,0.0,2.246755028758336,0.0,0.0,0.0,0.0,0.0,0.0,0.0,0.0,0.0,0.0,0.0,0.0,0.0,0.0,
1.2564,2.2539367290959724,2.1975502695959257,2.2895255432670316,0.0,0.0,0.0,2.2470041806529766,0.0,0.0,0.0,0.0,0.0,0.0,0.0,0.0,0.0,0.0,0.0,0.0,0.0,0.0,
1.2715,2.2541870040669636,2.1977852989861564,2.289792197349759,0.0,0.0,0.0,2.2472548334676263,0.0,0.0,0.0,0.0,0.0,0.0,0.0,0.0,0.0,0.0,0.0,0.0,0.0,0.0,
1.2866,2.254440407573797,2.1980232673586597,2.2900621883195362,0.0,0.0,0.0,2.247508621083998,0.0,0.0,0.0,0.0,0.0,0.0,0.0,0.0,0.0,0.0,0.0,0.0,0.0,0.0,
1.3018,2.254698654074401,2.198265784793375,2.2903373430306213,0.0,0.0,0.0,2.247767260632799,0.0,0.0,0.0,0.0,0.0,0.0,0.0,0.0,0.0,0.0,0.0,0.0,0.0,0.0,
1.3169,2.254958350766012,2.1985096651759335,2.2906140466783764,0.0,0.0,0.0,2.248027354206774,0.0,0.0,0.0,0.0,0.0,0.0,0.0,0.0,0.0,0.0,0.0,0.0,0.0,0.0,
1.332,2.255221191475094,2.1987564992060156,2.290894104113907,0.0,0.0,0.0,2.248290598265006,0.0,0.0,0.0,0.0,0.0,0.0,0.0,0.0,0.0,0.0,0.0,0.0,0.0,0.0,
1.3472,2.255488953521607,2.1990079560220956,2.291179409254336,0.0,0.0,0.0,2.2485587729326797,0.0,0.0,0.0,0.0,0.0,0.0,0.0,0.0,0.0,0.0,0.0,0.0,0.0,0.0,
1.3623,2.2557581191077376,2.1992607320855746,2.2914662139656388,0.0,0.0,0.0,2.2488283550529835,0.0,0.0,0.0,0.0,0.0,0.0,0.0,0.0,0.0,0.0,0.0,0.0,0.0,0.0,
1.3775,2.2560322588464383,2.1995181806403625,2.2917583229964986,0.0,0.0,0.0,2.2491029208277666,0.0,0.0,0.0,0.0,0.0,0.0,0.0,0.0,0.0,0.0,0.0,0.0,0.0,0.0,
1.3926,2.256307771164446,2.1997769194438153,2.2920518988426233,0.0,0.0,0.0,2.249378863150295,0.0,0.0,0.0,0.0,0.0,0.0,0.0,0.0,0.0,0.0,0.0,0.0,0.0,0.0,
1.4077,2.25658645471163,2.200038637676844,2.292348858183748,0.0,0.0,0.0,2.249657983524074,0.0,0.0,0.0,0.0,0.0,0.0,0.0,0.0,0.0,0.0,0.0,0.0,0.0,0.0,
1.4229,2.2568701923551577,2.200305103644933,2.292651207555736,0.0,0.0,0.0,2.2499421678519425,0.0,0.0,0.0,0.0,0.0,0.0,0.0,0.0,0.0,0.0,0.0,0.0,0.0,0.0,
1.438,2.257155256448258,2.2005728166596095,2.292954974947623,0.0,0.0,0.0,2.2502276826851637,0.0,0.0,0.0,0.0,0.0,0.0,0.0,0.0,0.0,0.0,0.0,0.0,0.0,0.0,
1.4531,2.2574435089438833,2.2008435253783736,2.2932621445834775,0.0,0.0,0.0,2.2505163929685783,0.0,0.0,0.0,0.0,0.0,0.0,0.0,0.0,0.0,0.0,0.0,0.0,0.0,0.0,
1.4683,2.257736896469041,2.2011190580162143,2.29357479104232,0.0,0.0,0.0,2.250810248509192,0.0,0.0,0.0,0.0,0.0,0.0,0.0,0.0,0.0,0.0,0.0,0.0,0.0,0.0,
1.4834,2.2580315646228915,2.2013957947939633,2.2938888070634125,0.0,0.0,0.0,2.251105388826756,0.0,0.0,0.0,0.0,0.0,0.0,0.0,0.0,0.0,0.0,0.0,0.0,0.0,0.0,
1.4986,2.258331422383102,2.201677406870245,2.294208358446445,0.0,0.0,0.0,2.251405729233264,0.0,0.0,0.0,0.0,0.0,0.0,0.0,0.0,0.0,0.0,0.0,0.0,0.0,0.0,
1.5137,2.258632530361595,2.2019601946136858,2.294529247237549,0.0,0.0,0.0,2.2517073240709435,0.0,0.0,0.0,0.0,0.0,0.0,0.0,0.0,0.0,0.0,0.0,0.0,0.0,0.0,
1.5288,2.2589368568325257,2.2022460065826714,2.29485357112467,0.0,0.0,0.0,2.2520121448466224,0.0,0.0,0.0,0.0,0.0,0.0,0.0,0.0,0.0,0.0,0.0,0.0,0.0,0.0,
1.544,2.2592464555444702,2.2025367716518236,2.2951835190244756,0.0,0.0,0.0,2.2523222487402568,0.0,0.0,0.0,0.0,0.0,0.0,0.0,0.0,0.0,0.0,0.0,0.0,0.0,0.0,
1.5591,2.259557259162885,2.2028286699689907,2.2955147564315723,0.0,0.0,0.0,2.252633561854483,0.0,0.0,0.0,0.0,0.0,0.0,0.0,0.0,0.0,0.0,0.0,0.0,0.0,0.0,
1.5742,2.2598713002095616,2.203123610464691,2.295849449609582,0.0,0.0,0.0,2.2529481200946115,0.0,0.0,0.0,0.0,0.0,0.0,0.0,0.0,0.0,0.0,0.0,0.0,0.0,0.0,
1.5894,2.260190697184446,2.203423582863286,2.296189856600884,0.0,0.0,0.0,2.253268045549539,0.0,0.0,0.0,0.0,0.0,0.0,0.0,0.0,0.0,0.0,0.0,0.0,0.0,0.0,
1.6045,2.2605112540561265,2.203724646380521,2.2965315055292312,0.0,0.0,0.0,2.2535891353219597,0.0,0.0,0.0,0.0,0.0,0.0,0.0,0.0,0.0,0.0,0.0,0.0,0.0,0.0,
1.6196,2.2608350679726343,2.204028770678107,2.2968766316473417,0.0,0.0,0.0,2.253913490099361,0.0,0.0,0.0,0.0,0.0,0.0,0.0,0.0,0.0,0.0,0.0,0.0,0.0,0.0,
1.6348,2.2611643225819646,2.2043380067064353,2.2972275625564356,0.0,0.0,0.0,2.254243297281612,0.0,0.0,0.0,0.0,0.0,0.0,0.0,0.0,0.0,0.0,0.0,0.0,0.0,0.0,
1.6499,2.261494692378516,2.2046482920121866,2.2975796881607007,0.0,0.0,0.0,2.254574224183801,0.0,0.0,0.0,0.0,0.0,0.0,0.0,0.0,0.0,0.0,0.0,0.0,0.0,0.0,
1.6651,2.2618305600520143,2.2049637429084474,2.297937679943324,0.0,0.0,0.0,2.2549106609679286,0.0,0.0,0.0,0.0,0.0,0.0,0.0,0.0,0.0,0.0,0.0,0.0,0.0,0.0,
1.6802,2.262167513239622,2.2052802153168916,2.2982968350736157,0.0,0.0,0.0,2.2552481878767097,0.0,0.0,0.0,0.0,0.0,0.0,0.0,0.0,0.0,0.0,0.0,0.0,0.0,0.0,
1.6953,2.262507757726405,2.205599780996427,2.298659504796753,0.0,0.0,0.0,2.255589014506528,0.0,0.0,0.0,0.0,0.0,0.0,0.0,0.0,0.0,0.0,0.0,0.0,0.0,0.0,
1.7105,2.2628535867085664,2.2059245938590077,2.2990281337013636,0.0,0.0,0.0,2.255935438089646,0.0,0.0,0.0,0.0,0.0,0.0,0.0,0.0,0.0,0.0,0.0,0.0,0.0,0.0,
1.7256,2.2632004569918593,2.206250386870049,2.2993978792552197,0.0,0.0,0.0,2.2562829077057094,0.0,0.0,0.0,0.0,0.0,0.0,0.0,0.0,0.0,0.0,0.0,0.0,0.0,0.0,
1.7407,2.2635506400649197,2.2065792935417607,2.299771162868974,0.0,0.0,0.0,2.256633698825218,0.0,0.0,0.0,0.0,0.0,0.0,0.0,0.0,0.0,0.0,0.0,0.0,0.0,0.0,
1.7559,2.2639064953992527,2.2069135300818274,2.3001504999210463,0.0,0.0,0.0,2.256990175134042,0.0,0.0,0.0,0.0,0.0,0.0,0.0,0.0,0.0,0.0,0.0,0.0,0.0,0.0,
1.771,2.2642633481176526,2.207248705691703,2.300530907247837,0.0,0.0,0.0,2.257347653685731,0.0,0.0,0.0,0.0,0.0,0.0,0.0,0.0,0.0,0.0,0.0,0.0,0.0,0.0,
1.7862,2.264625932324444,2.2075892669754316,2.300917431632577,0.0,0.0,0.0,2.2577108769774843,0.0,0.0,0.0,0.0,0.0,0.0,0.0,0.0,0.0,0.0,0.0,0.0,0.0,0.0,
1.8013,2.2649894847691634,2.207930740071307,2.3013049955213276,0.0,0.0,0.0,2.2580750734539325,0.0,0.0,0.0,0.0,0.0,0.0,0.0,0.0,0.0,0.0,0.0,0.0,0.0,0.0,
1.8164,2.265356387457949,2.2082753623732754,2.30169613837068,0.0,0.0,0.0,2.258442629400635,0.0,0.0,0.0,0.0,0.0,0.0,0.0,0.0,0.0,0.0,0.0,0.0,0.0,0.0,
1.8316,2.2657291113761704,2.208625454916449,2.3020934946930236,0.0,0.0,0.0,2.2588160203285477,0.0,0.0,0.0,0.0,0.0,0.0,0.0,0.0,0.0,0.0,0.0,0.0,0.0,0.0,
1.8467,2.266102760106514,2.208976418667114,2.302491844682669,0.0,0.0,0.0,2.259190341152099,0.0,0.0,0.0,0.0,0.0,0.0,0.0,0.0,0.0,0.0,0.0,0.0,0.0,0.0,
1.8618,2.2664797825380623,2.2093305538919976,2.3028937992495653,0.0,0.0,0.0,2.259568045226542,0.0,0.0,0.0,0.0,0.0,0.0,0.0,0.0,0.0,0.0,0.0,0.0,0.0,0.0,
1.877,2.26686271716317,2.209690245091452,2.303302065041006,0.0,0.0,0.0,2.2599516757652096,0.0,0.0,0.0,0.0,0.0,0.0,0.0,0.0,0.0,0.0,0.0,0.0,0.0,0.0,
1.8921,2.2672465334683336,2.2100507671777123,2.3037112789846663,0.0,0.0,0.0,2.2603361932102373,0.0,0.0,0.0,0.0,0.0,0.0,0.0,0.0,0.0,0.0,0.0,0.0,0.0,0.0,
1.9072,2.267633747695057,2.210414483736097,2.3041241239565813,0.0,0.0,0.0,2.2607241184625786,0.0,0.0,0.0,0.0,0.0,0.0,0.0,0.0,0.0,0.0,0.0,0.0,0.0,0.0,
1.9224,2.2680269663324317,2.2107838431974396,2.3045433792737904,0.0,0.0,0.0,2.2611180629345538,0.0,0.0,0.0,0.0,0.0,0.0,0.0,0.0,0.0,0.0,0.0,0.0,0.0,0.0,
1.9375,2.268421023811322,2.2111539935090225,2.304963537549521,0.0,0.0,0.0,2.2615128516232885,0.0,0.0,0.0,0.0,0.0,0.0,0.0,0.0,0.0,0.0,0.0,0.0,0.0,0.0,
1.9527,2.2688211479590246,2.211529845419328,2.305390173102344,0.0,0.0,0.0,2.2619137221602323,0.0,0.0,0.0,0.0,0.0,0.0,0.0,0.0,0.0,0.0,0.0,0.0,0.0,0.0,
1.9678,2.2692220825210385,2.211906461617729,2.3058176816301814,0.0,0.0,0.0,2.2623154085896497,0.0,0.0,0.0,0.0,0.0,0.0,0.0,0.0,0.0,0.0,0.0,0.0,0.0,0.0,
