energies(eV),real_xx,real_yy,real_zz,real_xy,real_yz,real_xz,real_ave,imag_xx,imag_yy,imag_zz,imag_xy,imag_yz,imag_xz,imag_ave,absorption_xx,absorption_yy,absorption_zz,absorption_xy,absorption_yz,absorption_xz,absorption_ave,band_gap
0.0,4.539097984484867,4.539097984484867,4.189357749825871,0.0,0.0,0.0,4.422517906265202,0.0,0.0,0.0,0.0,0.0,0.0,0.0,0.0,0.0,0.0,0.0,0.0,0.0,0.0,4.8426
0.0199,4.539121138450043,4.539121138450043,4.189377411303328,0.0,0.0,0.0,4.422539896067804,0.0,0.0,0.0,0.0,0.0,0.0,0.0,0.0,0.0,0.0,0.0,0.0,0.0,0.0,
0.0397,4.539190138076117,4.539190138076117,4.189436003127325,0.0,0.0,0.0,4.42260542642652,0.0,0.0,0.0,0.0,0.0,0.0,0.0,0.0,0.0,0.0,0.0,0.0,0.0,0.0,
0.0596,4.539305688031623,4.539305688031623,4.189534123474369,0.0,0.0,0.0,4.422715166512538,0.0,0.0,0.0,0.0,0.0,0.0,0.0,0.0,0.0,0.0,0.0,0.0,0.0,0.0,
0.0795,4.539467569085908,4.539467569085908,4.189671585845974,0.0,0.0,0.0,4.42286890800593,0.0,0.0,0.0,0.0,0.0,0.0,0.0,0.0,0.0,0.0,0.0,0.0,0.0,0.0,
0.0993,4.539674637011647,4.539674637011647,4.189847418149926,0.0,0.0,0.0,4.423065564057739,0.0,0.0,0.0,0.0,0.0,0.0,0.0,0.0,0.0,0.0,0.0,0.0,0.0,0.0,
0.1192,4.539929006533857,4.539929006533857,4.19006341550763,0.0,0.0,0.0,4.423307142858448,0.0,0.0,0.0,0.0,0.0,0.0,0.0,0.0,0.0,0.0,0.0,0.0,0.0,0.0,
0.1391,4.540229776726408,4.540229776726408,4.1903188121522845,0.0,0.0,0.0,4.423592788535033,0.0,0.0,0.0,0.0,0.0,0.0,0.0,0.0,0.0,0.0,0.0,0.0,0.0,0.0,
0.1589,4.540575120291763,4.540575120291763,4.1906120555914885,0.0,0.0,0.0,4.423920765391672,0.0,0.0,0.0,0.0,0.0,0.0,0.0,0.0,0.0,0.0,0.0,0.0,0.0,0.0,
0.1788,4.540968564172004,4.540968564172004,4.190946139668737,0.0,0.0,0.0,4.424294422670915,0.0,0.0,0.0,0.0,0.0,0.0,0.0,0.0,0.0,0.0,0.0,0.0,0.0,0.0,
0.1987,4.541408524896413,4.541408524896413,4.191319718648732,0.0,0.0,0.0,4.424712256147186,0.0,0.0,0.0,0.0,0.0,0.0,0.0,0.0,0.0,0.0,0.0,0.0,0.0,0.0,
0.2186,4.541895051686231,4.541895051686231,4.1917328330411685,0.0,0.0,0.0,4.425174312137877,0.0,0.0,0.0,0.0,0.0,0.0,0.0,0.0,0.0,0.0,0.0,0.0,0.0,0.0,
0.2384,4.542425403232061,4.542425403232061,4.192183153797895,0.0,0.0,0.0,4.425677986754006,0.0,0.0,0.0,0.0,0.0,0.0,0.0,0.0,0.0,0.0,0.0,0.0,0.0,0.0,
0.2583,4.543004996090193,4.543004996090193,4.192675278555864,0.0,0.0,0.0,4.42622842357875,0.0,0.0,0.0,0.0,0.0,0.0,0.0,0.0,0.0,0.0,0.0,0.0,0.0,0.0,
0.2782,4.543631333892094,4.543631333892094,4.193207085938762,0.0,0.0,0.0,4.426823251240983,0.0,0.0,0.0,0.0,0.0,0.0,0.0,0.0,0.0,0.0,0.0,0.0,0.0,0.0,
0.298,4.544300987095426,4.544300987095426,4.193775662244557,0.0,0.0,0.0,4.427459212145136,0.0,0.0,0.0,0.0,0.0,0.0,0.0,0.0,0.0,0.0,0.0,0.0,0.0,0.0,
0.3179,4.545020795166281,4.545020795166281,4.19438681262711,0.0,0.0,0.0,4.428142800986557,0.0,0.0,0.0,0.0,0.0,0.0,0.0,0.0,0.0,0.0,0.0,0.0,0.0,0.0,
0.3378,4.545787574651244,4.545787574651244,4.1950378319988655,0.0,0.0,0.0,4.428870993767117,0.0,0.0,0.0,0.0,0.0,0.0,0.0,0.0,0.0,0.0,0.0,0.0,0.0,0.0,
0.3576,4.546597204448666,4.546597204448666,4.195725219263446,0.0,0.0,0.0,4.429639876053593,0.0,0.0,0.0,0.0,0.0,0.0,0.0,0.0,0.0,0.0,0.0,0.0,0.0,0.0,
0.3775,4.547457953969737,4.547457953969737,4.196455992877356,0.0,0.0,0.0,4.430457300272276,0.0,0.0,0.0,0.0,0.0,0.0,0.0,0.0,0.0,0.0,0.0,0.0,0.0,0.0,
0.3974,4.54836594962196,4.54836594962196,4.197226861524722,0.0,0.0,0.0,4.431319586922881,0.0,0.0,0.0,0.0,0.0,0.0,0.0,0.0,0.0,0.0,0.0,0.0,0.0,0.0,
0.4172,4.549316374737561,4.549316374737561,4.198033733413762,0.0,0.0,0.0,4.4322221609629615,0.0,0.0,0.0,0.0,0.0,0.0,0.0,0.0,0.0,0.0,0.0,0.0,0.0,0.0,
0.4371,4.550318937208128,4.550318937208128,4.198884847322471,0.0,0.0,0.0,4.433174240579576,0.0,0.0,0.0,0.0,0.0,0.0,0.0,0.0,0.0,0.0,0.0,0.0,0.0,0.0,
0.457,4.551369069572024,4.551369069572024,4.199776322632607,0.0,0.0,0.0,4.434171487258885,0.0,0.0,0.0,0.0,0.0,0.0,0.0,0.0,0.0,0.0,0.0,0.0,0.0,0.0,
0.4768,4.552461254896929,4.552461254896929,4.2007034729868185,0.0,0.0,0.0,4.435208660926892,0.0,0.0,0.0,0.0,0.0,0.0,0.0,0.0,0.0,0.0,0.0,0.0,0.0,0.0,
0.4967,4.553606649615938,4.553606649615938,4.201675765756772,0.0,0.0,0.0,4.436296354996216,0.0,0.0,0.0,0.0,0.0,0.0,0.0,0.0,0.0,0.0,0.0,0.0,0.0,0.0,
0.5166,4.554799987982031,4.554799987982031,4.20268872738316,0.0,0.0,0.0,4.437429567782408,0.0,0.0,0.0,0.0,0.0,0.0,0.0,0.0,0.0,0.0,0.0,0.0,0.0,0.0,
0.5365,4.556041406107504,4.556041406107504,4.203742469822565,0.0,0.0,0.0,4.438608427345858,0.0,0.0,0.0,0.0,0.0,0.0,0.0,0.0,0.0,0.0,0.0,0.0,0.0,0.0,
0.5563,4.557324444448485,4.557324444448485,4.204831506601976,0.0,0.0,0.0,4.439826798499649,0.0,0.0,0.0,0.0,0.0,0.0,0.0,0.0,0.0,0.0,0.0,0.0,0.0,0.0,
0.5762,4.558662209994164,4.558662209994164,4.205966958996418,0.0,0.0,0.0,4.441097126328249,0.0,0.0,0.0,0.0,0.0,0.0,0.0,0.0,0.0,0.0,0.0,0.0,0.0,0.0,
0.5961,4.56004849747692,4.56004849747692,4.207143555867399,0.0,0.0,0.0,4.442413516940413,0.0,0.0,0.0,0.0,0.0,0.0,0.0,0.0,0.0,0.0,0.0,0.0,0.0,0.0,
0.6159,4.561476133356381,4.561476133356381,4.208355204867046,0.0,0.0,0.0,4.44376915719327,0.0,0.0,0.0,0.0,0.0,0.0,0.0,0.0,0.0,0.0,0.0,0.0,0.0,0.0,
0.6358,4.562959702760203,4.562959702760203,4.2096142801927,0.0,0.0,0.0,4.445177895237702,0.0,0.0,0.0,0.0,0.0,0.0,0.0,0.0,0.0,0.0,0.0,0.0,0.0,0.0,
0.6557,4.564492289089285,4.564492289089285,4.210914907017459,0.0,0.0,0.0,4.44663316173201,0.0,0.0,0.0,0.0,0.0,0.0,0.0,0.0,0.0,0.0,0.0,0.0,0.0,0.0,
0.6755,4.566065997698647,4.566065997698647,4.212250381265893,0.0,0.0,0.0,4.448127458887729,0.0,0.0,0.0,0.0,0.0,0.0,0.0,0.0,0.0,0.0,0.0,0.0,0.0,0.0,
0.6954,4.5676969072494185,4.5676969072494185,4.213634342708554,0.0,0.0,0.0,4.449676052402464,0.0,0.0,0.0,0.0,0.0,0.0,0.0,0.0,0.0,0.0,0.0,0.0,0.0,0.0,
0.7153,4.569377383010816,4.569377383010816,4.215060307229555,0.0,0.0,0.0,4.451271691083729,0.0,0.0,0.0,0.0,0.0,0.0,0.0,0.0,0.0,0.0,0.0,0.0,0.0,0.0,
0.7351,4.5710988013626395,4.5710988013626395,4.216520952546694,0.0,0.0,0.0,4.452906185090658,0.0,0.0,0.0,0.0,0.0,0.0,0.0,0.0,0.0,0.0,0.0,0.0,0.0,0.0,
0.755,4.572878751588894,4.572878751588894,4.218031198043995,0.0,0.0,0.0,4.454596233740594,0.0,0.0,0.0,0.0,0.0,0.0,0.0,0.0,0.0,0.0,0.0,0.0,0.0,0.0,
0.7749,4.57470887327454,4.57470887327454,4.2195839440975735,0.0,0.0,0.0,4.456333896882218,0.0,0.0,0.0,0.0,0.0,0.0,0.0,0.0,0.0,0.0,0.0,0.0,0.0,0.0,
0.7947,4.576579805169074,4.576579805169074,4.221171243094815,0.0,0.0,0.0,4.458110284477654,0.0,0.0,0.0,0.0,0.0,0.0,0.0,0.0,0.0,0.0,0.0,0.0,0.0,0.0,
0.8146,4.578510666016664,4.578510666016664,4.222809309505928,0.0,0.0,0.0,4.459943547179752,0.0,0.0,0.0,0.0,0.0,0.0,0.0,0.0,0.0,0.0,0.0,0.0,0.0,0.0,
0.8345,4.580492361392235,4.580492361392235,4.224490421344594,0.0,0.0,0.0,4.461825048043021,0.0,0.0,0.0,0.0,0.0,0.0,0.0,0.0,0.0,0.0,0.0,0.0,0.0,0.0,
0.8544,4.582525125915796,4.582525125915796,4.226214771375348,0.0,0.0,0.0,4.463755007735647,0.0,0.0,0.0,0.0,0.0,0.0,0.0,0.0,0.0,0.0,0.0,0.0,0.0,0.0,
0.8742,4.584598599541124,4.584598599541124,4.2279735656210065,0.0,0.0,0.0,4.465723588234418,0.0,0.0,0.0,0.0,0.0,0.0,0.0,0.0,0.0,0.0,0.0,0.0,0.0,0.0,
0.8941,4.5867339736061306,4.5867339736061306,4.229784772710911,0.0,0.0,0.0,4.467750906641057,0.0,0.0,0.0,0.0,0.0,0.0,0.0,0.0,0.0,0.0,0.0,0.0,0.0,0.0,
0.914,4.5889211602536015,4.5889211602536015,4.23163982868977,0.0,0.0,0.0,4.469827383065657,0.0,0.0,0.0,0.0,0.0,0.0,0.0,0.0,0.0,0.0,0.0,0.0,0.0,0.0,
0.9338,4.5911490384108955,4.5911490384108955,4.23352929500096,0.0,0.0,0.0,4.47194245727425,0.0,0.0,0.0,0.0,0.0,0.0,0.0,0.0,0.0,0.0,0.0,0.0,0.0,0.0,
0.9537,4.593440379988867,4.593440379988867,4.235472477324661,0.0,0.0,0.0,4.474117745767465,0.0,0.0,0.0,0.0,0.0,0.0,0.0,0.0,0.0,0.0,0.0,0.0,0.0,0.0,
0.9736,4.595784340544026,4.595784340544026,4.237460170763654,0.0,0.0,0.0,4.476342950617235,0.0,0.0,0.0,0.0,0.0,0.0,0.0,0.0,0.0,0.0,0.0,0.0,0.0,0.0,
0.9934,4.59816902651335,4.59816902651335,4.239482282753649,0.0,0.0,0.0,4.478606778593449,0.0,0.0,0.0,0.0,0.0,0.0,0.0,0.0,0.0,0.0,0.0,0.0,0.0,0.0,
1.0133,4.600618815514709,4.600618815514709,4.241559476651638,0.0,0.0,0.0,4.480932369227019,0.0,0.0,0.0,0.0,0.0,0.0,0.0,0.0,0.0,0.0,0.0,0.0,0.0,0.0,
1.0332,4.60312209543109,4.60312209543109,4.243681897497499,0.0,0.0,0.0,4.4833086961198925,0.0,0.0,0.0,0.0,0.0,0.0,0.0,0.0,0.0,0.0,0.0,0.0,0.0,0.0,
1.053,4.605666187833872,4.605666187833872,4.245838788544647,0.0,0.0,0.0,4.48572372140413,0.0,0.0,0.0,0.0,0.0,0.0,0.0,0.0,0.0,0.0,0.0,0.0,0.0,0.0,
1.0729,4.608277103239029,4.608277103239029,4.248052193133388,0.0,0.0,0.0,4.488202133203815,0.0,0.0,0.0,0.0,0.0,0.0,0.0,0.0,0.0,0.0,0.0,0.0,0.0,0.0,
1.0928,4.610942449875186,4.610942449875186,4.250311596387496,0.0,0.0,0.0,4.490732165379289,0.0,0.0,0.0,0.0,0.0,0.0,0.0,0.0,0.0,0.0,0.0,0.0,0.0,0.0,
1.1126,4.613648751124467,4.613648751124467,4.252605566426521,0.0,0.0,0.0,4.493301022891818,0.0,0.0,0.0,0.0,0.0,0.0,0.0,0.0,0.0,0.0,0.0,0.0,0.0,0.0,
1.1325,4.616423679740674,4.616423679740674,4.254957550635407,0.0,0.0,0.0,4.495934970038918,0.0,0.0,0.0,0.0,0.0,0.0,0.0,0.0,0.0,0.0,0.0,0.0,0.0,0.0,
1.1524,4.619254051388381,4.619254051388381,4.2573563636072915,0.0,0.0,0.0,4.498621488794685,0.0,0.0,0.0,0.0,0.0,0.0,0.0,0.0,0.0,0.0,0.0,0.0,0.0,0.0,
1.1722,4.622125576947692,4.622125576947692,4.25978988656734,0.0,0.0,0.0,4.501347013487575,0.0,0.0,0.0,0.0,0.0,0.0,0.0,0.0,0.0,0.0,0.0,0.0,0.0,0.0,
1.1921,4.625067622999383,4.625067622999383,4.262282996841412,0.0,0.0,0.0,4.5041394142800595,0.0,0.0,0.0,0.0,0.0,0.0,0.0,0.0,0.0,0.0,0.0,0.0,0.0,0.0,
1.212,4.628066198766492,4.628066198766492,4.264823827085486,0.0,0.0,0.0,4.506985408206156,0.0,0.0,0.0,0.0,0.0,0.0,0.0,0.0,0.0,0.0,0.0,0.0,0.0,0.0,
1.2319,4.631121684394627,4.631121684394627,4.267412688984333,0.0,0.0,0.0,4.509885352591195,0.0,0.0,0.0,0.0,0.0,0.0,0.0,0.0,0.0,0.0,0.0,0.0,0.0,0.0,
1.2517,4.634218682900512,4.634218682900512,4.270036527746133,0.0,0.0,0.0,4.512824631182386,0.0,0.0,0.0,0.0,0.0,0.0,0.0,0.0,0.0,0.0,0.0,0.0,0.0,0.0,
1.2716,4.637388873518339,4.637388873518339,4.272722171735758,0.0,0.0,0.0,4.515833306257479,0.0,0.0,0.0,0.0,0.0,0.0,0.0,0.0,0.0,0.0,0.0,0.0,0.0,0.0,
1.2915,4.640617166410268,4.640617166410268,4.275456824788751,0.0,0.0,0.0,4.5188970525364285,0.0,0.0,0.0,0.0,0.0,0.0,0.0,0.0,0.0,0.0,0.0,0.0,0.0,0.0,
1.3113,4.643887314583479,4.643887314583479,4.278226714416315,0.0,0.0,0.0,4.522000447861091,0.0,0.0,0.0,0.0,0.0,0.0,0.0,0.0,0.0,0.0,0.0,0.0,0.0,0.0,
1.3312,4.6472327742153805,4.6472327742153805,4.281060167016451,0.0,0.0,0.0,4.525175238482404,0.0,0.0,0.0,0.0,0.0,0.0,0.0,0.0,0.0,0.0,0.0,0.0,0.0,0.0,
1.3511,4.650637612630159,4.650637612630159,4.283943674587588,0.0,0.0,0.0,4.528406299949302,0.0,0.0,0.0,0.0,0.0,0.0,0.0,0.0,0.0,0.0,0.0,0.0,0.0,0.0,
1.3709,4.654084714873497,4.654084714873497,4.286862732209926,0.0,0.0,0.0,4.5316773873189735,0.0,0.0,0.0,0.0,0.0,0.0,0.0,0.0,0.0,0.0,0.0,0.0,0.0,0.0,
1.3908,4.657609354011742,4.657609354011742,4.28984719701667,0.0,0.0,0.0,4.535021968346718,0.0,0.0,0.0,0.0,0.0,0.0,0.0,0.0,0.0,0.0,0.0,0.0,0.0,0.0,
1.4107,4.661194737102235,4.661194737102235,4.292882834859402,0.0,0.0,0.0,4.538424103021291,0.0,0.0,0.0,0.0,0.0,0.0,0.0,0.0,0.0,0.0,0.0,0.0,0.0,0.0,
1.4305,4.664822862066551,4.664822862066551,4.295954392665388,0.0,0.0,0.0,4.541866705599497,0.0,0.0,0.0,0.0,0.0,0.0,0.0,0.0,0.0,0.0,0.0,0.0,0.0,0.0,
1.4504,4.668530861614126,4.668530861614126,4.29909329328851,0.0,0.0,0.0,4.5453850055055876,0.0,0.0,0.0,0.0,0.0,0.0,0.0,0.0,0.0,0.0,0.0,0.0,0.0,0.0,
1.4703,4.672301063927941,4.672301063927941,4.302284561161455,0.0,0.0,0.0,4.548962229672446,0.0,0.0,0.0,0.0,0.0,0.0,0.0,0.0,0.0,0.0,0.0,0.0,0.0,0.0,
1.4901,4.676114559368464,4.676114559368464,4.3055121782980725,0.0,0.0,0.0,4.552580432345,0.0,0.0,0.0,0.0,0.0,0.0,0.0,0.0,0.0,0.0,0.0,0.0,0.0,0.0,
1.51,4.68001038601388,4.68001038601388,4.308809170671639,0.0,0.0,0.0,4.556276647566466,0.0,0.0,0.0,0.0,0.0,0.0,0.0,0.0,0.0,0.0,0.0,0.0,0.0,0.0,
1.5299,4.6839699733264055,4.6839699733264055,4.312159805013335,0.0,0.0,0.0,4.5600332505553824,0.0,0.0,0.0,0.0,0.0,0.0,0.0,0.0,0.0,0.0,0.0,0.0,0.0,0.0,
1.5498,4.687993864557381,4.687993864557381,4.315564525680978,0.0,0.0,0.0,4.56385075159858,0.0,0.0,0.0,0.0,0.0,0.0,0.0,0.0,0.0,0.0,0.0,0.0,0.0,0.0,
1.5696,4.69206190533167,4.69206190533167,4.319006266385378,0.0,0.0,0.0,4.5677100256829055,0.0,0.0,0.0,0.0,0.0,0.0,0.0,0.0,0.0,0.0,0.0,0.0,0.0,0.0,
1.5895,4.696215751937151,4.696215751937151,4.322520254146831,0.0,0.0,0.0,4.571650586007045,0.0,0.0,0.0,0.0,0.0,0.0,0.0,0.0,0.0,0.0,0.0,0.0,0.0,0.0,
1.6094,4.700435601879244,4.700435601879244,4.326089717811334,0.0,0.0,0.0,4.5756536405232735,0.0,0.0,0.0,0.0,0.0,0.0,0.0,0.0,0.0,0.0,0.0,0.0,0.0,0.0,
1.6292,4.704700340166315,4.704700340166315,4.32969678269641,0.0,0.0,0.0,4.579699154343014,0.0,0.0,0.0,0.0,0.0,0.0,0.0,0.0,0.0,0.0,0.0,0.0,0.0,0.0,
1.6491,4.709053647768879,4.709053647768879,4.333378376442544,0.0,0.0,0.0,4.583828557326767,0.0,0.0,0.0,0.0,0.0,0.0,0.0,0.0,0.0,0.0,0.0,0.0,0.0,0.0,
1.669,4.713474771952303,4.713474771952303,4.337116927955583,0.0,0.0,0.0,4.588022157286729,0.0,0.0,0.0,0.0,0.0,0.0,0.0,0.0,0.0,0.0,0.0,0.0,0.0,0.0,
1.6888,4.717941611889239,4.717941611889239,4.340893733507613,0.0,0.0,0.0,4.59225898576203,0.0,0.0,0.0,0.0,0.0,0.0,0.0,0.0,0.0,0.0,0.0,0.0,0.0,0.0,
1.7087,4.722499930251878,4.722499930251878,4.344747467911742,0.0,0.0,0.0,4.596582442805166,0.0,0.0,0.0,0.0,0.0,0.0,0.0,0.0,0.0,0.0,0.0,0.0,0.0,0.0,
1.7286,4.727127999582203,4.727127999582203,4.348659740075114,0.0,0.0,0.0,4.60097191307984,0.0,0.0,0.0,0.0,0.0,0.0,0.0,0.0,0.0,0.0,0.0,0.0,0.0,0.0,
1.7484,4.7318027063777786,4.7318027063777786,4.352610995255574,0.0,0.0,0.0,4.605405469337044,0.0,0.0,0.0,0.0,0.0,0.0,0.0,0.0,0.0,0.0,0.0,0.0,0.0,0.0,
1.7683,4.736571955908357,4.736571955908357,4.356641705127467,0.0,0.0,0.0,4.609928538981394,0.0,0.0,0.0,0.0,0.0,0.0,0.0,0.0,0.0,0.0,0.0,0.0,0.0,0.0,
1.7882,4.741413019942787,4.741413019942787,4.360732637266759,0.0,0.0,0.0,4.614519559050778,0.0,0.0,0.0,0.0,0.0,0.0,0.0,0.0,0.0,0.0,0.0,0.0,0.0,0.0,
1.808,4.746301743745252,4.746301743745252,4.364863362553056,0.0,0.0,0.0,4.619155616681186,0.0,0.0,0.0,0.0,0.0,0.0,0.0,0.0,0.0,0.0,0.0,0.0,0.0,0.0,
1.8279,4.751288240220505,4.751288240220505,4.369076202557191,0.0,0.0,0.0,4.623884227666068,0.0,0.0,0.0,0.0,0.0,0.0,0.0,0.0,0.0,0.0,0.0,0.0,0.0,0.0,
1.8478,4.756348752654922,4.756348752654922,4.373351060843253,0.0,0.0,0.0,4.6286828553843655,0.0,0.0,0.0,0.0,0.0,0.0,0.0,0.0,0.0,0.0,0.0,0.0,0.0,0.0,
1.8677,4.761484048450841,4.761484048450841,4.37768856322446,0.0,0.0,0.0,4.633552220042048,0.0,0.0,0.0,0.0,0.0,0.0,0.0,0.0,0.0,0.0,0.0,0.0,0.0,0.0,
1.8875,4.766668536348552,4.766668536348552,4.382067075308699,0.0,0.0,0.0,4.638468049335268,0.0,0.0,0.0,0.0,0.0,0.0,0.0,0.0,0.0,0.0,0.0,0.0,0.0,0.0,
1.9074,4.771955382951656,4.771955382951656,4.3865314750110445,0.0,0.0,0.0,4.643480746971452,0.0,0.0,0.0,0.0,0.0,0.0,0.0,0.0,0.0,0.0,0.0,0.0,0.0,0.0,
1.9273,4.777319413466856,4.777319413466856,4.391060475605756,0.0,0.0,0.0,4.6485664341798225,0.0,0.0,0.0,0.0,0.0,0.0,0.0,0.0,0.0,0.0,0.0,0.0,0.0,0.0,
1.9471,4.782733921437444,4.782733921437444,4.39563150786468,0.0,0.0,0.0,4.653699783579856,0.0,0.0,0.0,0.0,0.0,0.0,0.0,0.0,0.0,0.0,0.0,0.0,0.0,0.0,
1.967,4.788254450699039,4.788254450699039,4.4002914377455795,0.0,0.0,0.0,4.658933446381219,0.0,0.0,0.0,0.0,0.0,0.0,0.0,0.0,0.0,0.0,0.0,0.0,0.0,0.0,
1.9869,4.793854726260861,4.793854726260861,4.405018055859248,0.0,0.0,0.0,4.664242502793656,0.0,0.0,0.0,0.0,0.0,0.0,0.0,0.0,0.0,0.0,0.0,0.0,0.0,0.0,
2.0067,4.799506891346095,4.799506891346095,4.409787829457475,0.0,0.0,0.0,4.6696005373832215,0.0,0.0,0.0,0.0,0.0,0.0,0.0,0.0,0.0,0.0,0.0,0.0,0.0,0.0,
2.0266,4.80526894814297,4.80526894814297,4.414649678542869,0.0,0.0,0.0,4.675062524942937,0.0,0.0,0.0,0.0,0.0,0.0,0.0,0.0,0.0,0.0,0.0,0.0,0.0,0.0,
2.0465,4.811113487436632,4.811113487436632,4.419580443257791,0.0,0.0,0.0,4.680602472710352,0.0,0.0,0.0,0.0,0.0,0.0,0.0,0.0,0.0,0.0,0.0,0.0,0.0,0.0,
2.0663,4.8170114647470275,4.8170114647470275,4.424555596821945,0.0,0.0,0.0,4.686192842105334,0.0,0.0,0.0,0.0,0.0,0.0,0.0,0.0,0.0,0.0,0.0,0.0,0.0,0.0,
2.0862,4.823023427369745,4.823023427369745,4.429626183816671,0.0,0.0,0.0,4.691891012852054,0.0,0.0,0.0,0.0,0.0,0.0,0.0,0.0,0.0,0.0,0.0,0.0,0.0,0.0,
2.1061,4.829120795671903,4.829120795671903,4.434768064356014,0.0,0.0,0.0,4.697669885233274,0.0,0.0,0.0,0.0,0.0,0.0,0.0,0.0,0.0,0.0,0.0,0.0,0.0,0.0,
2.1259,4.835273297671117,4.835273297671117,4.439955685162499,0.0,0.0,0.0,4.703500760168244,0.0,0.0,0.0,0.0,0.0,0.0,0.0,0.0,0.0,0.0,0.0,0.0,0.0,0.0,
2.1458,4.841544118603153,4.841544118603153,4.445242290814159,0.0,0.0,0.0,4.709443509340155,0.0,0.0,0.0,0.0,0.0,0.0,0.0,0.0,0.0,0.0,0.0,0.0,0.0,0.0,
2.1657,4.8479034699104835,4.8479034699104835,4.450602729965192,0.0,0.0,0.0,4.71546988992872,0.0,0.0,0.0,0.0,0.0,0.0,0.0,0.0,0.0,0.0,0.0,0.0,0.0,0.0,
2.1856,4.85435244251229,4.85435244251229,4.456037888936596,0.0,0.0,0.0,4.7215809246537255,0.0,0.0,0.0,0.0,0.0,0.0,0.0,0.0,0.0,0.0,0.0,0.0,0.0,0.0,
2.2054,4.860859060618604,4.860859060618604,4.461520791044743,0.0,0.0,0.0,4.7277463040939836,0.0,0.0,0.0,0.0,0.0,0.0,0.0,0.0,0.0,0.0,0.0,0.0,0.0,0.0,
2.2253,4.867490184137906,4.867490184137906,4.467107742003217,0.0,0.0,0.0,4.734029370093009,0.0,0.0,0.0,0.0,0.0,0.0,0.0,0.0,0.0,0.0,0.0,0.0,0.0,0.0,
2.2452,4.874214347699066,4.874214347699066,4.47277218888547,0.0,0.0,0.0,4.7404002947612005,0.0,0.0,0.0,0.0,0.0,0.0,0.0,0.0,0.0,0.0,0.0,0.0,0.0,0.0,
2.265,4.880998244735636,4.880998244735636,4.478486044354926,0.0,0.0,0.0,4.7468275112753995,0.0,0.0,0.0,0.0,0.0,0.0,0.0,0.0,0.0,0.0,0.0,0.0,0.0,0.0,
2.2849,4.88791161626873,4.88791161626873,4.4843080114040355,0.0,0.0,0.0,4.753377081313832,0.0,0.0,0.0,0.0,0.0,0.0,0.0,0.0,0.0,0.0,0.0,0.0,0.0,0.0,
2.3048,4.894921688217777,4.894921688217777,4.490210444274475,0.0,0.0,0.0,4.7600179402366765,0.0,0.0,0.0,0.0,0.0,0.0,0.0,0.0,0.0,0.0,0.0,0.0,0.0,0.0,
2.3246,4.901993774062994,4.901993774062994,4.49616410494577,0.0,0.0,0.0,4.766717217690586,0.0,0.0,0.0,0.0,0.0,0.0,0.0,0.0,0.0,0.0,0.0,0.0,0.0,0.0,
2.3445,4.909200612899234,4.909200612899234,4.50223018844317,0.0,0.0,0.0,4.773543804747213,0.0,0.0,0.0,0.0,0.0,0.0,0.0,0.0,0.0,0.0,0.0,0.0,0.0,0.0,
2.3644,4.9165080744934375,4.9165080744934375,4.508379917525794,0.0,0.0,0.0,4.780465355504223,0.0,0.0,0.0,0.0,0.0,0.0,0.0,0.0,0.0,0.0,0.0,0.0,0.0,0.0,
2.3842,4.923880039918164,4.923880039918164,4.514582860818282,0.0,0.0,0.0,4.78744764688487,0.0,0.0,0.0,0.0,0.0,0.0,0.0,0.0,0.0,0.0,0.0,0.0,0.0,0.0,
2.4041,4.931392371937882,4.931392371937882,4.520902807034833,0.0,0.0,0.0,4.794562516970199,0.0,0.0,0.0,0.0,0.0,0.0,0.0,0.0,0.0,0.0,0.0,0.0,0.0,0.0,
2.424,4.93900953361583,4.93900953361583,4.527309806293671,0.0,0.0,0.0,4.80177629117511,0.0,0.0,0.0,0.0,0.0,0.0,0.0,0.0,0.0,0.0,0.0,0.0,0.0,0.0,
2.4438,4.946693917633084,4.946693917633084,4.53377218835378,0.0,0.0,0.0,4.809053341206649,0.0,0.0,0.0,0.0,0.0,0.0,0.0,0.0,0.0,0.0,0.0,0.0,0.0,0.0,
2.4637,4.954524645434356,4.954524645434356,4.540356444789552,0.0,0.0,0.0,4.816468578552755,0.0,0.0,0.0,0.0,0.0,0.0,0.0,0.0,0.0,0.0,0.0,0.0,0.0,0.0,
2.4836,4.962464719489608,4.962464719489608,4.5470314092293656,0.0,0.0,0.0,4.823986949402861,0.0,0.0,0.0,0.0,0.0,0.0,0.0,0.0,0.0,0.0,0.0,0.0,0.0,0.0,
2.5034,4.970474984299948,4.970474984299948,4.553764123996327,0.0,0.0,0.0,4.831571364198741,0.0,0.0,0.0,0.0,0.0,0.0,0.0,0.0,0.0,0.0,0.0,0.0,0.0,0.0,
2.5233,4.978637965287099,4.978637965287099,4.560623900896445,0.0,0.0,0.0,4.839299943823548,0.0,0.0,0.0,0.0,0.0,0.0,0.0,0.0,0.0,0.0,0.0,0.0,0.0,0.0,
2.5432,4.986915146849539,4.986915146849539,4.567578310328543,0.0,0.0,0.0,4.847136201342541,0.0,0.0,0.0,0.0,0.0,0.0,0.0,0.0,0.0,0.0,0.0,0.0,0.0,0.0,
2.5631,4.995308230339971,4.995308230339971,4.574628726877633,0.0,0.0,0.0,4.855081729185859,0.0,0.0,0.0,0.0,0.0,0.0,0.0,0.0,0.0,0.0,0.0,0.0,0.0,0.0,
2.5829,5.003775894936088,5.003775894936088,4.581740394216782,0.0,0.0,0.0,4.863097394696319,0.0,0.0,0.0,0.0,0.0,0.0,0.0,0.0,0.0,0.0,0.0,0.0,0.0,0.0,
2.6028,5.0124054524062265,5.0124054524062265,4.588986584369457,0.0,0.0,0.0,4.871265829727303,0.0,0.0,0.0,0.0,0.0,0.0,0.0,0.0,0.0,0.0,0.0,0.0,0.0,0.0,
2.6227,5.021156266011812,5.021156266011812,4.596333104556125,0.0,0.0,0.0,4.879548545526583,0.0,0.0,0.0,0.0,0.0,0.0,0.0,0.0,0.0,0.0,0.0,0.0,0.0,0.0,
