energies(eV),real_xx,real_yy,real_zz,real_xy,real_yz,real_xz,real_ave,imag_xx,imag_yy,imag_zz,imag_xy,imag_yz,imag_xz,imag_ave,absorption_xx,absorption_yy,absorption_zz,absorption_xy,absorption_yz,absorption_xz,absorption_ave,band_gap
0.0,4.341004233150725,4.341004233150725,4.015230230762402,0.0,0.0,0.0,4.232412899021284,0.0,0.0,0.0,0.0,0.0,0.0,0.0,0.0,0.0,0.0,0.0,0.0,0.0,0.0,3.6065
0.0199,4.3410280202384435,4.3410280202384435,4.015249467523587,0.0,0.0,0.0,4.232435169333491,0.0,0.0,0.0,0.0,0.0,0.0,0.0,0.0,0.0,0.0,0.0,0.0,0.0,0.0,
0.0397,4.341098907036651,4.341098907036651,4.015306793925243,0.0,0.0,0.0,4.232501535999515,0.0,0.0,0.0,0.0,0.0,0.0,0.0,0.0,0.0,0.0,0.0,0.0,0.0,0.0,
0.0596,4.3412176188292655,4.3412176188292655,4.01540279596621,0.0,0.0,0.0,4.232612677874914,0.0,0.0,0.0,0.0,0.0,0.0,0.0,0.0,0.0,0.0,0.0,0.0,0.0,0.0,
0.0794,4.341382977854515,4.341382977854515,4.015536520296988,0.0,0.0,0.0,4.232767492002005,0.0,0.0,0.0,0.0,0.0,0.0,0.0,0.0,0.0,0.0,0.0,0.0,0.0,0.0,
0.0993,4.34159667600537,4.34159667600537,4.015709333873486,0.0,0.0,0.0,4.232967561961408,0.0,0.0,0.0,0.0,0.0,0.0,0.0,0.0,0.0,0.0,0.0,0.0,0.0,0.0,
0.1192,4.341858025653407,4.341858025653407,4.015920678982363,0.0,0.0,0.0,4.233212243429725,0.0,0.0,0.0,0.0,0.0,0.0,0.0,0.0,0.0,0.0,0.0,0.0,0.0,0.0,
0.139,4.342165388716859,4.342165388716859,4.01616922900246,0.0,0.0,0.0,4.2335000021453935,0.0,0.0,0.0,0.0,0.0,0.0,0.0,0.0,0.0,0.0,0.0,0.0,0.0,0.0,
0.1589,4.342521910071762,4.342521910071762,4.016457524695519,0.0,0.0,0.0,4.233833781613014,0.0,0.0,0.0,0.0,0.0,0.0,0.0,0.0,0.0,0.0,0.0,0.0,0.0,0.0,
0.1787,4.342924052698475,4.342924052698475,4.016782703205223,0.0,0.0,0.0,4.234210269534057,0.0,0.0,0.0,0.0,0.0,0.0,0.0,0.0,0.0,0.0,0.0,0.0,0.0,0.0,
0.1986,4.343375931303255,4.343375931303255,4.017148088661901,0.0,0.0,0.0,4.234633317089471,0.0,0.0,0.0,0.0,0.0,0.0,0.0,0.0,0.0,0.0,0.0,0.0,0.0,0.0,
0.2185,4.343875694101445,4.343875694101445,4.017552180198116,0.0,0.0,0.0,4.235101189467002,0.0,0.0,0.0,0.0,0.0,0.0,0.0,0.0,0.0,0.0,0.0,0.0,0.0,0.0,
0.2383,4.344420534271121,4.344420534271121,4.017992704596393,0.0,0.0,0.0,4.235611257712878,0.0,0.0,0.0,0.0,0.0,0.0,0.0,0.0,0.0,0.0,0.0,0.0,0.0,0.0,
0.2582,4.345016026770746,4.345016026770746,4.0184741652340925,0.0,0.0,0.0,4.236168739591862,0.0,0.0,0.0,0.0,0.0,0.0,0.0,0.0,0.0,0.0,0.0,0.0,0.0,0.0,
0.2781,4.345659618598934,4.345659618598934,4.018994493283854,0.0,0.0,0.0,4.236771243493908,0.0,0.0,0.0,0.0,0.0,0.0,0.0,0.0,0.0,0.0,0.0,0.0,0.0,0.0,
0.2979,4.34634779747932,4.34634779747932,4.019550844386894,0.0,0.0,0.0,4.237415479781845,0.0,0.0,0.0,0.0,0.0,0.0,0.0,0.0,0.0,0.0,0.0,0.0,0.0,0.0,
0.3178,4.347087605344308,4.347087605344308,4.020148906197681,0.0,0.0,0.0,4.238108038962099,0.0,0.0,0.0,0.0,0.0,0.0,0.0,0.0,0.0,0.0,0.0,0.0,0.0,0.0,
0.3376,4.3478717033498375,4.3478717033498375,4.020782740316735,0.0,0.0,0.0,4.23884204900547,0.0,0.0,0.0,0.0,0.0,0.0,0.0,0.0,0.0,0.0,0.0,0.0,0.0,0.0,
0.3575,4.348708115205543,4.348708115205543,4.021458826706976,0.0,0.0,0.0,4.239625019039354,0.0,0.0,0.0,0.0,0.0,0.0,0.0,0.0,0.0,0.0,0.0,0.0,0.0,0.0,
0.3774,4.349593112938482,4.349593112938482,4.022174145230418,0.0,0.0,0.0,4.240453457035794,0.0,0.0,0.0,0.0,0.0,0.0,0.0,0.0,0.0,0.0,0.0,0.0,0.0,0.0,
0.3972,4.350521999718305,4.350521999718305,4.022924893026463,0.0,0.0,0.0,4.2413229641543575,0.0,0.0,0.0,0.0,0.0,0.0,0.0,0.0,0.0,0.0,0.0,0.0,0.0,0.0,
0.4171,4.351504281434394,4.351504281434394,4.023718745709191,0.0,0.0,0.0,4.24224243619266,0.0,0.0,0.0,0.0,0.0,0.0,0.0,0.0,0.0,0.0,0.0,0.0,0.0,0.0,
0.4369,4.352530214875959,4.352530214875959,4.024547821473736,0.0,0.0,0.0,4.2432027504085505,0.0,0.0,0.0,0.0,0.0,0.0,0.0,0.0,0.0,0.0,0.0,0.0,0.0,0.0,
0.4568,4.353610299535544,4.353610299535544,4.025420597085714,0.0,0.0,0.0,4.244213732052267,0.0,0.0,0.0,0.0,0.0,0.0,0.0,0.0,0.0,0.0,0.0,0.0,0.0,0.0,
0.4767,4.354739620923718,4.354739620923718,4.026333092396376,0.0,0.0,0.0,4.245270778081271,0.0,0.0,0.0,0.0,0.0,0.0,0.0,0.0,0.0,0.0,0.0,0.0,0.0,0.0,
0.4965,4.355912282878094,4.355912282878094,4.027280534923088,0.0,0.0,0.0,4.246368366893092,0.0,0.0,0.0,0.0,0.0,0.0,0.0,0.0,0.0,0.0,0.0,0.0,0.0,0.0,
0.5164,4.357140287420306,4.357140287420306,4.028272612293453,0.0,0.0,0.0,4.247517729044688,0.0,0.0,0.0,0.0,0.0,0.0,0.0,0.0,0.0,0.0,0.0,0.0,0.0,0.0,
0.5362,4.35841145557155,4.35841145557155,4.029299475719687,0.0,0.0,0.0,4.248707462287595,0.0,0.0,0.0,0.0,0.0,0.0,0.0,0.0,0.0,0.0,0.0,0.0,0.0,0.0,
0.5561,4.359738798272253,4.359738798272253,4.030371625424345,0.0,0.0,0.0,4.249949740656284,0.0,0.0,0.0,0.0,0.0,0.0,0.0,0.0,0.0,0.0,0.0,0.0,0.0,0.0,
0.576,4.361116199175459,4.361116199175459,4.031484109694938,0.0,0.0,0.0,4.251238836015285,0.0,0.0,0.0,0.0,0.0,0.0,0.0,0.0,0.0,0.0,0.0,0.0,0.0,0.0,
0.5958,4.3625365440908626,4.3625365440908626,4.03263117236733,0.0,0.0,0.0,4.252568086849685,0.0,0.0,0.0,0.0,0.0,0.0,0.0,0.0,0.0,0.0,0.0,0.0,0.0,0.0,
0.6157,4.3640143721859745,4.3640143721859745,4.033824543717953,0.0,0.0,0.0,4.253951096029968,0.0,0.0,0.0,0.0,0.0,0.0,0.0,0.0,0.0,0.0,0.0,0.0,0.0,0.0,
0.6356,4.3655428367609215,4.3655428367609215,4.035058682129633,0.0,0.0,0.0,4.255381451883825,0.0,0.0,0.0,0.0,0.0,0.0,0.0,0.0,0.0,0.0,0.0,0.0,0.0,0.0,
0.6554,4.367114081892272,4.367114081892272,4.036327233012101,0.0,0.0,0.0,4.256851798932215,0.0,0.0,0.0,0.0,0.0,0.0,0.0,0.0,0.0,0.0,0.0,0.0,0.0,0.0,
0.6753,4.368744193074368,4.368744193074368,4.037643170201541,0.0,0.0,0.0,4.258377185450092,0.0,0.0,0.0,0.0,0.0,0.0,0.0,0.0,0.0,0.0,0.0,0.0,0.0,0.0,
0.6951,4.370417007649447,4.370417007649447,4.038993432862197,0.0,0.0,0.0,4.259942482720364,0.0,0.0,0.0,0.0,0.0,0.0,0.0,0.0,0.0,0.0,0.0,0.0,0.0,0.0,
0.715,4.372149652201809,4.372149652201809,4.04039183142989,0.0,0.0,0.0,4.261563711944503,0.0,0.0,0.0,0.0,0.0,0.0,0.0,0.0,0.0,0.0,0.0,0.0,0.0,0.0,
0.7349,4.3739340453780855,4.3739340453780855,4.041831828051308,0.0,0.0,0.0,4.26323330626916,0.0,0.0,0.0,0.0,0.0,0.0,0.0,0.0,0.0,0.0,0.0,0.0,0.0,0.0,
0.7547,4.375761074722333,4.375761074722333,4.043306055531929,0.0,0.0,0.0,4.264942734992198,0.0,0.0,0.0,0.0,0.0,0.0,0.0,0.0,0.0,0.0,0.0,0.0,0.0,0.0,
0.7746,4.377649447976885,4.377649447976885,4.044829593832032,0.0,0.0,0.0,4.266709496595268,0.0,0.0,0.0,0.0,0.0,0.0,0.0,0.0,0.0,0.0,0.0,0.0,0.0,0.0,
0.7944,4.379580445678045,4.379580445678045,4.046387324401863,0.0,0.0,0.0,4.268516071919318,0.0,0.0,0.0,0.0,0.0,0.0,0.0,0.0,0.0,0.0,0.0,0.0,0.0,0.0,
0.8143,4.381573841878004,4.381573841878004,4.047995182588558,0.0,0.0,0.0,4.270380955448188,0.0,0.0,0.0,0.0,0.0,0.0,0.0,0.0,0.0,0.0,0.0,0.0,0.0,0.0,
0.8342,4.383620294634744,4.383620294634744,4.049645614815525,0.0,0.0,0.0,4.272295401361671,0.0,0.0,0.0,0.0,0.0,0.0,0.0,0.0,0.0,0.0,0.0,0.0,0.0,0.0,
0.854,4.38570940518508,4.38570940518508,4.051330218948937,0.0,0.0,0.0,4.274249676439699,0.0,0.0,0.0,0.0,0.0,0.0,0.0,0.0,0.0,0.0,0.0,0.0,0.0,0.0,
0.8739,4.3878625697391875,4.3878625697391875,4.053066230380178,0.0,0.0,0.0,4.276263789952851,0.0,0.0,0.0,0.0,0.0,0.0,0.0,0.0,0.0,0.0,0.0,0.0,0.0,0.0,
0.8937,4.390058449098587,4.390058449098587,4.054836425765625,0.0,0.0,0.0,4.278317774654266,0.0,0.0,0.0,0.0,0.0,0.0,0.0,0.0,0.0,0.0,0.0,0.0,0.0,0.0,
0.9136,4.392319535253108,4.392319535253108,4.0566589178031975,0.0,0.0,0.0,4.280432662769805,0.0,0.0,0.0,0.0,0.0,0.0,0.0,0.0,0.0,0.0,0.0,0.0,0.0,0.0,
0.9335,4.394635195275745,4.394635195275745,4.058525114379397,0.0,0.0,0.0,4.282598501643629,0.0,0.0,0.0,0.0,0.0,0.0,0.0,0.0,0.0,0.0,0.0,0.0,0.0,0.0,
0.9533,4.396993709598918,4.396993709598918,4.0604255525762625,0.0,0.0,0.0,4.2848043239247,0.0,0.0,0.0,0.0,0.0,0.0,0.0,0.0,0.0,0.0,0.0,0.0,0.0,0.0,
0.9732,4.399419239983642,4.399419239983642,4.062379680520571,0.0,0.0,0.0,4.287072720162619,0.0,0.0,0.0,0.0,0.0,0.0,0.0,0.0,0.0,0.0,0.0,0.0,0.0,0.0,
0.9931,4.401900362093389,4.401900362093389,4.064378270353171,0.0,0.0,0.0,4.289392998179983,0.0,0.0,0.0,0.0,0.0,0.0,0.0,0.0,0.0,0.0,0.0,0.0,0.0,0.0,
1.0129,4.404424544957406,4.404424544957406,4.066411208513141,0.0,0.0,0.0,4.291753432809318,0.0,0.0,0.0,0.0,0.0,0.0,0.0,0.0,0.0,0.0,0.0,0.0,0.0,0.0,
1.0328,4.407017652077897,4.407017652077897,4.06849930228098,0.0,0.0,0.0,4.294178202145591,0.0,0.0,0.0,0.0,0.0,0.0,0.0,0.0,0.0,0.0,0.0,0.0,0.0,0.0,
1.0526,4.409653996012938,4.409653996012938,4.07062184360799,0.0,0.0,0.0,4.2966432785446225,0.0,0.0,0.0,0.0,0.0,0.0,0.0,0.0,0.0,0.0,0.0,0.0,0.0,0.0,
1.0725,4.412360592874489,4.412360592874489,4.072800559252114,0.0,0.0,0.0,4.299173915000364,0.0,0.0,0.0,0.0,0.0,0.0,0.0,0.0,0.0,0.0,0.0,0.0,0.0,0.0,
1.0924,4.41512466869403,4.41512466869403,4.075025138876075,0.0,0.0,0.0,4.301758158754712,0.0,0.0,0.0,0.0,0.0,0.0,0.0,0.0,0.0,0.0,0.0,0.0,0.0,0.0,
1.1122,4.417932305818597,4.417932305818597,4.077284358874849,0.0,0.0,0.0,4.304382990170681,0.0,0.0,0.0,0.0,0.0,0.0,0.0,0.0,0.0,0.0,0.0,0.0,0.0,0.0,
1.1321,4.420812281441172,4.420812281441172,4.079601349124555,0.0,0.0,0.0,4.3070753040023,0.0,0.0,0.0,0.0,0.0,0.0,0.0,0.0,0.0,0.0,0.0,0.0,0.0,0.0,
1.1519,4.423736076088829,4.423736076088829,4.081953138401193,0.0,0.0,0.0,4.309808430192951,0.0,0.0,0.0,0.0,0.0,0.0,0.0,0.0,0.0,0.0,0.0,0.0,0.0,0.0,
1.1718,4.4267336617565425,4.4267336617565425,4.08436380728464,0.0,0.0,0.0,4.312610376932575,0.0,0.0,0.0,0.0,0.0,0.0,0.0,0.0,0.0,0.0,0.0,0.0,0.0,0.0,
1.1917,4.429790871392861,4.429790871392861,4.086821930465793,0.0,0.0,0.0,4.315467891083838,0.0,0.0,0.0,0.0,0.0,0.0,0.0,0.0,0.0,0.0,0.0,0.0,0.0,0.0,
1.2115,4.432892352183863,4.432892352183863,4.089315138123126,0.0,0.0,0.0,4.318366614163618,0.0,0.0,0.0,0.0,0.0,0.0,0.0,0.0,0.0,0.0,0.0,0.0,0.0,0.0,
1.2314,4.4360699047500995,4.4360699047500995,4.091868963886867,0.0,0.0,0.0,4.321336257795688,0.0,0.0,0.0,0.0,0.0,0.0,0.0,0.0,0.0,0.0,0.0,0.0,0.0,0.0,
1.2512,4.439292074882189,4.439292074882189,4.094458096974035,0.0,0.0,0.0,4.324347415579472,0.0,0.0,0.0,0.0,0.0,0.0,0.0,0.0,0.0,0.0,0.0,0.0,0.0,0.0,
1.2711,4.442591905921651,4.442591905921651,4.09710905710063,0.0,0.0,0.0,4.327430956314644,0.0,0.0,0.0,0.0,0.0,0.0,0.0,0.0,0.0,0.0,0.0,0.0,0.0,0.0,
1.291,4.4459537885481,4.4459537885481,4.099809267264607,0.0,0.0,0.0,4.330572281453603,0.0,0.0,0.0,0.0,0.0,0.0,0.0,0.0,0.0,0.0,0.0,0.0,0.0,0.0,
1.3108,4.449360880098872,4.449360880098872,4.102545170698452,0.0,0.0,0.0,4.333755643632066,0.0,0.0,0.0,0.0,0.0,0.0,0.0,0.0,0.0,0.0,0.0,0.0,0.0,0.0,
1.3307,4.452848129111685,4.452848129111685,4.10534479663461,0.0,0.0,0.0,4.33701368495266,0.0,0.0,0.0,0.0,0.0,0.0,0.0,0.0,0.0,0.0,0.0,0.0,0.0,0.0,
1.3506,4.456399034422489,4.456399034422489,4.10819485729932,0.0,0.0,0.0,4.340330975381433,0.0,0.0,0.0,0.0,0.0,0.0,0.0,0.0,0.0,0.0,0.0,0.0,0.0,0.0,
1.3704,4.459995830097866,4.459995830097866,4.111081061912245,0.0,0.0,0.0,4.343690907369326,0.0,0.0,0.0,0.0,0.0,0.0,0.0,0.0,0.0,0.0,0.0,0.0,0.0,0.0,
1.3903,4.463675420560601,4.463675420560601,4.114032986522771,0.0,0.0,0.0,4.347127942547991,0.0,0.0,0.0,0.0,0.0,0.0,0.0,0.0,0.0,0.0,0.0,0.0,0.0,0.0,
1.4101,4.467401408011345,4.467401408011345,4.1170213930431965,0.0,0.0,0.0,4.350608069688629,0.0,0.0,0.0,0.0,0.0,0.0,0.0,0.0,0.0,0.0,0.0,0.0,0.0,0.0,
1.43,4.471212029710829,4.471212029710829,4.120076909918171,0.0,0.0,0.0,4.3541669897799435,0.0,0.0,0.0,0.0,0.0,0.0,0.0,0.0,0.0,0.0,0.0,0.0,0.0,0.0,
1.4499,4.475089250312122,4.475089250312122,4.123185029227079,0.0,0.0,0.0,4.357787843283774,0.0,0.0,0.0,0.0,0.0,0.0,0.0,0.0,0.0,0.0,0.0,0.0,0.0,0.0,
1.4697,4.479013712120608,4.479013712120608,4.126330197549718,0.0,0.0,0.0,4.361452540596978,0.0,0.0,0.0,0.0,0.0,0.0,0.0,0.0,0.0,0.0,0.0,0.0,0.0,0.0,
1.4896,4.4830257013838715,4.4830257013838715,4.129544658498566,0.0,0.0,0.0,4.36519868708877,0.0,0.0,0.0,0.0,0.0,0.0,0.0,0.0,0.0,0.0,0.0,0.0,0.0,0.0,
1.5094,4.487085552787522,4.487085552787522,4.132796587940401,0.0,0.0,0.0,4.368989231171815,0.0,0.0,0.0,0.0,0.0,0.0,0.0,0.0,0.0,0.0,0.0,0.0,0.0,0.0,
1.5293,4.491234951281966,4.491234951281966,4.136119330164011,0.0,0.0,0.0,4.372863077575981,0.0,0.0,0.0,0.0,0.0,0.0,0.0,0.0,0.0,0.0,0.0,0.0,0.0,0.0,
1.5492,4.495454260701038,4.495454260701038,4.139497107603669,0.0,0.0,0.0,4.376801876335248,0.0,0.0,0.0,0.0,0.0,0.0,0.0,0.0,0.0,0.0,0.0,0.0,0.0,0.0,
1.569,4.4997224578014565,4.4997224578014565,4.1429130495554904,0.0,0.0,0.0,4.380785988386134,0.0,0.0,0.0,0.0,0.0,0.0,0.0,0.0,0.0,0.0,0.0,0.0,0.0,0.0,
1.5889,4.5040833815450885,4.5040833815450885,4.146402192338352,0.0,0.0,0.0,4.384856318476176,0.0,0.0,0.0,0.0,0.0,0.0,0.0,0.0,0.0,0.0,0.0,0.0,0.0,0.0,
1.6087,4.508493941716184,4.508493941716184,4.1499300097082905,0.0,0.0,0.0,4.388972631046886,0.0,0.0,0.0,0.0,0.0,0.0,0.0,0.0,0.0,0.0,0.0,0.0,0.0,0.0,
1.6286,4.512999450262119,4.512999450262119,4.153532692933581,0.0,0.0,0.0,4.393177197819273,0.0,0.0,0.0,0.0,0.0,0.0,0.0,0.0,0.0,0.0,0.0,0.0,0.0,0.0,
1.6485,4.51757859562805,4.51757859562805,4.157193139535521,0.0,0.0,0.0,4.397450110263875,0.0,0.0,0.0,0.0,0.0,0.0,0.0,0.0,0.0,0.0,0.0,0.0,0.0,0.0,
1.6683,4.522208606461799,4.522208606461799,4.160893100537917,0.0,0.0,0.0,4.401770104487172,0.0,0.0,0.0,0.0,0.0,0.0,0.0,0.0,0.0,0.0,0.0,0.0,0.0,0.0,
1.6882,4.526937067166323,4.526937067166323,4.164670545625768,0.0,0.0,0.0,4.4061815599861385,0.0,0.0,0.0,0.0,0.0,0.0,0.0,0.0,0.0,0.0,0.0,0.0,0.0,0.0,
1.7081,4.5317416211919745,4.5317416211919745,4.168507547945204,0.0,0.0,0.0,4.410663596776384,0.0,0.0,0.0,0.0,0.0,0.0,0.0,0.0,0.0,0.0,0.0,0.0,0.0,0.0,
1.7279,4.536598404302916,4.536598404302916,4.17238499909573,0.0,0.0,0.0,4.415193935900521,0.0,0.0,0.0,0.0,0.0,0.0,0.0,0.0,0.0,0.0,0.0,0.0,0.0,0.0,
1.7478,4.541557351619467,4.541557351619467,4.17634270409145,0.0,0.0,0.0,4.419819135776795,0.0,0.0,0.0,0.0,0.0,0.0,0.0,0.0,0.0,0.0,0.0,0.0,0.0,0.0,
1.7676,4.546569516217309,4.546569516217309,4.180341536318623,0.0,0.0,0.0,4.4244935229177464,0.0,0.0,0.0,0.0,0.0,0.0,0.0,0.0,0.0,0.0,0.0,0.0,0.0,0.0,
1.7875,4.551686445369078,4.551686445369078,4.184422556933477,0.0,0.0,0.0,4.429265149223878,0.0,0.0,0.0,0.0,0.0,0.0,0.0,0.0,0.0,0.0,0.0,0.0,0.0,0.0,
1.8074,4.556883969148844,4.556883969148844,4.188566412220828,0.0,0.0,0.0,4.434111450172838,0.0,0.0,0.0,0.0,0.0,0.0,0.0,0.0,0.0,0.0,0.0,0.0,0.0,0.0,
1.8272,4.562136322308749,4.562136322308749,4.192752502957201,0.0,0.0,0.0,4.4390083825249,0.0,0.0,0.0,0.0,0.0,0.0,0.0,0.0,0.0,0.0,0.0,0.0,0.0,0.0,
1.8471,4.567497546596034,4.567497546596034,4.197023829834141,0.0,0.0,0.0,4.444006307675402,0.0,0.0,0.0,0.0,0.0,0.0,0.0,0.0,0.0,0.0,0.0,0.0,0.0,0.0,
1.8669,4.572914765250409,4.572914765250409,4.201338193800425,0.0,0.0,0.0,4.449055908100415,0.0,0.0,0.0,0.0,0.0,0.0,0.0,0.0,0.0,0.0,0.0,0.0,0.0,0.0,
1.8868,4.578443733957302,4.578443733957302,4.205739925318069,0.0,0.0,0.0,4.454209131077557,0.0,0.0,0.0,0.0,0.0,0.0,0.0,0.0,0.0,0.0,0.0,0.0,0.0,0.0,
1.9067,4.584058369926454,4.584058369926454,4.210208170550346,0.0,0.0,0.0,4.459441636801085,0.0,0.0,0.0,0.0,0.0,0.0,0.0,0.0,0.0,0.0,0.0,0.0,0.0,0.0,
1.9265,4.589730896465394,4.589730896465394,4.214720758467112,0.0,0.0,0.0,4.4647275171326335,0.0,0.0,0.0,0.0,0.0,0.0,0.0,0.0,0.0,0.0,0.0,0.0,0.0,0.0,
1.9464,4.5955197262793295,4.5955197262793295,4.219324076386984,0.0,0.0,0.0,4.470121176315215,0.0,0.0,0.0,0.0,0.0,0.0,0.0,0.0,0.0,0.0,0.0,0.0,0.0,0.0,
1.9662,4.601367814488914,4.601367814488914,4.22397267907148,0.0,0.0,0.0,4.475569436016436,0.0,0.0,0.0,0.0,0.0,0.0,0.0,0.0,0.0,0.0,0.0,0.0,0.0,0.0,
1.9861,4.607335402936924,4.607335402936924,4.228714366569385,0.0,0.0,0.0,4.481128390814411,0.0,0.0,0.0,0.0,0.0,0.0,0.0,0.0,0.0,0.0,0.0,0.0,0.0,0.0,
2.006,4.6133943848344074,4.6133943848344074,4.233526703310622,0.0,0.0,0.0,4.486771824326479,0.0,0.0,0.0,0.0,0.0,0.0,0.0,0.0,0.0,0.0,0.0,0.0,0.0,0.0,
2.0258,4.619514848435379,4.619514848435379,4.238385856095739,0.0,0.0,0.0,4.492471850988832,0.0,0.0,0.0,0.0,0.0,0.0,0.0,0.0,0.0,0.0,0.0,0.0,0.0,0.0,
2.0457,4.625759876775732,4.625759876775732,4.243341814143697,0.0,0.0,0.0,4.49828718923172,0.0,0.0,0.0,0.0,0.0,0.0,0.0,0.0,0.0,0.0,0.0,0.0,0.0,0.0,
2.0656,4.632100089514708,4.632100089514708,4.248371149492423,0.0,0.0,0.0,4.5041904428406125,0.0,0.0,0.0,0.0,0.0,0.0,0.0,0.0,0.0,0.0,0.0,0.0,0.0,0.0,
2.0854,4.638504227963624,4.638504227963624,4.253448983572737,0.0,0.0,0.0,4.510152479833328,0.0,0.0,0.0,0.0,0.0,0.0,0.0,0.0,0.0,0.0,0.0,0.0,0.0,0.0,
2.1053,4.645038338680001,4.645038338680001,4.258627582307941,0.0,0.0,0.0,4.516234753222648,0.0,0.0,0.0,0.0,0.0,0.0,0.0,0.0,0.0,0.0,0.0,0.0,0.0,0.0,
2.1251,4.651638135839385,4.651638135839385,4.263855891350865,0.0,0.0,0.0,4.522377387676545,0.0,0.0,0.0,0.0,0.0,0.0,0.0,0.0,0.0,0.0,0.0,0.0,0.0,0.0,
2.145,4.658371712737223,4.658371712737223,4.269187745039584,0.0,0.0,0.0,4.528643723504676,0.0,0.0,0.0,0.0,0.0,0.0,0.0,0.0,0.0,0.0,0.0,0.0,0.0,0.0,
2.1649,4.665207459319301,4.665207459319301,4.274597983185298,0.0,0.0,0.0,4.535004300607967,0.0,0.0,0.0,0.0,0.0,0.0,0.0,0.0,0.0,0.0,0.0,0.0,0.0,0.0,
2.1847,4.672111752224964,4.672111752224964,4.280059897926782,0.0,0.0,0.0,4.5414278007922375,0.0,0.0,0.0,0.0,0.0,0.0,0.0,0.0,0.0,0.0,0.0,0.0,0.0,0.0,
2.2046,4.679155874505691,4.679155874505691,4.28562976148827,0.0,0.0,0.0,4.5479805034998835,0.0,0.0,0.0,0.0,0.0,0.0,0.0,0.0,0.0,0.0,0.0,0.0,0.0,0.0,
2.2244,4.686270603477859,4.686270603477859,4.291252716779335,0.0,0.0,0.0,4.554597974578351,0.0,0.0,0.0,0.0,0.0,0.0,0.0,0.0,0.0,0.0,0.0,0.0,0.0,0.0,
2.2443,4.693529429886963,4.693529429886963,4.296986718789043,0.0,0.0,0.0,4.561348526187657,0.0,0.0,0.0,0.0,0.0,0.0,0.0,0.0,0.0,0.0,0.0,0.0,0.0,0.0,
2.2642,4.700898365288875,4.700898365288875,4.302804766756939,0.0,0.0,0.0,4.568200499111563,0.0,0.0,0.0,0.0,0.0,0.0,0.0,0.0,0.0,0.0,0.0,0.0,0.0,0.0,
2.284,4.708341254971799,4.708341254971799,4.308678202766581,0.0,0.0,0.0,4.57512023757006,0.0,0.0,0.0,0.0,0.0,0.0,0.0,0.0,0.0,0.0,0.0,0.0,0.0,0.0,
2.3039,4.715935037869881,4.715935037869881,4.314667602746482,0.0,0.0,0.0,4.582179226162082,0.0,0.0,0.0,0.0,0.0,0.0,0.0,0.0,0.0,0.0,0.0,0.0,0.0,0.0,
2.3237,4.723605188092334,4.723605188092334,4.3207140436007005,0.0,0.0,0.0,4.589308139928456,0.0,0.0,0.0,0.0,0.0,0.0,0.0,0.0,0.0,0.0,0.0,0.0,0.0,0.0,
2.3436,4.7314310365008705,4.7314310365008705,4.326879914116802,0.0,0.0,0.0,4.596580662372848,0.0,0.0,0.0,0.0,0.0,0.0,0.0,0.0,0.0,0.0,0.0,0.0,0.0,0.0,
2.3635,4.739376049654593,4.739376049654593,4.333136251926263,0.0,0.0,0.0,4.60396278374515,0.0,0.0,0.0,0.0,0.0,0.0,0.0,0.0,0.0,0.0,0.0,0.0,0.0,0.0,
2.3833,4.747401353928789,4.747401353928789,4.339452313668639,0.0,0.0,0.0,4.611418340508739,0.0,0.0,0.0,0.0,0.0,0.0,0.0,0.0,0.0,0.0,0.0,0.0,0.0,0.0,
2.4032,4.755590024830303,4.755590024830303,4.345893317727423,0.0,0.0,0.0,4.619024455796009,0.0,0.0,0.0,0.0,0.0,0.0,0.0,0.0,0.0,0.0,0.0,0.0,0.0,0.0,
2.4231,4.763903913043552,4.763903913043552,4.352429060351026,0.0,0.0,0.0,4.62674562881271,0.0,0.0,0.0,0.0,0.0,0.0,0.0,0.0,0.0,0.0,0.0,0.0,0.0,0.0,
2.4429,4.772302413157854,4.772302413157854,4.359027474624904,0.0,0.0,0.0,4.634544100313538,0.0,0.0,0.0,0.0,0.0,0.0,0.0,0.0,0.0,0.0,0.0,0.0,0.0,0.0,
2.4628,4.780872544463836,4.780872544463836,4.365756747928781,0.0,0.0,0.0,4.642500612285485,0.0,0.0,0.0,0.0,0.0,0.0,0.0,0.0,0.0,0.0,0.0,0.0,0.0,0.0,
2.4826,4.789530408036625,4.789530408036625,4.372550817128482,0.0,0.0,0.0,4.6505372110672445,0.0,0.0,0.0,0.0,0.0,0.0,0.0,0.0,0.0,0.0,0.0,0.0,0.0,0.0,
2.5025,4.798365769514542,4.798365769514542,4.379479930508106,0.0,0.0,0.0,4.658737156512397,0.0,0.0,0.0,0.0,0.0,0.0,0.0,0.0,0.0,0.0,0.0,0.0,0.0,0.0,
2.5224,4.807337624523328,4.807337624523328,4.386511698369855,0.0,0.0,0.0,4.667062315805503,0.0,0.0,0.0,0.0,0.0,0.0,0.0,0.0,0.0,0.0,0.0,0.0,0.0,0.0,
2.5422,4.816402297345951,4.816402297345951,4.3936117159895165,0.0,0.0,0.0,4.675472103560472,0.0,0.0,0.0,0.0,0.0,0.0,0.0,0.0,0.0,0.0,0.0,0.0,0.0,0.0,
2.5621,4.825653870532894,4.825653870532894,4.400853460281018,0.0,0.0,0.0,4.684053733782268,0.0,0.0,0.0,0.0,0.0,0.0,0.0,0.0,0.0,0.0,0.0,0.0,0.0,0.0,
2.5819,4.83500194065334,4.83500194065334,4.408165946657643,0.0,0.0,0.0,4.692723275988108,0.0,0.0,0.0,0.0,0.0,0.0,0.0,0.0,0.0,0.0,0.0,0.0,0.0,0.0,
2.6018,4.844543604408144,4.844543604408144,4.4156248985549045,0.0,0.0,0.0,4.701570702457064,0.0,0.0,0.0,0.0,0.0,0.0,0.0,0.0,0.0,0.0,0.0,0.0,0.0,0.0,
2.6217,4.854234776934555,4.854234776934555,4.423195577849395,0.0,0.0,0.0,4.710555043906168,0.0,0.0,0.0,0.0,0.0,0.0,0.0,0.0,0.0,0.0,0.0,0.0,0.0,0.0,
