energies(eV),real_xx,real_yy,real_zz,real_xy,real_yz,real_xz,real_ave,imag_xx,imag_yy,imag_zz,imag_xy,imag_yz,imag_xz,imag_ave,absorption_xx,absorption_yy,absorption_zz,absorption_xy,absorption_yz,absorption_xz,absorption_ave,band_gap
0.0,4.271268437172715,4.271268437172715,3.968078554026395,0.0,0.0,0.0,4.170205142790608,0.0,0.0,0.0,0.0,0.0,0.0,0.0,0.0,0.0,0.0,0.0,0.0,0.0,0.0,2.9823000000000004
0.0158,4.271286089775488,4.271286089775488,3.9680900135031973,0.0,0.0,0.0,4.170220731018058,0.0,0.0,0.0,0.0,0.0,0.0,0.0,0.0,0.0,0.0,0.0,0.0,0.0,0.0,
0.0315,4.271338603147125,4.271338603147125,3.9681241030427277,0.0,0.0,0.0,4.170267103112326,0.0,0.0,0.0,0.0,0.0,0.0,0.0,0.0,0.0,0.0,0.0,0.0,0.0,0.0,
0.0473,4.271426651560006,4.271426651560006,3.96818125921402,0.0,0.0,0.0,4.170344854111344,0.0,0.0,0.0,0.0,0.0,0.0,0.0,0.0,0.0,0.0,0.0,0.0,0.0,0.0,
0.0631,4.271550021167322,4.271550021167322,3.9682613412835344,0.0,0.0,0.0,4.170453794539393,0.0,0.0,0.0,0.0,0.0,0.0,0.0,0.0,0.0,0.0,0.0,0.0,0.0,0.0,
0.0789,4.271708724439588,4.271708724439588,3.968364354667048,0.0,0.0,0.0,4.170593934515408,0.0,0.0,0.0,0.0,0.0,0.0,0.0,0.0,0.0,0.0,0.0,0.0,0.0,0.0,
0.0946,4.27190143804216,4.27190143804216,3.968489437022829,0.0,0.0,0.0,4.1707641043690495,0.0,0.0,0.0,0.0,0.0,0.0,0.0,0.0,0.0,0.0,0.0,0.0,0.0,0.0,
0.1104,4.272130636436908,4.272130636436908,3.9686381902279706,0.0,0.0,0.0,4.170966487700595,0.0,0.0,0.0,0.0,0.0,0.0,0.0,0.0,0.0,0.0,0.0,0.0,0.0,0.0,
0.1262,4.27239522722256,4.27239522722256,3.9688099002432495,0.0,0.0,0.0,4.171200118229456,0.0,0.0,0.0,0.0,0.0,0.0,0.0,0.0,0.0,0.0,0.0,0.0,0.0,0.0,
0.1419,4.272693226945176,4.272693226945176,3.9690032742979686,0.0,0.0,0.0,4.17146324272944,0.0,0.0,0.0,0.0,0.0,0.0,0.0,0.0,0.0,0.0,0.0,0.0,0.0,0.0,
0.1577,4.2730284619895205,4.2730284619895205,3.9692207888636513,0.0,0.0,0.0,4.171759237614231,0.0,0.0,0.0,0.0,0.0,0.0,0.0,0.0,0.0,0.0,0.0,0.0,0.0,0.0,
0.1735,4.2733991803509,4.2733991803509,3.969461299690108,0.0,0.0,0.0,4.172086553463969,0.0,0.0,0.0,0.0,0.0,0.0,0.0,0.0,0.0,0.0,0.0,0.0,0.0,0.0,
0.1893,4.273805419614568,4.273805419614568,3.969724823075639,0.0,0.0,0.0,4.1724452207682585,0.0,0.0,0.0,0.0,0.0,0.0,0.0,0.0,0.0,0.0,0.0,0.0,0.0,0.0,
0.205,4.274244312865544,4.274244312865544,3.9700094907948964,0.0,0.0,0.0,4.172832705508661,0.0,0.0,0.0,0.0,0.0,0.0,0.0,0.0,0.0,0.0,0.0,0.0,0.0,0.0,
0.2208,4.274721495707722,4.274721495707722,3.9703189485178627,0.0,0.0,0.0,4.173253979977769,0.0,0.0,0.0,0.0,0.0,0.0,0.0,0.0,0.0,0.0,0.0,0.0,0.0,0.0,
0.2366,4.275234333711229,4.275234333711229,3.9706514769767076,0.0,0.0,0.0,4.173706714799722,0.0,0.0,0.0,0.0,0.0,0.0,0.0,0.0,0.0,0.0,0.0,0.0,0.0,0.0,
0.2523,4.275779294825492,4.275779294825492,3.971004775314122,0.0,0.0,0.0,4.174187788321702,0.0,0.0,0.0,0.0,0.0,0.0,0.0,0.0,0.0,0.0,0.0,0.0,0.0,0.0,
0.2681,4.2763633767596705,4.2763633767596705,3.9713833681774586,0.0,0.0,0.0,4.174703373898933,0.0,0.0,0.0,0.0,0.0,0.0,0.0,0.0,0.0,0.0,0.0,0.0,0.0,0.0,
0.2839,4.276983280987903,4.276983280987903,3.9717851041050527,0.0,0.0,0.0,4.175250555360286,0.0,0.0,0.0,0.0,0.0,0.0,0.0,0.0,0.0,0.0,0.0,0.0,0.0,0.0,
0.2997,4.277639070735663,4.277639070735663,3.9722100104315015,0.0,0.0,0.0,4.175829383967609,0.0,0.0,0.0,0.0,0.0,0.0,0.0,0.0,0.0,0.0,0.0,0.0,0.0,0.0,
0.3154,4.278326321647381,4.278326321647381,3.9726552069638648,0.0,0.0,0.0,4.1764359500862085,0.0,0.0,0.0,0.0,0.0,0.0,0.0,0.0,0.0,0.0,0.0,0.0,0.0,0.0,
0.3312,4.2790538588395215,4.2790538588395215,3.973126395366229,0.0,0.0,0.0,4.177078037681757,0.0,0.0,0.0,0.0,0.0,0.0,0.0,0.0,0.0,0.0,0.0,0.0,0.0,0.0,
0.347,4.279817493224746,4.279817493224746,3.9736208455745343,0.0,0.0,0.0,4.177751944008008,0.0,0.0,0.0,0.0,0.0,0.0,0.0,0.0,0.0,0.0,0.0,0.0,0.0,0.0,
0.3627,4.280612127047901,4.280612127047901,3.9741352411423057,0.0,0.0,0.0,4.178453165079369,0.0,0.0,0.0,0.0,0.0,0.0,0.0,0.0,0.0,0.0,0.0,0.0,0.0,0.0,
0.3785,4.281447964662664,4.281447964662664,3.97467617006244,0.0,0.0,0.0,4.179190699795923,0.0,0.0,0.0,0.0,0.0,0.0,0.0,0.0,0.0,0.0,0.0,0.0,0.0,0.0,
0.3943,4.282320145161211,4.282320145161211,3.9752404666798844,0.0,0.0,0.0,4.179960252334102,0.0,0.0,0.0,0.0,0.0,0.0,0.0,0.0,0.0,0.0,0.0,0.0,0.0,0.0,
0.4101,4.283228758301361,4.283228758301361,3.975828169625013,0.0,0.0,0.0,4.180761895409245,0.0,0.0,0.0,0.0,0.0,0.0,0.0,0.0,0.0,0.0,0.0,0.0,0.0,0.0,
0.4258,4.284167800778639,4.284167800778639,3.9764353773220873,0.0,0.0,0.0,4.181590326293121,0.0,0.0,0.0,0.0,0.0,0.0,0.0,0.0,0.0,0.0,0.0,0.0,0.0,0.0,
0.4416,4.2851493319618115,4.2851493319618115,3.9770698666016324,0.0,0.0,0.0,4.182456176841751,0.0,0.0,0.0,0.0,0.0,0.0,0.0,0.0,0.0,0.0,0.0,0.0,0.0,0.0,
0.4574,4.286167587871819,4.286167587871819,3.977727887716197,0.0,0.0,0.0,4.183354354486611,0.0,0.0,0.0,0.0,0.0,0.0,0.0,0.0,0.0,0.0,0.0,0.0,0.0,0.0,
0.4731,4.287215880180838,4.287215880180838,3.978405097762647,0.0,0.0,0.0,4.184278952708108,0.0,0.0,0.0,0.0,0.0,0.0,0.0,0.0,0.0,0.0,0.0,0.0,0.0,0.0,
0.4889,4.2883076718238335,4.2883076718238335,3.979110170291379,0.0,0.0,0.0,4.1852418379796825,0.0,0.0,0.0,0.0,0.0,0.0,0.0,0.0,0.0,0.0,0.0,0.0,0.0,0.0,
0.5047,4.289436515941228,4.289436515941228,3.9798389151213387,0.0,0.0,0.0,4.186237315667931,0.0,0.0,0.0,0.0,0.0,0.0,0.0,0.0,0.0,0.0,0.0,0.0,0.0,0.0,
0.5205,4.2906025301068444,4.2906025301068444,3.9805913825488637,0.0,0.0,0.0,4.187265480920851,0.0,0.0,0.0,0.0,0.0,0.0,0.0,0.0,0.0,0.0,0.0,0.0,0.0,0.0,
0.5362,4.291798102619165,4.291798102619165,3.981362636781557,0.0,0.0,0.0,4.188319614006629,0.0,0.0,0.0,0.0,0.0,0.0,0.0,0.0,0.0,0.0,0.0,0.0,0.0,0.0,
0.552,4.293038588856136,4.293038588856136,3.9821625561457132,0.0,0.0,0.0,4.189413244619328,0.0,0.0,0.0,0.0,0.0,0.0,0.0,0.0,0.0,0.0,0.0,0.0,0.0,0.0,
0.5678,4.294316621835543,4.294316621835543,3.9829863589218943,0.0,0.0,0.0,4.190539867530994,0.0,0.0,0.0,0.0,0.0,0.0,0.0,0.0,0.0,0.0,0.0,0.0,0.0,0.0,
0.5835,4.295623889689799,4.295623889689799,3.983828661417172,0.0,0.0,0.0,4.191692146932257,0.0,0.0,0.0,0.0,0.0,0.0,0.0,0.0,0.0,0.0,0.0,0.0,0.0,0.0,
0.5993,4.296977183245014,4.296977183245014,3.984700252209423,0.0,0.0,0.0,4.192884872899817,0.0,0.0,0.0,0.0,0.0,0.0,0.0,0.0,0.0,0.0,0.0,0.0,0.0,0.0,
0.6151,4.298368438093126,4.298368438093126,3.9855959028127814,0.0,0.0,0.0,4.194110926333011,0.0,0.0,0.0,0.0,0.0,0.0,0.0,0.0,0.0,0.0,0.0,0.0,0.0,0.0,
0.6308,4.299788634585923,4.299788634585923,3.9865097783441263,0.0,0.0,0.0,4.195362349171991,0.0,0.0,0.0,0.0,0.0,0.0,0.0,0.0,0.0,0.0,0.0,0.0,0.0,0.0,
0.6466,4.3012560150813925,4.3012560150813925,3.9874535844231893,0.0,0.0,0.0,4.196655204861991,0.0,0.0,0.0,0.0,0.0,0.0,0.0,0.0,0.0,0.0,0.0,0.0,0.0,0.0,
0.6624,4.302761810399733,4.302761810399733,3.9884216426144907,0.0,0.0,0.0,4.197981754471319,0.0,0.0,0.0,0.0,0.0,0.0,0.0,0.0,0.0,0.0,0.0,0.0,0.0,0.0,
0.6782,4.304306180933865,4.304306180933865,3.9894140207564526,0.0,0.0,0.0,4.199342127541394,0.0,0.0,0.0,0.0,0.0,0.0,0.0,0.0,0.0,0.0,0.0,0.0,0.0,0.0,
0.6939,4.305879149753805,4.305879149753805,3.9904242764330564,0.0,0.0,0.0,4.200727525313556,0.0,0.0,0.0,0.0,0.0,0.0,0.0,0.0,0.0,0.0,0.0,0.0,0.0,0.0,
0.7097,4.307500923287713,4.307500923287713,3.991465350267094,0.0,0.0,0.0,4.20215573228084,0.0,0.0,0.0,0.0,0.0,0.0,0.0,0.0,0.0,0.0,0.0,0.0,0.0,0.0,
0.7255,4.309161779521865,4.309161779521865,3.9925309581148363,0.0,0.0,0.0,4.2036181723861885,0.0,0.0,0.0,0.0,0.0,0.0,0.0,0.0,0.0,0.0,0.0,0.0,0.0,0.0,
0.7412,4.31085101319722,4.31085101319722,3.9936141975440718,0.0,0.0,0.0,4.205105407979503,0.0,0.0,0.0,0.0,0.0,0.0,0.0,0.0,0.0,0.0,0.0,0.0,0.0,0.0,
0.757,4.3125903258013185,4.3125903258013185,3.994728944477469,0.0,0.0,0.0,4.206636532026702,0.0,0.0,0.0,0.0,0.0,0.0,0.0,0.0,0.0,0.0,0.0,0.0,0.0,0.0,
0.7728,4.314369270663753,4.314369270663753,3.995868456253643,0.0,0.0,0.0,4.2082023325270494,0.0,0.0,0.0,0.0,0.0,0.0,0.0,0.0,0.0,0.0,0.0,0.0,0.0,0.0,
0.7886,4.316188040996131,4.316188040996131,3.9970328137868227,0.0,0.0,0.0,4.209802965259695,0.0,0.0,0.0,0.0,0.0,0.0,0.0,0.0,0.0,0.0,0.0,0.0,0.0,0.0,
0.8043,4.318034944141421,4.318034944141421,3.998214494233727,0.0,0.0,0.0,4.211428127505523,0.0,0.0,0.0,0.0,0.0,0.0,0.0,0.0,0.0,0.0,0.0,0.0,0.0,0.0,
0.8201,4.319933709571165,4.319933709571165,3.999428635196777,0.0,0.0,0.0,4.213098684779703,0.0,0.0,0.0,0.0,0.0,0.0,0.0,0.0,0.0,0.0,0.0,0.0,0.0,0.0,
0.8359,4.3218729085885625,4.3218729085885625,4.00066787578258,0.0,0.0,0.0,4.214804564319902,0.0,0.0,0.0,0.0,0.0,0.0,0.0,0.0,0.0,0.0,0.0,0.0,0.0,0.0,
0.8516,4.323840095527291,4.323840095527291,4.001924222628284,0.0,0.0,0.0,4.216534804560955,0.0,0.0,0.0,0.0,0.0,0.0,0.0,0.0,0.0,0.0,0.0,0.0,0.0,0.0,
0.8674,4.325860547389167,4.325860547389167,4.003213770420611,0.0,0.0,0.0,4.218311621732982,0.0,0.0,0.0,0.0,0.0,0.0,0.0,0.0,0.0,0.0,0.0,0.0,0.0,0.0,
0.8832,4.327922086865268,4.327922086865268,4.004528689519136,0.0,0.0,0.0,4.220124287749891,0.0,0.0,0.0,0.0,0.0,0.0,0.0,0.0,0.0,0.0,0.0,0.0,0.0,0.0,
0.899,4.3300249429786914,4.3300249429786914,4.005869074734354,0.0,0.0,0.0,4.221972986897246,0.0,0.0,0.0,0.0,0.0,0.0,0.0,0.0,0.0,0.0,0.0,0.0,0.0,0.0,
0.9147,4.332155646806268,4.332155646806268,4.007226297110735,0.0,0.0,0.0,4.223845863574424,0.0,0.0,0.0,0.0,0.0,0.0,0.0,0.0,0.0,0.0,0.0,0.0,0.0,0.0,
0.9305,4.334341579706816,4.334341579706816,4.008617744538894,0.0,0.0,0.0,4.225766967984176,0.0,0.0,0.0,0.0,0.0,0.0,0.0,0.0,0.0,0.0,0.0,0.0,0.0,0.0,
0.9463,4.336569547500961,4.336569547500961,4.010034954342817,0.0,0.0,0.0,4.227724683114913,0.0,0.0,0.0,0.0,0.0,0.0,0.0,0.0,0.0,0.0,0.0,0.0,0.0,0.0,
0.962,4.338825299081016,4.338825299081016,4.0114688147636945,0.0,0.0,0.0,4.229706470975242,0.0,0.0,0.0,0.0,0.0,0.0,0.0,0.0,0.0,0.0,0.0,0.0,0.0,0.0,
0.9778,4.341137825584096,4.341137825584096,4.012937696312006,0.0,0.0,0.0,4.2317377824934,0.0,0.0,0.0,0.0,0.0,0.0,0.0,0.0,0.0,0.0,0.0,0.0,0.0,0.0,
0.9936,4.343493155844071,4.343493155844071,4.014432655574383,0.0,0.0,0.0,4.233806322420841,0.0,0.0,0.0,0.0,0.0,0.0,0.0,0.0,0.0,0.0,0.0,0.0,0.0,0.0,
1.0094,4.345891558361698,4.345891558361698,4.015953802241485,0.0,0.0,0.0,4.2359123063216275,0.0,0.0,0.0,0.0,0.0,0.0,0.0,0.0,0.0,0.0,0.0,0.0,0.0,0.0,
1.0251,4.3483177166347655,4.3483177166347655,4.017491371326348,0.0,0.0,0.0,4.238042268198626,0.0,0.0,0.0,0.0,0.0,0.0,0.0,0.0,0.0,0.0,0.0,0.0,0.0,0.0,
1.0409,4.350802816224032,4.350802816224032,4.019065063244202,0.0,0.0,0.0,4.240223565230756,0.0,0.0,0.0,0.0,0.0,0.0,0.0,0.0,0.0,0.0,0.0,0.0,0.0,0.0,
1.0567,4.353331828082746,4.353331828082746,4.020665284316845,0.0,0.0,0.0,4.242442980160779,0.0,0.0,0.0,0.0,0.0,0.0,0.0,0.0,0.0,0.0,0.0,0.0,0.0,0.0,
1.0724,4.355888619410582,4.355888619410582,4.022281772566578,0.0,0.0,0.0,4.244686337129248,0.0,0.0,0.0,0.0,0.0,0.0,0.0,0.0,0.0,0.0,0.0,0.0,0.0,0.0,
1.0882,4.358506058596025,4.358506058596025,4.023935240585187,0.0,0.0,0.0,4.2469824525924125,0.0,0.0,0.0,0.0,0.0,0.0,0.0,0.0,0.0,0.0,0.0,0.0,0.0,0.0,
1.104,4.361168306385902,4.361168306385902,4.025615600086363,0.0,0.0,0.0,4.249317404286056,0.0,0.0,0.0,0.0,0.0,0.0,0.0,0.0,0.0,0.0,0.0,0.0,0.0,0.0,
1.1198,4.363875675219687,4.363875675219687,4.0273229768101135,0.0,0.0,0.0,4.2516914424164955,0.0,0.0,0.0,0.0,0.0,0.0,0.0,0.0,0.0,0.0,0.0,0.0,0.0,0.0,
1.1355,4.366610917835752,4.366610917835752,4.029046435282043,0.0,0.0,0.0,4.254089423651183,0.0,0.0,0.0,0.0,0.0,0.0,0.0,0.0,0.0,0.0,0.0,0.0,0.0,0.0,
1.1513,4.369409202316194,4.369409202316194,4.030808060269481,0.0,0.0,0.0,4.256542154967289,0.0,0.0,0.0,0.0,0.0,0.0,0.0,0.0,0.0,0.0,0.0,0.0,0.0,0.0,
1.1671,4.372253583725829,4.372253583725829,4.032597093392939,0.0,0.0,0.0,4.259034753614865,0.0,0.0,0.0,0.0,0.0,0.0,0.0,0.0,0.0,0.0,0.0,0.0,0.0,0.0,
1.1828,4.375125958917504,4.375125958917504,4.034402085950365,0.0,0.0,0.0,4.261551334595125,0.0,0.0,0.0,0.0,0.0,0.0,0.0,0.0,0.0,0.0,0.0,0.0,0.0,0.0,
1.1986,4.378063263900382,4.378063263900382,4.036246168784611,0.0,0.0,0.0,4.264124232195125,0.0,0.0,0.0,0.0,0.0,0.0,0.0,0.0,0.0,0.0,0.0,0.0,0.0,0.0,
1.2144,4.381047704953887,4.381047704953887,4.038118073015472,0.0,0.0,0.0,4.266737827641082,0.0,0.0,0.0,0.0,0.0,0.0,0.0,0.0,0.0,0.0,0.0,0.0,0.0,0.0,
1.2302,4.384079643866583,4.384079643866583,4.040017941812671,0.0,0.0,0.0,4.269392409848613,0.0,0.0,0.0,0.0,0.0,0.0,0.0,0.0,0.0,0.0,0.0,0.0,0.0,0.0,
1.2459,4.38713980624884,4.38713980624884,4.041933629864797,0.0,0.0,0.0,4.272071080787492,0.0,0.0,0.0,0.0,0.0,0.0,0.0,0.0,0.0,0.0,0.0,0.0,0.0,0.0,
1.2617,4.390267550115205,4.390267550115205,4.043889688496944,0.0,0.0,0.0,4.274808262909118,0.0,0.0,0.0,0.0,0.0,0.0,0.0,0.0,0.0,0.0,0.0,0.0,0.0,0.0,
1.2775,4.39344392071602,4.39344392071602,4.045874156103266,0.0,0.0,0.0,4.277587332511769,0.0,0.0,0.0,0.0,0.0,0.0,0.0,0.0,0.0,0.0,0.0,0.0,0.0,0.0,
1.2932,4.3966487420687,4.3966487420687,4.047874355686615,0.0,0.0,0.0,4.280390613274672,0.0,0.0,0.0,0.0,0.0,0.0,0.0,0.0,0.0,0.0,0.0,0.0,0.0,0.0,
1.309,4.399923238783698,4.399923238783698,4.049915923268475,0.0,0.0,0.0,4.283254133611957,0.0,0.0,0.0,0.0,0.0,0.0,0.0,0.0,0.0,0.0,0.0,0.0,0.0,0.0,
1.3248,4.4032475627670875,4.4032475627670875,4.05198636866132,0.0,0.0,0.0,4.286160498065165,0.0,0.0,0.0,0.0,0.0,0.0,0.0,0.0,0.0,0.0,0.0,0.0,0.0,0.0,
1.3406,4.406622131714478,4.406622131714478,4.054085854088788,0.0,0.0,0.0,4.289110039172582,0.0,0.0,0.0,0.0,0.0,0.0,0.0,0.0,0.0,0.0,0.0,0.0,0.0,0.0,
1.3563,4.410025532959885,4.410025532959885,4.056200979739332,0.0,0.0,0.0,4.292084015219701,0.0,0.0,0.0,0.0,0.0,0.0,0.0,0.0,0.0,0.0,0.0,0.0,0.0,0.0,
1.3721,4.413501554707484,4.413501554707484,4.05835885700948,0.0,0.0,0.0,4.295120655474816,0.0,0.0,0.0,0.0,0.0,0.0,0.0,0.0,0.0,0.0,0.0,0.0,0.0,0.0,
1.3879,4.41702912403465,4.41702912403465,4.060546277308919,0.0,0.0,0.0,4.298201508459407,0.0,0.0,0.0,0.0,0.0,0.0,0.0,0.0,0.0,0.0,0.0,0.0,0.0,0.0,
1.4036,4.420585874077599,4.420585874077599,4.06274928825985,0.0,0.0,0.0,4.301307012138349,0.0,0.0,0.0,0.0,0.0,0.0,0.0,0.0,0.0,0.0,0.0,0.0,0.0,0.0,
1.4194,4.424217573722169,4.424217573722169,4.064996129745567,0.0,0.0,0.0,4.304477092396635,0.0,0.0,0.0,0.0,0.0,0.0,0.0,0.0,0.0,0.0,0.0,0.0,0.0,0.0,
1.4352,4.42790220541703,4.42790220541703,4.067273044129331,0.0,0.0,0.0,4.307692484987797,0.0,0.0,0.0,0.0,0.0,0.0,0.0,0.0,0.0,0.0,0.0,0.0,0.0,0.0,
1.451,4.431640250723554,4.431640250723554,4.069580214596435,0.0,0.0,0.0,4.3109535720145145,0.0,0.0,0.0,0.0,0.0,0.0,0.0,0.0,0.0,0.0,0.0,0.0,0.0,0.0,
1.4667,4.435408030856012,4.435408030856012,4.071902936366912,0.0,0.0,0.0,4.314239666026311,0.0,0.0,0.0,0.0,0.0,0.0,0.0,0.0,0.0,0.0,0.0,0.0,0.0,0.0,
1.4825,4.439254041878888,4.439254041878888,4.074270986825824,0.0,0.0,0.0,4.317593023527866,0.0,0.0,0.0,0.0,0.0,0.0,0.0,0.0,0.0,0.0,0.0,0.0,0.0,0.0,
1.4983,4.4431549680689715,4.4431549680689715,4.076669860929891,0.0,0.0,0.0,4.320993265689278,0.0,0.0,0.0,0.0,0.0,0.0,0.0,0.0,0.0,0.0,0.0,0.0,0.0,0.0,
1.514,4.44708611600492,4.44708611600492,4.079084277794596,0.0,0.0,0.0,4.324418836601478,0.0,0.0,0.0,0.0,0.0,0.0,0.0,0.0,0.0,0.0,0.0,0.0,0.0,0.0,
1.5298,4.451098094185572,4.451098094185572,4.081545192778092,0.0,0.0,0.0,4.327913793716412,0.0,0.0,0.0,0.0,0.0,0.0,0.0,0.0,0.0,0.0,0.0,0.0,0.0,0.0,
1.5456,4.455166583353159,4.455166583353159,4.084037528714077,0.0,0.0,0.0,4.331456898473465,0.0,0.0,0.0,0.0,0.0,0.0,0.0,0.0,0.0,0.0,0.0,0.0,0.0,0.0,
1.5614,4.459292138621027,4.459292138621027,4.086561491989775,0.0,0.0,0.0,4.335048589743943,0.0,0.0,0.0,0.0,0.0,0.0,0.0,0.0,0.0,0.0,0.0,0.0,0.0,0.0,
1.5771,4.46344866823825,4.46344866823825,4.089101016008321,0.0,0.0,0.0,4.338666117494941,0.0,0.0,0.0,0.0,0.0,0.0,0.0,0.0,0.0,0.0,0.0,0.0,0.0,0.0,
1.5929,4.467689696782014,4.467689696782014,4.091688663752443,0.0,0.0,0.0,4.34235601910549,0.0,0.0,0.0,0.0,0.0,0.0,0.0,0.0,0.0,0.0,0.0,0.0,0.0,0.0,
1.6087,4.471989522624333,4.471989522624333,4.094308577989564,0.0,0.0,0.0,4.346095874412743,0.0,0.0,0.0,0.0,0.0,0.0,0.0,0.0,0.0,0.0,0.0,0.0,0.0,0.0,
1.6244,4.476320969978998,4.476320969978998,4.096944089546959,0.0,0.0,0.0,4.349862009834985,0.0,0.0,0.0,0.0,0.0,0.0,0.0,0.0,0.0,0.0,0.0,0.0,0.0,0.0,
1.6402,4.4807398280274615,4.4807398280274615,4.099628995182503,0.0,0.0,0.0,4.353702883745808,0.0,0.0,0.0,0.0,0.0,0.0,0.0,0.0,0.0,0.0,0.0,0.0,0.0,0.0,
1.656,4.485219324001147,4.485219324001147,4.102346839585207,0.0,0.0,0.0,4.357595162529167,0.0,0.0,0.0,0.0,0.0,0.0,0.0,0.0,0.0,0.0,0.0,0.0,0.0,0.0,
1.6718,4.489760098403186,4.489760098403186,4.1050978549779265,0.0,0.0,0.0,4.361539350594765,0.0,0.0,0.0,0.0,0.0,0.0,0.0,0.0,0.0,0.0,0.0,0.0,0.0,0.0,
1.6875,4.494333477885355,4.494333477885355,4.107864549045776,0.0,0.0,0.0,4.365510501605495,0.0,0.0,0.0,0.0,0.0,0.0,0.0,0.0,0.0,0.0,0.0,0.0,0.0,0.0,
1.7033,4.498998385985912,4.498998385985912,4.110682405187552,0.0,0.0,0.0,4.369559725719792,0.0,0.0,0.0,0.0,0.0,0.0,0.0,0.0,0.0,0.0,0.0,0.0,0.0,0.0,
1.7191,4.503726570932406,4.503726570932406,4.11353415132573,0.0,0.0,0.0,4.373662431063514,0.0,0.0,0.0,0.0,0.0,0.0,0.0,0.0,0.0,0.0,0.0,0.0,0.0,0.0,
1.7348,4.5084881956139835,4.5084881956139835,4.116401662843173,0.0,0.0,0.0,4.37779268469038,0.0,0.0,0.0,0.0,0.0,0.0,0.0,0.0,0.0,0.0,0.0,0.0,0.0,0.0,
1.7506,4.513344624137998,4.513344624137998,4.119321719762169,0.0,0.0,0.0,4.382003656012722,0.0,0.0,0.0,0.0,0.0,0.0,0.0,0.0,0.0,0.0,0.0,0.0,0.0,0.0,
1.7664,4.518266455983568,4.518266455983568,4.122276422780665,0.0,0.0,0.0,4.386269778249267,0.0,0.0,0.0,0.0,0.0,0.0,0.0,0.0,0.0,0.0,0.0,0.0,0.0,0.0,
1.7821,4.523222652559754,4.523222652559754,4.125247001155895,0.0,0.0,0.0,4.390564102091801,0.0,0.0,0.0,0.0,0.0,0.0,0.0,0.0,0.0,0.0,0.0,0.0,0.0,0.0,
1.7979,4.528277102215174,4.528277102215174,4.128271560825169,0.0,0.0,0.0,4.3949419217518395,0.0,0.0,0.0,0.0,0.0,0.0,0.0,0.0,0.0,0.0,0.0,0.0,0.0,0.0,
1.8137,4.5333992189907395,4.5333992189907395,4.131331561709814,0.0,0.0,0.0,4.399376666563764,0.0,0.0,0.0,0.0,0.0,0.0,0.0,0.0,0.0,0.0,0.0,0.0,0.0,0.0,
1.8295,4.538589791411553,4.538589791411553,4.1344272784538045,0.0,0.0,0.0,4.403868953758971,0.0,0.0,0.0,0.0,0.0,0.0,0.0,0.0,0.0,0.0,0.0,0.0,0.0,0.0,
1.8452,4.543816115265156,4.543816115265156,4.137539055622959,0.0,0.0,0.0,4.408390428717757,0.0,0.0,0.0,0.0,0.0,0.0,0.0,0.0,0.0,0.0,0.0,0.0,0.0,0.0,
1.861,4.549145586178477,4.549145586178477,4.140706816230121,0.0,0.0,0.0,4.412999329529025,0.0,0.0,0.0,0.0,0.0,0.0,0.0,0.0,0.0,0.0,0.0,0.0,0.0,0.0,
1.8768,4.554545975715449,4.554545975715449,4.143911143089678,0.0,0.0,0.0,4.417667698173525,0.0,0.0,0.0,0.0,0.0,0.0,0.0,0.0,0.0,0.0,0.0,0.0,0.0,0.0,
1.8925,4.5599832807404574,4.5599832807404574,4.147131699595935,0.0,0.0,0.0,4.422366087025616,0.0,0.0,0.0,0.0,0.0,0.0,0.0,0.0,0.0,0.0,0.0,0.0,0.0,0.0,
1.9083,4.565527638554736,4.565527638554736,4.150409809125,0.0,0.0,0.0,4.427155028744823,0.0,0.0,0.0,0.0,0.0,0.0,0.0,0.0,0.0,0.0,0.0,0.0,0.0,0.0,
1.9241,4.5711455405765165,4.5711455405765165,4.153725379363168,0.0,0.0,0.0,4.432005486838734,0.0,0.0,0.0,0.0,0.0,0.0,0.0,0.0,0.0,0.0,0.0,0.0,0.0,0.0,
1.9399,4.576837902240778,4.576837902240778,4.157078719329112,0.0,0.0,0.0,4.436918174603556,0.0,0.0,0.0,0.0,0.0,0.0,0.0,0.0,0.0,0.0,0.0,0.0,0.0,0.0,
1.9556,4.582568915173239,4.582568915173239,4.160448558194632,0.0,0.0,0.0,4.441862129513703,0.0,0.0,0.0,0.0,0.0,0.0,0.0,0.0,0.0,0.0,0.0,0.0,0.0,0.0,
1.9714,4.588412536859842,4.588412536859842,4.1638781418259185,0.0,0.0,0.0,4.446901071848534,0.0,0.0,0.0,0.0,0.0,0.0,0.0,0.0,0.0,0.0,0.0,0.0,0.0,0.0,
1.9872,4.59433348063523,4.59433348063523,4.167346452261098,0.0,0.0,0.0,4.452004471177186,0.0,0.0,0.0,0.0,0.0,0.0,0.0,0.0,0.0,0.0,0.0,0.0,0.0,0.0,
2.0029,4.600294526749648,4.600294526749648,4.1708314981667645,0.0,0.0,0.0,4.457140183888687,0.0,0.0,0.0,0.0,0.0,0.0,0.0,0.0,0.0,0.0,0.0,0.0,0.0,0.0,
2.0187,4.606372627561041,4.606372627561041,4.174378009647757,0.0,0.0,0.0,4.462374421589947,0.0,0.0,0.0,0.0,0.0,0.0,0.0,0.0,0.0,0.0,0.0,0.0,0.0,0.0,
2.0345,4.612531107116653,4.612531107116653,4.177964255074256,0.0,0.0,0.0,4.467675489769188,0.0,0.0,0.0,0.0,0.0,0.0,0.0,0.0,0.0,0.0,0.0,0.0,0.0,0.0,
2.0503,4.618771032442133,4.618771032442133,4.18159058252354,0.0,0.0,0.0,4.473044215802602,0.0,0.0,0.0,0.0,0.0,0.0,0.0,0.0,0.0,0.0,0.0,0.0,0.0,0.0,
2.066,4.625053217189656,4.625053217189656,4.185234010830229,0.0,0.0,0.0,4.478446815069847,0.0,0.0,0.0,0.0,0.0,0.0,0.0,0.0,0.0,0.0,0.0,0.0,0.0,0.0,
2.0818,4.6314587990513285,4.6314587990513285,4.1889413114187,0.0,0.0,0.0,4.483952969840453,0.0,0.0,0.0,0.0,0.0,0.0,0.0,0.0,0.0,0.0,0.0,0.0,0.0,0.0,
