energies(eV),real_xx,real_yy,real_zz,real_xy,real_yz,real_xz,real_ave,imag_xx,imag_yy,imag_zz,imag_xy,imag_yz,imag_xz,imag_ave,absorption_xx,absorption_yy,absorption_zz,absorption_xy,absorption_yz,absorption_xz,absorption_ave,band_gap
0.0,2.67197183636386,2.67197183636386,2.774116948998876,0.0,0.0,0.0,2.7060202072421986,0.0,0.0,0.0,0.0,0.0,0.0,0.0,0.0,0.0,0.0,0.0,0.0,0.0,0.0,6.859500000000001
0.0156,2.6719743045446105,2.6719743045446105,2.774119857211131,0.0,0.0,0.0,2.7060228221001172,0.0,0.0,0.0,0.0,0.0,0.0,0.0,0.0,0.0,0.0,0.0,0.0,0.0,0.0,
0.0311,2.671981645963631,2.671981645963631,2.7741285074819957,0.0,0.0,0.0,2.706030599803086,0.0,0.0,0.0,0.0,0.0,0.0,0.0,0.0,0.0,0.0,0.0,0.0,0.0,0.0,
0.0467,2.6719939555364376,2.6719939555364376,2.774143011682286,0.0,0.0,0.0,2.7060436409183866,0.0,0.0,0.0,0.0,0.0,0.0,0.0,0.0,0.0,0.0,0.0,0.0,0.0,0.0,
0.0622,2.672011075757724,2.672011075757724,2.7741631842809626,0.0,0.0,0.0,2.7060617785988037,0.0,0.0,0.0,0.0,0.0,0.0,0.0,0.0,0.0,0.0,0.0,0.0,0.0,0.0,
0.0778,2.672033227970919,2.672033227970919,2.7741892861629527,0.0,0.0,0.0,2.706085247368263,0.0,0.0,0.0,0.0,0.0,0.0,0.0,0.0,0.0,0.0,0.0,0.0,0.0,0.0,
0.0933,2.6720601287307613,2.6720601287307613,2.774220983445142,0.0,0.0,0.0,2.7061137469688883,0.0,0.0,0.0,0.0,0.0,0.0,0.0,0.0,0.0,0.0,0.0,0.0,0.0,0.0,
0.1089,2.6720921258311288,2.6720921258311288,2.774258686057207,0.0,0.0,0.0,2.7061476459064884,0.0,0.0,0.0,0.0,0.0,0.0,0.0,0.0,0.0,0.0,0.0,0.0,0.0,0.0,
0.1245,2.6721290623627594,2.6721290623627594,2.774302209258763,0.0,0.0,0.0,2.7061867779947604,0.0,0.0,0.0,0.0,0.0,0.0,0.0,0.0,0.0,0.0,0.0,0.0,0.0,0.0,
0.14,2.6721706550916116,2.6721706550916116,2.774351219471445,0.0,0.0,0.0,2.7062308432182225,0.0,0.0,0.0,0.0,0.0,0.0,0.0,0.0,0.0,0.0,0.0,0.0,0.0,0.0,
0.1556,2.6722174417611013,2.6722174417611013,2.7744063505275705,0.0,0.0,0.0,2.7062804113499244,0.0,0.0,0.0,0.0,0.0,0.0,0.0,0.0,0.0,0.0,0.0,0.0,0.0,0.0,
0.1711,2.672268823720311,2.672268823720311,2.774466897217475,0.0,0.0,0.0,2.7063348482193654,0.0,0.0,0.0,0.0,0.0,0.0,0.0,0.0,0.0,0.0,0.0,0.0,0.0,0.0,
0.1867,2.672325465275925,2.672325465275925,2.7745336425714795,0.0,0.0,0.0,2.7063948577077768,0.0,0.0,0.0,0.0,0.0,0.0,0.0,0.0,0.0,0.0,0.0,0.0,0.0,0.0,
0.2023,2.6723870522214073,2.6723870522214073,2.7746062166008256,0.0,0.0,0.0,2.7064601070145464,0.0,0.0,0.0,0.0,0.0,0.0,0.0,0.0,0.0,0.0,0.0,0.0,0.0,0.0,
0.2178,2.67245314387333,2.67245314387333,2.7746841002724496,0.0,0.0,0.0,2.706530129339703,0.0,0.0,0.0,0.0,0.0,0.0,0.0,0.0,0.0,0.0,0.0,0.0,0.0,0.0,
0.2334,2.6725245947180287,2.6725245947180287,2.7747683008318744,0.0,0.0,0.0,2.7066058300893108,0.0,0.0,0.0,0.0,0.0,0.0,0.0,0.0,0.0,0.0,0.0,0.0,0.0,0.0,
0.2489,2.672600490520221,2.672600490520221,2.774857741229586,0.0,0.0,0.0,2.706686240756676,0.0,0.0,0.0,0.0,0.0,0.0,0.0,0.0,0.0,0.0,0.0,0.0,0.0,0.0,
0.2645,2.6726818125232183,2.6726818125232183,2.7749535781722927,0.0,0.0,0.0,2.7067724010729095,0.0,0.0,0.0,0.0,0.0,0.0,0.0,0.0,0.0,0.0,0.0,0.0,0.0,0.0,
0.28,2.6727675201884074,2.6727675201884074,2.7750545857657465,0.0,0.0,0.0,2.706863208714187,0.0,0.0,0.0,0.0,0.0,0.0,0.0,0.0,0.0,0.0,0.0,0.0,0.0,0.0,
0.2956,2.6728587216162176,2.6728587216162176,2.775162070313911,0.0,0.0,0.0,2.706959837848782,0.0,0.0,0.0,0.0,0.0,0.0,0.0,0.0,0.0,0.0,0.0,0.0,0.0,0.0,
0.3112,2.6729548820700626,2.6729548820700626,2.775275402048295,0.0,0.0,0.0,2.707061722062807,0.0,0.0,0.0,0.0,0.0,0.0,0.0,0.0,0.0,0.0,0.0,0.0,0.0,0.0,
0.3267,2.6730553399884456,2.6730553399884456,2.7753938016839435,0.0,0.0,0.0,2.707168160553612,0.0,0.0,0.0,0.0,0.0,0.0,0.0,0.0,0.0,0.0,0.0,0.0,0.0,0.0,
0.3423,2.673161394178058,2.673161394178058,2.7755188004556177,0.0,0.0,0.0,2.7072805296039113,0.0,0.0,0.0,0.0,0.0,0.0,0.0,0.0,0.0,0.0,0.0,0.0,0.0,0.0,
0.3578,2.6732716876492635,2.6732716876492635,2.7756487994539976,0.0,0.0,0.0,2.7073973915841747,0.0,0.0,0.0,0.0,0.0,0.0,0.0,0.0,0.0,0.0,0.0,0.0,0.0,0.0,
0.3734,2.673387646373391,2.673387646373391,2.7757854799291604,0.0,0.0,0.0,2.7075202575586474,0.0,0.0,0.0,0.0,0.0,0.0,0.0,0.0,0.0,0.0,0.0,0.0,0.0,0.0,
0.389,2.6735085776749257,2.6735085776749257,2.775928025995328,0.0,0.0,0.0,2.7076483937817266,0.0,0.0,0.0,0.0,0.0,0.0,0.0,0.0,0.0,0.0,0.0,0.0,0.0,0.0,
0.4045,2.67363366170755,2.67363366170755,2.7760754717808585,0.0,0.0,0.0,2.707780931731986,0.0,0.0,0.0,0.0,0.0,0.0,0.0,0.0,0.0,0.0,0.0,0.0,0.0,0.0,
0.4201,2.6737645156721666,2.6737645156721666,2.7762297241780742,0.0,0.0,0.0,2.707919585174136,0.0,0.0,0.0,0.0,0.0,0.0,0.0,0.0,0.0,0.0,0.0,0.0,0.0,0.0,
0.4356,2.6738994652669357,2.6738994652669357,2.776388810094203,0.0,0.0,0.0,2.708062580209358,0.0,0.0,0.0,0.0,0.0,0.0,0.0,0.0,0.0,0.0,0.0,0.0,0.0,0.0,
0.4512,2.6740402552470233,2.6740402552470233,2.7765547869667655,0.0,0.0,0.0,2.708211765820271,0.0,0.0,0.0,0.0,0.0,0.0,0.0,0.0,0.0,0.0,0.0,0.0,0.0,0.0,
0.4667,2.6741850841808326,2.6741850841808326,2.7767255317369854,0.0,0.0,0.0,2.708365233366217,0.0,0.0,0.0,0.0,0.0,0.0,0.0,0.0,0.0,0.0,0.0,0.0,0.0,0.0,
0.4823,2.6743358245566844,2.6743358245566844,2.776903252630914,0.0,0.0,0.0,2.708524967248094,0.0,0.0,0.0,0.0,0.0,0.0,0.0,0.0,0.0,0.0,0.0,0.0,0.0,0.0,
0.4979,2.6744915618676606,2.6744915618676606,2.7770868722199813,0.0,0.0,0.0,2.708689998651767,0.0,0.0,0.0,0.0,0.0,0.0,0.0,0.0,0.0,0.0,0.0,0.0,0.0,0.0,
0.5134,2.674651253814398,2.674651253814398,2.777275162245358,0.0,0.0,0.0,2.7088592232913844,0.0,0.0,0.0,0.0,0.0,0.0,0.0,0.0,0.0,0.0,0.0,0.0,0.0,0.0,
0.529,2.674816965055455,2.674816965055455,2.777470557855164,0.0,0.0,0.0,2.7090348293220248,0.0,0.0,0.0,0.0,0.0,0.0,0.0,0.0,0.0,0.0,0.0,0.0,0.0,0.0,
0.5445,2.6749865752990605,2.6749865752990605,2.777670559705653,0.0,0.0,0.0,2.709214570101258,0.0,0.0,0.0,0.0,0.0,0.0,0.0,0.0,0.0,0.0,0.0,0.0,0.0,0.0,
0.5601,2.675162277442708,2.675162277442708,2.7778777544219624,0.0,0.0,0.0,2.7094007697691267,0.0,0.0,0.0,0.0,0.0,0.0,0.0,0.0,0.0,0.0,0.0,0.0,0.0,0.0,
0.5757,2.6753429978202528,2.6753429978202528,2.7780908768040917,0.0,0.0,0.0,2.7095922908148657,0.0,0.0,0.0,0.0,0.0,0.0,0.0,0.0,0.0,0.0,0.0,0.0,0.0,0.0,
0.5912,2.6755275344296177,2.6755275344296177,2.7783085100827583,0.0,0.0,0.0,2.7097878596473315,0.0,0.0,0.0,0.0,0.0,0.0,0.0,0.0,0.0,0.0,0.0,0.0,0.0,0.0,
0.6068,2.675718273161057,2.675718273161057,2.7785334689253065,0.0,0.0,0.0,2.709990005082474,0.0,0.0,0.0,0.0,0.0,0.0,0.0,0.0,0.0,0.0,0.0,0.0,0.0,0.0,
0.6223,2.6759127735091246,2.6759127735091246,2.778762875863918,0.0,0.0,0.0,2.710196140960722,0.0,0.0,0.0,0.0,0.0,0.0,0.0,0.0,0.0,0.0,0.0,0.0,0.0,0.0,
0.6379,2.6761135501930378,2.6761135501930378,2.7789996978466744,0.0,0.0,0.0,2.7104089327442495,0.0,0.0,0.0,0.0,0.0,0.0,0.0,0.0,0.0,0.0,0.0,0.0,0.0,0.0,
0.6534,2.67631803427881,2.67631803427881,2.7792409056749836,0.0,0.0,0.0,2.7106256580775345,0.0,0.0,0.0,0.0,0.0,0.0,0.0,0.0,0.0,0.0,0.0,0.0,0.0,0.0,
0.669,2.676528869574283,2.676528869574283,2.7794896189316187,0.0,0.0,0.0,2.7108491193600615,0.0,0.0,0.0,0.0,0.0,0.0,0.0,0.0,0.0,0.0,0.0,0.0,0.0,0.0,
0.6846,2.6767447584621786,2.6767447584621786,2.7797443079978557,0.0,0.0,0.0,2.711077941640738,0.0,0.0,0.0,0.0,0.0,0.0,0.0,0.0,0.0,0.0,0.0,0.0,0.0,0.0,
0.7001,2.6769642740868926,2.6769642740868926,2.780003290457773,0.0,0.0,0.0,2.711310612877186,0.0,0.0,0.0,0.0,0.0,0.0,0.0,0.0,0.0,0.0,0.0,0.0,0.0,0.0,
0.7157,2.677190254614604,2.677190254614604,2.780269915797759,0.0,0.0,0.0,2.7115501416756556,0.0,0.0,0.0,0.0,0.0,0.0,0.0,0.0,0.0,0.0,0.0,0.0,0.0,0.0,
0.7312,2.6774198086507894,2.6774198086507894,2.780540773639211,0.0,0.0,0.0,2.7117934636469303,0.0,0.0,0.0,0.0,0.0,0.0,0.0,0.0,0.0,0.0,0.0,0.0,0.0,0.0,
0.7468,2.677655904160175,2.677655904160175,2.780819367071527,0.0,0.0,0.0,2.7120437251306257,0.0,0.0,0.0,0.0,0.0,0.0,0.0,0.0,0.0,0.0,0.0,0.0,0.0,0.0,
0.7623,2.6778955203382644,2.6778955203382644,2.7811021326496865,0.0,0.0,0.0,2.7122977244420716,0.0,0.0,0.0,0.0,0.0,0.0,0.0,0.0,0.0,0.0,0.0,0.0,0.0,0.0,
0.7779,2.6781417552564744,2.6781417552564744,2.7813927274867183,0.0,0.0,0.0,2.712558745999889,0.0,0.0,0.0,0.0,0.0,0.0,0.0,0.0,0.0,0.0,0.0,0.0,0.0,0.0,
0.7935,2.678393085722896,2.678393085722896,2.7816893553393056,0.0,0.0,0.0,2.7128251755950323,0.0,0.0,0.0,0.0,0.0,0.0,0.0,0.0,0.0,0.0,0.0,0.0,0.0,0.0,
0.809,2.6786478582366056,2.6786478582366056,2.7819900657078933,0.0,0.0,0.0,2.713095260727035,0.0,0.0,0.0,0.0,0.0,0.0,0.0,0.0,0.0,0.0,0.0,0.0,0.0,0.0,
0.8246,2.6789093668478303,2.6789093668478303,2.7822987478210877,0.0,0.0,0.0,2.713372493838916,0.0,0.0,0.0,0.0,0.0,0.0,0.0,0.0,0.0,0.0,0.0,0.0,0.0,0.0,
0.8401,2.679174265625565,2.679174265625565,2.782611453422973,0.0,0.0,0.0,2.713653328224701,0.0,0.0,0.0,0.0,0.0,0.0,0.0,0.0,0.0,0.0,0.0,0.0,0.0,0.0,
0.8557,2.679445979559345,2.679445979559345,2.782932226903258,0.0,0.0,0.0,2.7139413953406493,0.0,0.0,0.0,0.0,0.0,0.0,0.0,0.0,0.0,0.0,0.0,0.0,0.0,0.0,
0.8713,2.6797228231467876,2.6797228231467876,2.78325907996466,0.0,0.0,0.0,2.714234908752745,0.0,0.0,0.0,0.0,0.0,0.0,0.0,0.0,0.0,0.0,0.0,0.0,0.0,0.0,
0.8868,2.680002979706186,2.680002979706186,2.78358986886598,0.0,0.0,0.0,2.7145319427594505,0.0,0.0,0.0,0.0,0.0,0.0,0.0,0.0,0.0,0.0,0.0,0.0,0.0,0.0,
0.9024,2.6802900715231956,2.6802900715231956,2.7839288719132522,0.0,0.0,0.0,2.714836338319881,0.0,0.0,0.0,0.0,0.0,0.0,0.0,0.0,0.0,0.0,0.0,0.0,0.0,0.0,
0.9179,2.6805804253733063,2.6805804253733063,2.784271753084324,0.0,0.0,0.0,2.715144201276979,0.0,0.0,0.0,0.0,0.0,0.0,0.0,0.0,0.0,0.0,0.0,0.0,0.0,0.0,
0.9335,2.6808777954038616,2.6808777954038616,2.7846229471078403,0.0,0.0,0.0,2.715459512638521,0.0,0.0,0.0,0.0,0.0,0.0,0.0,0.0,0.0,0.0,0.0,0.0,0.0,0.0,
0.949,2.6811783769009585,2.6811783769009585,2.784977962059128,0.0,0.0,0.0,2.7157782386203486,0.0,0.0,0.0,0.0,0.0,0.0,0.0,0.0,0.0,0.0,0.0,0.0,0.0,0.0,
0.9646,2.681486056267784,2.681486056267784,2.7853413896292287,0.0,0.0,0.0,2.716104500721599,0.0,0.0,0.0,0.0,0.0,0.0,0.0,0.0,0.0,0.0,0.0,0.0,0.0,0.0,
0.9802,2.681798918958773,2.681798918958773,2.785710970173816,0.0,0.0,0.0,2.7164362693637876,0.0,0.0,0.0,0.0,0.0,0.0,0.0,0.0,0.0,0.0,0.0,0.0,0.0,0.0,
0.9957,2.68211491787941,2.68211491787941,2.786084286732919,0.0,0.0,0.0,2.7167713741639132,0.0,0.0,0.0,0.0,0.0,0.0,0.0,0.0,0.0,0.0,0.0,0.0,0.0,0.0,
1.0113,2.6824381388022163,2.6824381388022163,2.786466167752294,0.0,0.0,0.0,2.7171141484522425,0.0,0.0,0.0,0.0,0.0,0.0,0.0,0.0,0.0,0.0,0.0,0.0,0.0,0.0,
1.0268,2.682764446309822,2.682764446309822,2.7868517288834065,0.0,0.0,0.0,2.7174602071676834,0.0,0.0,0.0,0.0,0.0,0.0,0.0,0.0,0.0,0.0,0.0,0.0,0.0,0.0,
1.0424,2.6830980594818143,2.6830980594818143,2.7872459569749366,0.0,0.0,0.0,2.717814025312855,0.0,0.0,0.0,0.0,0.0,0.0,0.0,0.0,0.0,0.0,0.0,0.0,0.0,0.0,
1.058,2.6834368986664785,2.6834368986664785,2.7876463965168785,0.0,0.0,0.0,2.718173397949945,0.0,0.0,0.0,0.0,0.0,0.0,0.0,0.0,0.0,0.0,0.0,0.0,0.0,0.0,
1.0735,2.6837787505739117,2.6837787505739117,2.7880504331923674,0.0,0.0,0.0,2.718535978113397,0.0,0.0,0.0,0.0,0.0,0.0,0.0,0.0,0.0,0.0,0.0,0.0,0.0,0.0,
1.0891,2.6841280353020824,2.6841280353020824,2.788463292866448,0.0,0.0,0.0,2.718906454490204,0.0,0.0,0.0,0.0,0.0,0.0,0.0,0.0,0.0,0.0,0.0,0.0,0.0,0.0,
1.1046,2.6844802840181208,2.6844802840181208,2.788879695056236,0.0,0.0,0.0,2.7192800876974927,0.0,0.0,0.0,0.0,0.0,0.0,0.0,0.0,0.0,0.0,0.0,0.0,0.0,0.0,
1.1202,2.68484005127286,2.68484005127286,2.789305025602386,0.0,0.0,0.0,2.7196617093827022,0.0,0.0,0.0,0.0,0.0,0.0,0.0,0.0,0.0,0.0,0.0,0.0,0.0,0.0,
1.1357,2.685202734141537,2.685202734141537,2.7897338445585853,0.0,0.0,0.0,2.7200464376138864,0.0,0.0,0.0,0.0,0.0,0.0,0.0,0.0,0.0,0.0,0.0,0.0,0.0,0.0,
1.1513,2.6855730221128598,2.6855730221128598,2.7901716984076295,0.0,0.0,0.0,2.7204392475444497,0.0,0.0,0.0,0.0,0.0,0.0,0.0,0.0,0.0,0.0,0.0,0.0,0.0,0.0,
1.1669,2.6859486021220897,2.6859486021220897,2.7906158543247495,0.0,0.0,0.0,2.7208376861896433,0.0,0.0,0.0,0.0,0.0,0.0,0.0,0.0,0.0,0.0,0.0,0.0,0.0,0.0,
1.1824,2.6863270257815595,2.6863270257815595,2.7910634183675307,0.0,0.0,0.0,2.72123915664355,0.0,0.0,0.0,0.0,0.0,0.0,0.0,0.0,0.0,0.0,0.0,0.0,0.0,0.0,
1.198,2.68671318614917,2.68671318614917,2.791520179540389,0.0,0.0,0.0,2.7216488506129095,0.0,0.0,0.0,0.0,0.0,0.0,0.0,0.0,0.0,0.0,0.0,0.0,0.0,0.0,
1.2135,2.6871021426903887,2.6871021426903887,2.7919802960131612,0.0,0.0,0.0,2.722061527131313,0.0,0.0,0.0,0.0,0.0,0.0,0.0,0.0,0.0,0.0,0.0,0.0,0.0,0.0,
1.2291,2.6874989246833616,2.6874989246833616,2.792449719196694,0.0,0.0,0.0,2.7224825228544725,0.0,0.0,0.0,0.0,0.0,0.0,0.0,0.0,0.0,0.0,0.0,0.0,0.0,0.0,
1.2447,2.6879010505004466,2.6879010505004466,2.7929255156713535,0.0,0.0,0.0,2.7229092055574156,0.0,0.0,0.0,0.0,0.0,0.0,0.0,0.0,0.0,0.0,0.0,0.0,0.0,0.0,
1.2602,2.688305901869737,2.688305901869737,2.793404589083677,0.0,0.0,0.0,2.723338797607717,0.0,0.0,0.0,0.0,0.0,0.0,0.0,0.0,0.0,0.0,0.0,0.0,0.0,0.0,
1.2758,2.6887187136394406,2.6887187136394406,2.79389313612153,0.0,0.0,0.0,2.7237768544668035,0.0,0.0,0.0,0.0,0.0,0.0,0.0,0.0,0.0,0.0,0.0,0.0,0.0,0.0,
1.2913,2.6891342043757547,2.6891342043757547,2.794384908552499,0.0,0.0,0.0,2.724217772434669,0.0,0.0,0.0,0.0,0.0,0.0,0.0,0.0,0.0,0.0,0.0,0.0,0.0,0.0,
1.3069,2.689557746530401,2.689557746530401,2.7948862673775183,0.0,0.0,0.0,2.72466725347944,0.0,0.0,0.0,0.0,0.0,0.0,0.0,0.0,0.0,0.0,0.0,0.0,0.0,0.0,
1.3224,2.6899839214211205,2.6899839214211205,2.79539080056459,0.0,0.0,0.0,2.725119547802277,0.0,0.0,0.0,0.0,0.0,0.0,0.0,0.0,0.0,0.0,0.0,0.0,0.0,0.0,
1.338,2.6904182396849223,2.6904182396849223,2.7959050342307874,0.0,0.0,0.0,2.725580504533544,0.0,0.0,0.0,0.0,0.0,0.0,0.0,0.0,0.0,0.0,0.0,0.0,0.0,0.0,
1.3536,2.6908579809584037,2.6908579809584037,2.796425750345255,0.0,0.0,0.0,2.7260472374206874,0.0,0.0,0.0,0.0,0.0,0.0,0.0,0.0,0.0,0.0,0.0,0.0,0.0,0.0,
1.3691,2.691300286213592,2.691300286213592,2.7969495651601988,0.0,0.0,0.0,2.7265167125291274,0.0,0.0,0.0,0.0,0.0,0.0,0.0,0.0,0.0,0.0,0.0,0.0,0.0,0.0,
1.3847,2.6917508747173327,2.6917508747173327,2.7974832542930876,0.0,0.0,0.0,2.726995001242584,0.0,0.0,0.0,0.0,0.0,0.0,0.0,0.0,0.0,0.0,0.0,0.0,0.0,0.0,
1.4002,2.692203981858685,2.692203981858685,2.7980199923857114,0.0,0.0,0.0,2.7274759853676938,0.0,0.0,0.0,0.0,0.0,0.0,0.0,0.0,0.0,0.0,0.0,0.0,0.0,0.0,
1.4158,2.6926654666193235,2.6926654666193235,2.798566722285875,0.0,0.0,0.0,2.7279658851748407,0.0,0.0,0.0,0.0,0.0,0.0,0.0,0.0,0.0,0.0,0.0,0.0,0.0,0.0,
1.4313,2.69312942502766,2.69312942502766,2.799116451923897,0.0,0.0,0.0,2.7284584339930724,0.0,0.0,0.0,0.0,0.0,0.0,0.0,0.0,0.0,0.0,0.0,0.0,0.0,0.0,
1.4469,2.6936018564217417,2.6936018564217417,2.799676292266116,0.0,0.0,0.0,2.7289600017032,0.0,0.0,0.0,0.0,0.0,0.0,0.0,0.0,0.0,0.0,0.0,0.0,0.0,0.0,
1.4625,2.6940797981327123,2.6940797981327123,2.800242735760328,0.0,0.0,0.0,2.729467444008584,0.0,0.0,0.0,0.0,0.0,0.0,0.0,0.0,0.0,0.0,0.0,0.0,0.0,0.0,
1.478,2.6945601465997076,2.6945601465997076,2.800812106060069,0.0,0.0,0.0,2.7299774664198275,0.0,0.0,0.0,0.0,0.0,0.0,0.0,0.0,0.0,0.0,0.0,0.0,0.0,0.0,
1.4936,2.695049113164589,2.695049113164589,2.801391768303012,0.0,0.0,0.0,2.7304966648773963,0.0,0.0,0.0,0.0,0.0,0.0,0.0,0.0,0.0,0.0,0.0,0.0,0.0,0.0,
1.5091,2.6955404423825673,2.6955404423825673,2.8019743094381626,0.0,0.0,0.0,2.7310183980677656,0.0,0.0,0.0,0.0,0.0,0.0,0.0,0.0,0.0,0.0,0.0,0.0,0.0,0.0,
1.5247,2.696040487634238,2.696040487634238,2.802567265054463,0.0,0.0,0.0,2.73154941344098,0.0,0.0,0.0,0.0,0.0,0.0,0.0,0.0,0.0,0.0,0.0,0.0,0.0,0.0,
1.5403,2.6965461107582405,2.6965461107582405,2.8031669174712137,0.0,0.0,0.0,2.732086379662565,0.0,0.0,0.0,0.0,0.0,0.0,0.0,0.0,0.0,0.0,0.0,0.0,0.0,0.0,
1.5558,2.697054030977789,2.697054030977789,2.8037693778260593,0.0,0.0,0.0,2.7326258132605457,0.0,0.0,0.0,0.0,0.0,0.0,0.0,0.0,0.0,0.0,0.0,0.0,0.0,0.0,
1.5714,2.6975708162882936,2.6975708162882936,2.8043824395039194,0.0,0.0,0.0,2.7331746906935024,0.0,0.0,0.0,0.0,0.0,0.0,0.0,0.0,0.0,0.0,0.0,0.0,0.0,0.0,
1.5869,2.698089855481988,2.698089855481988,2.804998262534096,0.0,0.0,0.0,2.733725991166024,0.0,0.0,0.0,0.0,0.0,0.0,0.0,0.0,0.0,0.0,0.0,0.0,0.0,0.0,
1.6025,2.6986178603892004,2.6986178603892004,2.8056248132491217,0.0,0.0,0.0,2.734286844675841,0.0,0.0,0.0,0.0,0.0,0.0,0.0,0.0,0.0,0.0,0.0,0.0,0.0,0.0,
1.618,2.6991480763249345,2.6991480763249345,2.8062540792678217,0.0,0.0,0.0,2.7348500773058966,0.0,0.0,0.0,0.0,0.0,0.0,0.0,0.0,0.0,0.0,0.0,0.0,0.0,0.0,
1.6336,2.699687359705148,2.699687359705148,2.8068942009156164,0.0,0.0,0.0,2.7354229734419704,0.0,0.0,0.0,0.0,0.0,0.0,0.0,0.0,0.0,0.0,0.0,0.0,0.0,0.0,
1.6492,2.7002323230940846,2.7002323230940846,2.8075411613661756,0.0,0.0,0.0,2.7360019358514482,0.0,0.0,0.0,0.0,0.0,0.0,0.0,0.0,0.0,0.0,0.0,0.0,0.0,0.0,
1.6647,2.700779433835241,2.700779433835241,2.8081907689918015,0.0,0.0,0.0,2.7365832122207614,0.0,0.0,0.0,0.0,0.0,0.0,0.0,0.0,0.0,0.0,0.0,0.0,0.0,0.0,
1.6803,2.7013357669073153,2.7013357669073153,2.8088514274108896,0.0,0.0,0.0,2.7371743204085064,0.0,0.0,0.0,0.0,0.0,0.0,0.0,0.0,0.0,0.0,0.0,0.0,0.0,0.0,
1.6958,2.701894205377556,2.701894205377556,2.80951468831964,0.0,0.0,0.0,2.737767699691584,0.0,0.0,0.0,0.0,0.0,0.0,0.0,0.0,0.0,0.0,0.0,0.0,0.0,0.0,
1.7114,2.7024619707725543,2.7024619707725543,2.8101891320664056,0.0,0.0,0.0,2.7383710245371713,0.0,0.0,0.0,0.0,0.0,0.0,0.0,0.0,0.0,0.0,0.0,0.0,0.0,0.0,
1.727,2.7030354947838076,2.7030354947838076,2.8108705242457526,0.0,0.0,0.0,2.7389805046044557,0.0,0.0,0.0,0.0,0.0,0.0,0.0,0.0,0.0,0.0,0.0,0.0,0.0,0.0,
1.7425,2.7036110618769116,2.7036110618769116,2.811554452856523,0.0,0.0,0.0,2.7395921922034483,0.0,0.0,0.0,0.0,0.0,0.0,0.0,0.0,0.0,0.0,0.0,0.0,0.0,0.0,
1.7581,2.7041961151801326,2.7041961151801326,2.8122497657847445,0.0,0.0,0.0,2.740213998715003,0.0,0.0,0.0,0.0,0.0,0.0,0.0,0.0,0.0,0.0,0.0,0.0,0.0,0.0,
1.7736,2.704783170522697,2.704783170522697,2.812947571854769,0.0,0.0,0.0,2.7408379709667208,0.0,0.0,0.0,0.0,0.0,0.0,0.0,0.0,0.0,0.0,0.0,0.0,0.0,0.0,
1.7892,2.7053798196671632,2.7053798196671632,2.8136568986007986,0.0,0.0,0.0,2.7414721793117085,0.0,0.0,0.0,0.0,0.0,0.0,0.0,0.0,0.0,0.0,0.0,0.0,0.0,0.0,
1.8047,2.705978430176585,2.705978430176585,2.8143686757674553,0.0,0.0,0.0,2.742108512040209,0.0,0.0,0.0,0.0,0.0,0.0,0.0,0.0,0.0,0.0,0.0,0.0,0.0,0.0,
1.8203,2.7065867433176636,2.7065867433176636,2.8150921117562797,0.0,0.0,0.0,2.742755199463869,0.0,0.0,0.0,0.0,0.0,0.0,0.0,0.0,0.0,0.0,0.0,0.0,0.0,0.0,
1.8359,2.707200933388938,2.707200933388938,2.8158226617400075,0.0,0.0,0.0,2.7434081761726277,0.0,0.0,0.0,0.0,0.0,0.0,0.0,0.0,0.0,0.0,0.0,0.0,0.0,0.0,
1.8514,2.707817024445296,2.707817024445296,2.8165555990762705,0.0,0.0,0.0,2.744063215988954,0.0,0.0,0.0,0.0,0.0,0.0,0.0,0.0,0.0,0.0,0.0,0.0,0.0,0.0,
1.867,2.708442983929756,2.708442983929756,2.8173004061158533,0.0,0.0,0.0,2.7447287913251217,0.0,0.0,0.0,0.0,0.0,0.0,0.0,0.0,0.0,0.0,0.0,0.0,0.0,0.0,
1.8825,2.7090708046574115,2.7090708046574115,2.8180475592388814,0.0,0.0,0.0,2.7453963895179014,0.0,0.0,0.0,0.0,0.0,0.0,0.0,0.0,0.0,0.0,0.0,0.0,0.0,0.0,
1.8981,2.709708605843924,2.709708605843924,2.8188067248495567,0.0,0.0,0.0,2.7460746455124685,0.0,0.0,0.0,0.0,0.0,0.0,0.0,0.0,0.0,0.0,0.0,0.0,0.0,0.0,
1.9136,2.710348228909673,2.710348228909673,2.8195681958683245,0.0,0.0,0.0,2.746754884562557,0.0,0.0,0.0,0.0,0.0,0.0,0.0,0.0,0.0,0.0,0.0,0.0,0.0,0.0,
1.9292,2.710997945787749,2.710997945787749,2.8203418240824547,0.0,0.0,0.0,2.7474459052193176,0.0,0.0,0.0,0.0,0.0,0.0,0.0,0.0,0.0,0.0,0.0,0.0,0.0,0.0,
1.9448,2.71165366807574,2.71165366807574,2.8211227468336495,0.0,0.0,0.0,2.748143360995043,0.0,0.0,0.0,0.0,0.0,0.0,0.0,0.0,0.0,0.0,0.0,0.0,0.0,0.0,
1.9603,2.7123111538509295,2.7123111538509295,2.8219059150477928,0.0,0.0,0.0,2.7488427409165506,0.0,0.0,0.0,0.0,0.0,0.0,0.0,0.0,0.0,0.0,0.0,0.0,0.0,0.0,
1.9759,2.712978906191295,2.712978906191295,2.8227014614548604,0.0,0.0,0.0,2.74955309127915,0.0,0.0,0.0,0.0,0.0,0.0,0.0,0.0,0.0,0.0,0.0,0.0,0.0,0.0,
1.9914,2.713648383615488,2.713648383615488,2.823499214171908,0.0,0.0,0.0,2.750265327134295,0.0,0.0,0.0,0.0,0.0,0.0,0.0,0.0,0.0,0.0,0.0,0.0,0.0,0.0,
2.007,2.7143282443803747,2.7143282443803747,2.8243094947844476,0.0,0.0,0.0,2.7509886611817325,0.0,0.0,0.0,0.0,0.0,0.0,0.0,0.0,0.0,0.0,0.0,0.0,0.0,0.0,
2.0226,2.7150142089059015,2.7150142089059015,2.825127208667209,0.0,0.0,0.0,2.751718542159671,0.0,0.0,0.0,0.0,0.0,0.0,0.0,0.0,0.0,0.0,0.0,0.0,0.0,0.0,
