energies(eV),real_xx,real_yy,real_zz,real_xy,real_yz,real_xz,real_ave,imag_xx,imag_yy,imag_zz,imag_xy,imag_yz,imag_xz,imag_ave,absorption_xx,absorption_yy,absorption_zz,absorption_xy,absorption_yz,absorption_xz,absorption_ave,band_gap
0.0,3.8081023882683414,3.8483571737641284,3.6979634880163132,0.0,0.0,-0.0669500675991209,3.7848076833495945,0.0,0.0,0.0,0.0,0.0,0.0,0.0,0.0,0.0,0.0,0.0,0.0,0.0,0.0,5.2457
0.0224,3.8081200867788296,3.8483745764121244,3.6979798478052754,0.0,0.0,-0.06695120050514035,3.784824836998743,0.0,0.0,0.0,0.0,0.0,0.0,0.0,0.0,0.0,0.0,0.0,0.0,587.4497564682512,0.0,
0.0448,3.808173184302816,3.8484267862286874,3.6980289289790242,0.0,0.0,-0.06695459939746891,3.7848762998368426,0.0,0.0,0.0,0.0,0.0,0.0,0.0,0.0,0.0,0.0,0.0,0.0,1174.9293354507372,0.0,
0.0672,3.8082616868185717,3.848513808832204,3.6981107369590087,0.0,0.0,-0.06696026479897729,3.7849620775365946,0.0,0.0,0.0,0.0,0.0,0.0,0.0,0.0,0.0,0.0,0.0,0.0,1762.468564584345,0.0,
0.0897,3.8083862369186656,3.8486362756317125,3.698225865554165,0.0,0.0,-0.06696823808093275,3.7850827927015147,0.0,0.0,0.0,0.0,0.0,0.0,0.0,0.0,0.0,0.0,0.0,0.0,2352.7208695978193,0.0,
0.1121,3.8085457415089756,3.84879311120713,3.6983733041113354,0.0,0.0,-0.06697844959576976,3.785237385609147,0.0,0.0,0.0,0.0,0.0,0.0,0.0,0.0,0.0,0.0,0.0,0.0,2940.4695277976607,0.0,
0.1345,3.8087406930557486,3.8489847990067645,3.698553507530473,0.0,0.0,-0.06699093129016687,3.785426333197662,0.0,0.0,0.0,0.0,0.0,0.0,0.0,0.0,0.0,0.0,0.0,0.0,3528.3675344787,0.0,
0.1569,3.8089711135310678,3.8492113596785256,3.6987664957368973,0.0,0.0,-0.06700568508592515,3.785649656315497,0.0,0.0,0.0,0.0,0.0,0.0,0.0,0.0,0.0,0.0,0.0,0.0,4116.444789184725,0.0,
0.1793,3.8092370289159376,3.8494728176367987,3.699012292291305,0.0,0.0,-0.06702271325552653,3.7859073796146805,0.0,0.0,0.0,0.0,0.0,0.0,0.0,0.0,0.0,0.0,0.0,0.0,4704.731222282179,0.0,
0.2017,3.8095384692088454,3.849769201070278,3.6992909243975447,0.0,0.0,-0.06704201842290435,3.786199531558889,0.0,0.0,0.0,0.0,0.0,0.0,0.0,0.0,0.0,0.0,0.0,0.0,5293.256800121014,0.0,
0.2241,3.8098754684357563,3.8501005419507583,3.699602422911676,0.0,0.0,-0.06706360356434418,3.7865261444327305,0.0,0.0,0.0,0.0,0.0,0.0,0.0,0.0,0.0,0.0,0.0,0.0,5882.05153020868,0.0,
0.2465,3.8102480646615158,3.8504668760433542,3.69994682235205,0.0,0.0,-0.06708747200948964,3.786887254352307,0.0,0.0,0.0,0.0,0.0,0.0,0.0,0.0,0.0,0.0,0.0,0.0,6471.1454663981995,0.0,
0.269,3.810658202455896,3.850870113344984,3.7003259193723954,0.0,0.0,-0.06711374934140263,3.7872847450577587,0.0,0.0,0.0,0.0,0.0,0.0,0.0,0.0,0.0,0.0,0.0,0.0,7063.2008513923765,0.0,
0.2914,3.8111022825124494,3.8513067130811676,3.7007363862642735,0.0,0.0,-0.06714220603954049,3.7877151272859635,0.0,0.0,0.0,0.0,0.0,0.0,0.0,0.0,0.0,0.0,0.0,0.0,7652.985245281561,0.0,
0.3138,3.81158209836201,3.8517784364232637,3.7011798799439877,0.0,0.0,-0.0671729581828929,3.7881801382430873,0.0,0.0,0.0,0.0,0.0,0.0,0.0,0.0,0.0,0.0,0.0,0.0,8243.159472124966,0.0,
0.3362,3.812097704383165,3.8522853344522834,3.7016564497226363,0.0,0.0,-0.06720601052873758,3.7886798295193618,0.0,0.0,0.0,0.0,0.0,0.0,0.0,0.0,0.0,0.0,0.0,0.0,8833.753823712423,0.0,
0.3586,3.8126491590705034,3.8528274621115286,3.7021661486433013,0.0,0.0,-0.06724136819462748,3.7892142566084446,0.0,0.0,0.0,0.0,0.0,0.0,0.0,0.0,0.0,0.0,0.0,0.0,9424.798664429907,0.0,
0.381,3.813236525054154,3.8534048782240693,3.7027090334987625,0.0,0.0,-0.06727903666014223,3.789783478925662,0.0,0.0,0.0,0.0,0.0,0.0,0.0,0.0,0.0,0.0,0.0,0.0,10016.324436575016,0.0,
0.4034,3.8138598691208028,3.8540176455116697,3.703285164850405,0.0,0.0,-0.06731902176877003,3.7903875598276255,0.0,0.0,0.0,0.0,0.0,0.0,0.0,0.0,0.0,0.0,0.0,0.0,10608.36166570057,0.0,
0.4259,3.8145222868922932,3.8546688038130146,3.7038974025598197,0.0,0.0,-0.06736152382254126,3.7910294977550425,0.0,0.0,0.0,0.0,0.0,0.0,0.0,0.0,0.0,0.0,0.0,0.0,11203.587670641526,0.0,
0.4483,3.815217965668661,3.8553526359064447,3.7045403729372066,0.0,0.0,-0.06740617162819487,3.791703658170771,0.0,0.0,0.0,0.0,0.0,0.0,0.0,0.0,0.0,0.0,0.0,0.0,11796.742376353906,0.0,
0.4707,3.8159498484232253,3.8560720312806183,3.705216794646041,0.0,0.0,-0.0674531558434345,3.7924128914499615,0.0,0.0,0.0,0.0,0.0,0.0,0.0,0.0,0.0,0.0,0.0,0.0,12390.500806894806,0.0,
0.4931,3.816718018827077,3.856827068483234,3.705926743555355,0.0,0.0,-0.06750248379040855,3.7931572769552218,0.0,0.0,0.0,0.0,0.0,0.0,0.0,0.0,0.0,0.0,0.0,0.0,12984.893875378359,0.0,
0.5155,3.817522564834989,3.857617830074172,3.7066702994175165,0.0,0.0,-0.06755416316651686,3.7939368981088926,0.0,0.0,0.0,0.0,0.0,0.0,0.0,0.0,0.0,0.0,0.0,0.0,13579.952605402123,0.0,
0.5379,3.818363578715253,3.858444402652138,3.7074475458951475,0.0,0.0,-0.06760820204707275,3.794751842420846,0.0,0.0,0.0,0.0,0.0,0.0,0.0,0.0,0.0,0.0,0.0,0.0,14175.708136599078,0.0,
0.5603,3.819241157081058,3.8593068768827403,3.708258570589577,0.0,0.0,-0.06766460888810154,3.7956022015177915,0.0,0.0,0.0,0.0,0.0,0.0,0.0,0.0,0.0,0.0,0.0,0.0,14772.191730231541,0.0,
0.5828,3.8201595647335207,3.8602094394120217,3.7091073130022583,0.0,0.0,-0.06772366029896527,3.796492105715933,0.0,0.0,0.0,0.0,0.0,0.0,0.0,0.0,0.0,0.0,0.0,0.0,15372.102788362634,0.0,
0.6052,3.821110743855221,3.8611441667286357,3.709986324690472,0.0,0.0,-0.06778484063985522,3.797413745091443,0.0,0.0,0.0,0.0,0.0,0.0,0.0,0.0,0.0,0.0,0.0,0.0,15970.1404074129,0.0,
0.6276,3.822098804210333,3.8621150928671115,3.7108994017900576,0.0,0.0,-0.06784841666742612,3.7983710996225013,0.0,0.0,0.0,0.0,0.0,0.0,0.0,0.0,0.0,0.0,0.0,0.0,16569.00080073175,0.0,
0.65,3.8231238601579935,3.8631223250881304,3.7118466479874628,0.0,0.0,-0.06791439839306453,3.799364277744529,0.0,0.0,0.0,0.0,0.0,0.0,0.0,0.0,0.0,0.0,0.0,0.0,17168.715773605574,0.0,
0.6724,3.824186030583684,3.864165974881052,3.7128281710713997,0.0,0.0,-0.06798279622496561,3.8003933921787123,0.0,0.0,0.0,0.0,0.0,0.0,0.0,0.0,0.0,0.0,0.0,0.0,17769.31728164656,0.0,
0.6948,3.825285438940318,3.865246158000562,3.713844082970042,0.0,0.0,-0.06805362097178419,3.8014585599703072,0.0,0.0,0.0,0.0,0.0,0.0,0.0,0.0,0.0,0.0,0.0,0.0,18370.837436682526,0.0,
0.7172,3.826422213291238,3.8663629945049287,3.7148944997898266,0.0,0.0,-0.06812688384642729,3.8025599025286643,0.0,0.0,0.0,0.0,0.0,0.0,0.0,0.0,0.0,0.0,0.0,0.0,18973.30851270292,0.0,
0.7396,3.8275964863548886,3.8675166087958446,3.7159795418557002,0.0,0.0,-0.06820259647000625,3.803697545668811,0.0,0.0,0.0,0.0,0.0,0.0,0.0,0.0,0.0,0.0,0.0,0.0,19576.762951865065,0.0,
0.7621,3.828813890455649,3.868712527431436,3.7171044109284597,0.0,0.0,-0.06828112540689242,3.804876942938515,0.0,0.0,0.0,0.0,0.0,0.0,0.0,0.0,0.0,0.0,0.0,0.0,20183.934226214602,0.0,
0.7845,3.830063746933659,3.8699402537440037,3.7182592375510186,0.0,0.0,-0.06836178511936074,3.806087746076227,0.0,0.0,0.0,0.0,0.0,0.0,0.0,0.0,0.0,0.0,0.0,0.0,20789.458177049408,0.0,
0.8069,3.831351529351065,3.8712051581550275,3.7194490767381496,0.0,0.0,-0.06844493199349982,3.8073352547480805,0.0,0.0,0.0,0.0,0.0,0.0,0.0,0.0,0.0,0.0,0.0,0.0,21396.064035170133,0.0,
0.8293,3.8326773895515336,3.8725073828898835,3.7206740661447064,0.0,0.0,-0.0685305793277101,3.808619612862041,0.0,0.0,0.0,0.0,0.0,0.0,0.0,0.0,0.0,0.0,0.0,0.0,22003.7849776008,0.0,
0.8517,3.8340414842849677,3.8738470747408034,3.7219343478707527,0.0,0.0,-0.06861874085069701,3.809940968965508,0.0,0.0,0.0,0.0,0.0,0.0,0.0,0.0,0.0,0.0,0.0,0.0,22612.654380559066,0.0,
0.8741,3.8354439752635168,3.875224385116604,3.72323006851208,0.0,0.0,-0.06870943072637802,3.8112994762974,0.0,0.0,0.0,0.0,0.0,0.0,0.0,0.0,0.0,0.0,0.0,0.0,23222.70582586733,0.0,
0.8965,3.8368850292194328,3.8766394700940134,3.724561379212485,0.0,0.0,-0.06880266355895392,3.8126952928419775,0.0,0.0,0.0,0.0,0.0,0.0,0.0,0.0,0.0,0.0,0.0,0.0,23833.973107439015,0.0,
0.919,3.838371511275627,3.87809906247069,3.7259346190332505,0.0,0.0,-0.0688988877942107,3.814135064259856,0.0,0.0,0.0,0.0,0.0,0.0,0.0,0.0,0.0,0.0,0.0,0.0,24449.227542820605,0.0,
0.9414,3.839890385883559,3.8795903542939696,3.7273377424102065,0.0,0.0,-0.06899726366503277,3.8156061608625786,0.0,0.0,0.0,0.0,0.0,0.0,0.0,0.0,0.0,0.0,0.0,0.0,25063.034569573025,0.0,
0.9638,3.8414483552222185,3.881119918270907,3.7287769378645916,0.0,0.0,-0.06909822907267059,3.8171150704525725,0.0,0.0,0.0,0.0,0.0,0.0,0.0,0.0,0.0,0.0,0.0,0.0,25678.160307353635,0.0,
0.9862,3.8430456067495657,3.8826879297236716,3.7302523753145134,0.0,0.0,-0.0692018004387695,3.818661970595917,0.0,0.0,0.0,0.0,0.0,0.0,0.0,0.0,0.0,0.0,0.0,0.0,26294.639466002314,0.0,
1.0086,3.844682333265536,3.884294568927889,3.731764229516492,0.0,0.0,-0.06930799465329845,3.8202470439033056,0.0,0.0,0.0,0.0,0.0,0.0,0.0,0.0,0.0,0.0,0.0,0.0,26912.507001146758,0.0,
1.031,3.846358732983052,3.8859400211755686,3.7333126801296426,0.0,0.0,-0.06941682908071185,3.8218704780960877,0.0,0.0,0.0,0.0,0.0,0.0,0.0,0.0,0.0,0.0,0.0,0.0,27531.798121202464,0.0,
1.0534,3.8480750096014185,3.8876244768400547,3.7348979117818413,0.0,0.0,-0.06952832156629422,3.8235324660744383,0.0,0.0,0.0,0.0,0.0,0.0,0.0,0.0,0.0,0.0,0.0,0.0,28152.548294465923,0.0,
1.0759,3.849839303484707,3.8893559145166745,3.736527439295169,0.0,0.0,-0.06964300615396443,3.825240885765517,0.0,0.0,0.0,0.0,0.0,0.0,0.0,0.0,0.0,0.0,0.0,0.0,28777.574540918722,0.0,
1.0983,3.8516361477353946,3.8911191451468645,3.7381869734902042,0.0,0.0,-0.06975988232317071,3.826980755457488,0.0,0.0,0.0,0.0,0.0,0.0,0.0,0.0,0.0,0.0,0.0,0.0,29401.357216149514,0.0,
1.1207,3.853473514671147,3.892921982414873,3.739883874020099,0.0,0.0,-0.06987947312526495,3.828759790368706,0.0,0.0,0.0,0.0,0.0,0.0,0.0,0.0,0.0,0.0,0.0,0.0,30026.707143848053,0.0,
1.1431,3.8553516307456195,3.8947646377357032,3.74161834611795,0.0,0.0,-0.07000179839862046,3.8305782048664248,0.0,0.0,0.0,0.0,0.0,0.0,0.0,0.0,0.0,0.0,0.0,0.0,30653.660906085253,0.0,
1.1655,3.8572707283034813,3.8966473279632843,3.7433906003508177,0.0,0.0,-0.07012687849724526,3.832436218872528,0.0,0.0,0.0,0.0,0.0,0.0,0.0,0.0,0.0,0.0,0.0,0.0,31282.255381844432,0.0,
1.1879,3.859231045669075,3.8985702754688454,3.7452008526997838,0.0,0.0,-0.07025473429837621,3.834334057945901,0.0,0.0,0.0,0.0,0.0,0.0,0.0,0.0,0.0,0.0,0.0,0.0,31912.52775474899,0.0,
1.2103,3.861232827238174,3.9005337082216953,3.747049324642678,0.0,0.0,-0.07038538721028949,3.836271953367516,0.0,0.0,0.0,0.0,0.0,0.0,0.0,0.0,0.0,0.0,0.0,0.0,32544.515520905283,0.0,
1.2327,3.8632763235722942,3.9025378598724165,3.7489362432393385,0.0,0.0,-0.07051885918033922,3.8382501422280164,0.0,0.0,0.0,0.0,0.0,0.0,0.0,0.0,0.0,0.0,0.0,0.0,33178.2564968653,0.0,
1.2552,3.8653711961175827,3.9045921919921747,3.7508705247175063,0.0,0.0,-0.07065578765113399,3.8402779709424215,0.0,0.0,0.0,0.0,0.0,0.0,0.0,0.0,0.0,0.0,0.0,0.0,33816.63009955066,0.0,
1.2776,3.867499087967625,3.906678690050832,3.7528352148554505,0.0,0.0,-0.0707949786183658,3.842337664291302,0.0,0.0,0.0,0.0,0.0,0.0,0.0,0.0,0.0,0.0,0.0,0.0,34454.00052282286,0.0,
1.3,3.8696694854701383,3.908806644053392,3.7548390683156847,0.0,0.0,-0.07093705791088227,3.8444383992797384,0.0,0.0,0.0,0.0,0.0,0.0,0.0,0.0,0.0,0.0,0.0,0.0,35093.23978384659,0.0,
1.3224,3.8718826648845144,3.91097631128763,3.7568823354198533,0.0,0.0,-0.07108204972004824,3.8465804371973324,0.0,0.0,0.0,0.0,0.0,0.0,0.0,0.0,0.0,0.0,0.0,0.0,35734.38706469673,0.0,
1.3448,3.8741389091547913,3.9131879551790196,3.758965272539892,0.0,0.0,-0.07122997882012709,3.8487640456245678,0.0,0.0,0.0,0.0,0.0,0.0,0.0,0.0,0.0,0.0,0.0,0.0,36377.48190966123,0.0,
1.3672,3.8764385080232002,3.915441845390456,3.761088142200408,0.0,0.0,-0.07138087057779652,3.8509894985380213,0.0,0.0,0.0,0.0,0.0,0.0,0.0,0.0,0.0,0.0,0.0,0.0,37022.56423399623,0.0,
1.3896,3.878781758147074,3.917738257924862,3.7632512131843425,0.0,0.0,-0.07153475096192252,3.853257076418759,0.0,0.0,0.0,0.0,0.0,0.0,0.0,0.0,0.0,0.0,0.0,0.0,37669.67433282413,0.0,
1.4121,3.8811797193997326,3.9200880145687496,3.7654646890792445,0.0,0.0,-0.07169235378129393,3.8555774743492424,0.0,0.0,0.0,0.0,0.0,0.0,0.0,0.0,0.0,0.0,0.0,0.0,38321.755707840646,0.0,
1.4345,3.8836113885968557,3.9224705186907123,3.767709177236612,0.0,0.0,-0.07185230542832771,3.8579303615080605,0.0,0.0,0.0,0.0,0.0,0.0,0.0,0.0,0.0,0.0,0.0,0.0,38973.053316182966,0.0,
1.4569,3.8860876431737252,3.924896413592944,3.7699947130228493,0.0,0.0,-0.0720153274491156,3.860326256596506,0.0,0.0,0.0,0.0,0.0,0.0,0.0,0.0,0.0,0.0,0.0,0.0,39626.50214096585,0.0,
1.4793,3.888608808725069,3.9273660017584473,3.772321591406572,0.0,0.0,-0.07218144832745015,3.8627654672966965,0.0,0.0,0.0,0.0,0.0,0.0,0.0,0.0,0.0,0.0,0.0,0.0,40282.14409067032,0.0,
1.5017,3.8911752184025548,3.9298795925719734,3.7746901141938487,0.0,0.0,-0.07235069720243471,3.865248308389459,0.0,0.0,0.0,0.0,0.0,0.0,0.0,0.0,0.0,0.0,0.0,0.0,40940.02150048377,0.0,
1.5241,3.89378721305483,3.9324375024426024,3.777100590154805,0.0,0.0,-0.07252310387997844,3.8677751018840794,0.0,0.0,0.0,0.0,0.0,0.0,0.0,0.0,0.0,0.0,0.0,0.0,41600.177142147586,0.0,
1.5465,3.896445141372135,3.9350400549298317,3.7795533351539707,0.0,0.0,-0.07269869884461207,3.8703461771519794,0.0,0.0,0.0,0.0,0.0,0.0,0.0,0.0,0.0,0.0,0.0,0.0,42262.65423398033,0.0,
1.5689,3.8991493600352984,3.937687580873518,3.7820486722848505,0.0,0.0,-0.07287751327161184,3.8729618710645557,0.0,0.0,0.0,0.0,0.0,0.0,0.0,0.0,0.0,0.0,0.0,0.0,42927.49645107498,0.0,
1.5914,3.9019126197177605,3.940392542233287,3.78459836026559,0.0,0.0,-0.07306039917148038,3.8756345074055463,0.0,0.0,0.0,0.0,0.0,0.0,0.0,0.0,0.0,0.0,0.0,0.0,43597.732205452005,0.0,
1.6138,3.904710732646676,3.9431312420188225,3.7871800744498243,0.0,0.0,-0.0732457636092357,3.878340683038441,0.0,0.0,0.0,0.0,0.0,0.0,0.0,0.0,0.0,0.0,0.0,0.0,44267.44863316353,0.0,
1.6362,3.9075562571891003,3.945915954416146,3.7898053963871816,0.0,0.0,-0.07343444545631587,3.881092535997476,0.0,0.0,0.0,0.0,0.0,0.0,0.0,0.0,0.0,0.0,0.0,0.0,44939.66425929206,0.0,
1.6586,3.9104495836101965,3.9487470408002525,3.79247467955097,0.0,0.0,-0.07362647878225452,3.883890434653807,0.0,0.0,0.0,0.0,0.0,0.0,0.0,0.0,0.0,0.0,0.0,0.0,45614.42469396991,0.0,
1.681,3.9133911109827855,3.951624870537415,3.795188285380852,0.0,0.0,-0.0738218984130834,3.8867347556336838,0.0,0.0,0.0,0.0,0.0,0.0,0.0,0.0,0.0,0.0,0.0,0.0,46291.77605796111,0.0,
1.7034,3.91638124736605,3.9545498211399868,3.7979465834441117,0.0,0.0,-0.07402073994553769,3.889625883983383,0.0,0.0,0.0,0.0,0.0,0.0,0.0,0.0,0.0,0.0,0.0,0.0,46971.764994018704,0.0,
1.7258,3.919420409989671,3.9575222784262323,3.8007499516018957,0.0,0.0,-0.07422303976163865,3.8925642133392664,0.0,0.0,0.0,0.0,0.0,0.0,0.0,0.0,0.0,0.0,0.0,0.0,47654.43867845219,0.0,
1.7483,3.922522925433967,3.960556228426512,3.8036115966541852,0.0,0.0,-0.07442976166642226,3.895563583504888,0.0,0.0,0.0,0.0,0.0,0.0,0.0,0.0,0.0,0.0,0.0,0.0,48342.9108804196,0.0,
1.7707,3.925661653576007,3.9636251071447384,3.8065064782148577,0.0,0.0,-0.0746391062730659,3.898597746311868,0.0,0.0,0.0,0.0,0.0,0.0,0.0,0.0,0.0,0.0,0.0,0.0,49031.11030703758,0.0,
1.7931,3.928850718612227,3.966742703364588,3.809447616780375,0.0,0.0,-0.07485202334799386,3.9016803462523963,0.0,0.0,0.0,0.0,0.0,0.0,0.0,0.0,0.0,0.0,0.0,0.0,49722.139550583306,0.0,
1.8155,3.9320905764585254,3.9699094378635227,3.8124354251962522,0.0,0.0,-0.07506855257182654,3.904811813172767,0.0,0.0,0.0,0.0,0.0,0.0,0.0,0.0,0.0,0.0,0.0,0.0,50416.04804425293,0.0,
1.8379,3.9353816932128454,3.9731257405993263,3.8154703255147924,0.0,0.0,-0.07528873448940433,3.907992586442321,0.0,0.0,0.0,0.0,0.0,0.0,0.0,0.0,0.0,0.0,0.0,0.0,51112.88581600994,0.0,
1.8603,3.9387245453767217,3.9763920509009716,3.818552749195044,0.0,0.0,-0.07551261052682172,3.911223115157579,0.0,0.0,0.0,0.0,0.0,0.0,0.0,0.0,0.0,0.0,0.0,0.0,51812.70350151749,0.0,
1.8827,3.94211962008383,3.979708817665443,3.82168313730901,0.0,0.0,-0.07574022300890301,3.914503858352761,0.0,0.0,0.0,0.0,0.0,0.0,0.0,0.0,0.0,0.0,0.0,0.0,52515.55235731594,0.0,
1.9052,3.945582926242342,3.9830916487100985,3.824876241080334,0.0,0.0,-0.07597265671817131,3.917850272010925,0.0,0.0,0.0,0.0,0.0,0.0,0.0,0.0,0.0,0.0,0.0,0.0,53224.64274704033,0.0,
1.9276,3.9490841899421145,3.9865109448408695,3.8281041400463773,0.0,0.0,-0.07620788992036745,3.9212330916097873,0.0,0.0,0.0,0.0,0.0,0.0,0.0,0.0,0.0,0.0,0.0,0.0,53933.7243809465,0.0,
1.95,3.9526392061229765,3.989982105753056,3.8313813886281594,0.0,0.0,-0.07644699231935076,3.92466756683473,0.0,0.0,0.0,0.0,0.0,0.0,0.0,0.0,0.0,0.0,0.0,0.0,54645.99505460973,0.0,
1.9724,3.9562485069328353,3.993505620753508,3.8347084685929373,0.0,0.0,-0.07669001002325161,3.9281541987597604,0.0,0.0,0.0,0.0,0.0,0.0,0.0,0.0,0.0,0.0,0.0,0.0,55361.50864800872,0.0,
1.9948,3.9599126364091135,3.9970819897962553,3.838085872455646,0.0,0.0,-0.07693699013343057,3.931693499553672,0.0,0.0,0.0,0.0,0.0,0.0,0.0,0.0,0.0,0.0,0.0,0.0,56080.31973183021,0.0,
2.0172,3.9636321507546666,4.000711723718581,3.8415141037277927,0.0,0.0,-0.07718798076483797,3.93528599273368,0.0,0.0,0.0,0.0,0.0,0.0,0.0,0.0,0.0,0.0,0.0,0.0,56802.48358223438,0.0,
2.0396,3.967407618622633,4.004395344484563,3.8449936771747186,0.0,0.0,-0.07744303106691165,3.938932213427305,0.0,0.0,0.0,0.0,0.0,0.0,0.0,0.0,0.0,0.0,0.0,0.0,57528.056195910474,0.0,
2.062,3.9712396214106236,4.008133385436081,3.848525119080882,0.0,0.0,-0.07770219124499565,3.9426327086425292,0.0,0.0,0.0,0.0,0.0,0.0,0.0,0.0,0.0,0.0,0.0,0.0,58257.094305418,0.0,
2.0845,3.9751462447572865,4.011943448682418,3.852125085168081,0.0,0.0,-0.07796669753182028,3.9464049262025953,0.0,0.0,0.0,0.0,0.0,0.0,0.0,0.0,0.0,0.0,0.0,0.0,58992.933742707515,0.0,
2.1069,3.9790933732232405,4.015792225978091,3.855762127967819,0.0,0.0,-0.07823425134157164,3.9502159090563835,0.0,0.0,0.0,0.0,0.0,0.0,0.0,0.0,0.0,0.0,0.0,0.0,59729.09218294675,0.0,
2.1293,3.983098863162359,4.019697096951168,3.859452692520641,0.0,0.0,-0.07850607244273133,3.9540828842113895,0.0,0.0,0.0,0.0,0.0,0.0,0.0,0.0,0.0,0.0,0.0,0.0,60468.891155149766,0.0,
2.1517,3.9871633501526005,4.023658643184225,3.863197354077299,0.0,0.0,-0.07878221549478802,3.9580064491380416,0.0,0.0,0.0,0.0,0.0,0.0,0.0,0.0,0.0,0.0,0.0,0.0,61212.390498396424,0.0,
2.1741,3.9912874841402233,4.027677459018721,3.8669967008728228,0.0,0.0,-0.07906273632880383,3.961987214677256,0.0,0.0,0.0,0.0,0.0,0.0,0.0,0.0,0.0,0.0,0.0,0.0,61959.65086897572,0.0,
2.1965,3.995471929797391,4.031754151857984,3.8708513344491413,0.0,0.0,-0.07934769197230619,3.9660258053681723,0.0,0.0,0.0,0.0,0.0,0.0,0.0,0.0,0.0,0.0,0.0,0.0,62710.73375758847,0.0,
2.2189,3.9997173668917205,4.0358893424799405,3.8747618699885367,0.0,0.0,-0.07963714067480004,3.970122859786733,0.0,0.0,0.0,0.0,0.0,0.0,0.0,0.0,0.0,0.0,0.0,0.0,63465.701506878395,0.0,
2.2414,4.004043858267004,4.040102523562895,3.878746774484759,0.0,0.0,-0.0799324647374199,3.974297718771553,0.0,0.0,0.0,0.0,0.0,0.0,0.0,0.0,0.0,0.0,0.0,0.0,64228.01429405905,0.0,
2.2638,4.008413660023989,4.044356895561542,3.88277127250198,0.0,0.0,-0.08023110005913099,3.9785139426958374,0.0,0.0,0.0,0.0,0.0,0.0,0.0,0.0,0.0,0.0,0.0,0.0,64990.960346631684,0.0,
2.2862,4.012846590264512,4.048671714198749,3.886853606348696,0.0,0.0,-0.08053441106503356,3.9827906369373185,0.0,0.0,0.0,0.0,0.0,0.0,0.0,0.0,0.0,0.0,0.0,0.0,65757.98387209271,0.0,
2.3086,4.0173433931668425,4.0530476571540275,3.8909944494027755,0.0,0.0,-0.08084246116657873,3.987128499907882,0.0,0.0,0.0,0.0,0.0,0.0,0.0,0.0,0.0,0.0,0.0,0.0,66529.15080709885,0.0,
2.331,4.021904830052268,4.057485417207202,3.895194490529364,0.0,0.0,-0.0811553151346816,3.9915282459296115,0.0,0.0,0.0,0.0,0.0,0.0,0.0,0.0,0.0,0.0,0.0,0.0,67304.52803310148,0.0,
2.3534,4.026531679837552,4.061985702618053,3.8994544344889164,0.0,0.0,-0.08147303912924102,3.9959906056481738,0.0,0.0,0.0,0.0,0.0,0.0,0.0,0.0,0.0,0.0,0.0,0.0,68084.18339595431,0.0,
2.3758,4.031224739503154,4.066549237518934,3.9037750023594966,0.0,0.0,-0.08179570072937786,4.000516326460528,0.0,0.0,0.0,0.0,0.0,0.0,0.0,0.0,0.0,0.0,0.0,0.0,68868.1857258845,0.0,
2.3982,4.035984824578108,4.071176762320406,3.908156931974018,0.0,0.0,-0.0821233689643953,4.00510617295751,0.0,0.0,0.0,0.0,0.0,0.0,0.0,0.0,0.0,0.0,0.0,0.0,69656.60485782732,0.0,
2.4207,4.040834476389504,4.075890128095855,3.9126209582890317,0.0,0.0,-0.0824576113067627,4.00978185425813,0.0,0.0,0.0,0.0,0.0,0.0,0.0,0.0,0.0,0.0,0.0,0.0,70453.06158375242,0.0,
