energies(eV),real_xx,real_yy,real_zz,real_xy,real_yz,real_xz,real_ave,imag_xx,imag_yy,imag_zz,imag_xy,imag_yz,imag_xz,imag_ave,absorption_xx,absorption_yy,absorption_zz,absorption_xy,absorption_yz,absorption_xz,absorption_ave,band_gap
0.0,4.126159338297133,4.126159338297133,4.126159338297133,0.0,0.0,0.0,4.126159338297133,0.0,0.0,0.0,0.0,0.0,0.0,0.0,0.0,0.0,0.0,0.0,0.0,0.0,0.0,2.415
0.0211,4.126187452238584,4.126187452238584,4.126187452238584,0.0,0.0,0.0,4.126187452238584,0.0,0.0,0.0,0.0,0.0,0.0,0.0,0.0,0.0,0.0,0.0,0.0,0.0,0.0,
0.0422,4.126271799851763,4.126271799851763,4.126271799851763,0.0,0.0,0.0,4.126271799851763,0.0,0.0,0.0,0.0,0.0,0.0,0.0,0.0,0.0,0.0,0.0,0.0,0.0,0.0,
0.0633,4.126412398507199,4.126412398507199,4.126412398507199,0.0,0.0,0.0,4.126412398507199,0.0,0.0,0.0,0.0,0.0,0.0,0.0,0.0,0.0,0.0,0.0,0.0,0.0,0.0,
0.0844,4.126609277169443,4.126609277169443,4.126609277169443,0.0,0.0,0.0,4.126609277169443,0.0,0.0,0.0,0.0,0.0,0.0,0.0,0.0,0.0,0.0,0.0,0.0,0.0,0.0,
0.1055,4.126862476417466,4.126862476417466,4.126862476417466,0.0,0.0,0.0,4.126862476417466,0.0,0.0,0.0,0.0,0.0,0.0,0.0,0.0,0.0,0.0,0.0,0.0,0.0,0.0,
0.1266,4.127172048473551,4.127172048473551,4.127172048473551,0.0,0.0,0.0,4.127172048473551,0.0,0.0,0.0,0.0,0.0,0.0,0.0,0.0,0.0,0.0,0.0,0.0,0.0,0.0,
0.1477,4.127538057240205,4.127538057240205,4.127538057240205,0.0,0.0,0.0,4.127538057240205,0.0,0.0,0.0,0.0,0.0,0.0,0.0,0.0,0.0,0.0,0.0,0.0,0.0,0.0,
0.1688,4.127960578345493,4.127960578345493,4.127960578345493,0.0,0.0,0.0,4.127960578345493,0.0,0.0,0.0,0.0,0.0,0.0,0.0,0.0,0.0,0.0,0.0,0.0,0.0,0.0,
0.1899,4.128439699196949,4.128439699196949,4.128439699196949,0.0,0.0,0.0,4.128439699196949,0.0,0.0,0.0,0.0,0.0,0.0,0.0,0.0,0.0,0.0,0.0,0.0,0.0,0.0,
0.211,4.128975519043696,4.128975519043696,4.128975519043696,0.0,0.0,0.0,4.128975519043696,0.0,0.0,0.0,0.0,0.0,0.0,0.0,0.0,0.0,0.0,0.0,0.0,0.0,0.0,
0.2321,4.129568149047421,4.129568149047421,4.129568149047421,0.0,0.0,0.0,4.129568149047421,0.0,0.0,0.0,0.0,0.0,0.0,0.0,0.0,0.0,0.0,0.0,0.0,0.0,0.0,
0.2532,4.130217712361946,4.130217712361946,4.130217712361946,0.0,0.0,0.0,4.130217712361946,0.0,0.0,0.0,0.0,0.0,0.0,0.0,0.0,0.0,0.0,0.0,0.0,0.0,0.0,
0.2743,4.1309243442216195,4.1309243442216195,4.1309243442216195,0.0,0.0,0.0,4.1309243442216195,0.0,0.0,0.0,0.0,0.0,0.0,0.0,0.0,0.0,0.0,0.0,0.0,0.0,0.0,
0.2953,4.1316844367209935,4.1316844367209935,4.1316844367209935,0.0,0.0,0.0,4.1316844367209935,0.0,0.0,0.0,0.0,0.0,0.0,0.0,0.0,0.0,0.0,0.0,0.0,0.0,0.0,
0.3164,4.13250538787363,4.13250538787363,4.13250538787363,0.0,0.0,0.0,4.13250538787363,0.0,0.0,0.0,0.0,0.0,0.0,0.0,0.0,0.0,0.0,0.0,0.0,0.0,0.0,
0.3375,4.133383885932295,4.133383885932295,4.133383885932295,0.0,0.0,0.0,4.133383885932295,0.0,0.0,0.0,0.0,0.0,0.0,0.0,0.0,0.0,0.0,0.0,0.0,0.0,0.0,
0.3586,4.13432011545983,4.13432011545983,4.13432011545983,0.0,0.0,0.0,4.13432011545983,0.0,0.0,0.0,0.0,0.0,0.0,0.0,0.0,0.0,0.0,0.0,0.0,0.0,0.0,
0.3797,4.135314273678997,4.135314273678997,4.135314273678997,0.0,0.0,0.0,4.135314273678997,0.0,0.0,0.0,0.0,0.0,0.0,0.0,0.0,0.0,0.0,0.0,0.0,0.0,0.0,
0.4008,4.136366570617284,4.136366570617284,4.136366570617284,0.0,0.0,0.0,4.136366570617284,0.0,0.0,0.0,0.0,0.0,0.0,0.0,0.0,0.0,0.0,0.0,0.0,0.0,0.0,
0.4219,4.137477229261914,4.137477229261914,4.137477229261914,0.0,0.0,0.0,4.137477229261914,0.0,0.0,0.0,0.0,0.0,0.0,0.0,0.0,0.0,0.0,0.0,0.0,0.0,0.0,
0.443,4.138646485725259,4.138646485725259,4.138646485725259,0.0,0.0,0.0,4.138646485725259,0.0,0.0,0.0,0.0,0.0,0.0,0.0,0.0,0.0,0.0,0.0,0.0,0.0,0.0,
0.4641,4.139874589420914,4.139874589420914,4.139874589420914,0.0,0.0,0.0,4.139874589420914,0.0,0.0,0.0,0.0,0.0,0.0,0.0,0.0,0.0,0.0,0.0,0.0,0.0,0.0,
0.4852,4.141161803250695,4.141161803250695,4.141161803250695,0.0,0.0,0.0,4.141161803250695,0.0,0.0,0.0,0.0,0.0,0.0,0.0,0.0,0.0,0.0,0.0,0.0,0.0,0.0,
0.5063,4.142508403803001,4.142508403803001,4.142508403803001,0.0,0.0,0.0,4.142508403803001,0.0,0.0,0.0,0.0,0.0,0.0,0.0,0.0,0.0,0.0,0.0,0.0,0.0,0.0,
0.5274,4.143914681562739,4.143914681562739,4.143914681562739,0.0,0.0,0.0,4.143914681562739,0.0,0.0,0.0,0.0,0.0,0.0,0.0,0.0,0.0,0.0,0.0,0.0,0.0,0.0,
0.5485,4.145380941133261,4.145380941133261,4.145380941133261,0.0,0.0,0.0,4.145380941133261,0.0,0.0,0.0,0.0,0.0,0.0,0.0,0.0,0.0,0.0,0.0,0.0,0.0,0.0,
0.5696,4.146907501470649,4.146907501470649,4.146907501470649,0.0,0.0,0.0,4.146907501470649,0.0,0.0,0.0,0.0,0.0,0.0,0.0,0.0,0.0,0.0,0.0,0.0,0.0,0.0,
0.5907,4.148494696130724,4.148494696130724,4.148494696130724,0.0,0.0,0.0,4.148494696130724,0.0,0.0,0.0,0.0,0.0,0.0,0.0,0.0,0.0,0.0,0.0,0.0,0.0,0.0,
0.6118,4.1501428735294175,4.1501428735294175,4.1501428735294175,0.0,0.0,0.0,4.1501428735294175,0.0,0.0,0.0,0.0,0.0,0.0,0.0,0.0,0.0,0.0,0.0,0.0,0.0,0.0,
0.6329,4.151852397216603,4.151852397216603,4.151852397216603,0.0,0.0,0.0,4.151852397216603,0.0,0.0,0.0,0.0,0.0,0.0,0.0,0.0,0.0,0.0,0.0,0.0,0.0,0.0,
0.654,4.153623646164249,4.153623646164249,4.153623646164249,0.0,0.0,0.0,4.153623646164249,0.0,0.0,0.0,0.0,0.0,0.0,0.0,0.0,0.0,0.0,0.0,0.0,0.0,0.0,
0.6751,4.15545701506912,4.15545701506912,4.15545701506912,0.0,0.0,0.0,4.15545701506912,0.0,0.0,0.0,0.0,0.0,0.0,0.0,0.0,0.0,0.0,0.0,0.0,0.0,0.0,
0.6962,4.157352914670957,4.157352914670957,4.157352914670957,0.0,0.0,0.0,4.157352914670957,0.0,0.0,0.0,0.0,0.0,0.0,0.0,0.0,0.0,0.0,0.0,0.0,0.0,0.0,
0.7173,4.1593117720861805,4.1593117720861805,4.1593117720861805,0.0,0.0,0.0,4.1593117720861805,0.0,0.0,0.0,0.0,0.0,0.0,0.0,0.0,0.0,0.0,0.0,0.0,0.0,0.0,
0.7384,4.161334031158233,4.161334031158233,4.161334031158233,0.0,0.0,0.0,4.161334031158233,0.0,0.0,0.0,0.0,0.0,0.0,0.0,0.0,0.0,0.0,0.0,0.0,0.0,0.0,
0.7595,4.163420152825035,4.163420152825035,4.163420152825035,0.0,0.0,0.0,4.163420152825035,0.0,0.0,0.0,0.0,0.0,0.0,0.0,0.0,0.0,0.0,0.0,0.0,0.0,0.0,
0.7806,4.165570615504266,4.165570615504266,4.165570615504266,0.0,0.0,0.0,4.165570615504266,0.0,0.0,0.0,0.0,0.0,0.0,0.0,0.0,0.0,0.0,0.0,0.0,0.0,0.0,
0.8017,4.167785915497107,4.167785915497107,4.167785915497107,0.0,0.0,0.0,4.167785915497107,0.0,0.0,0.0,0.0,0.0,0.0,0.0,0.0,0.0,0.0,0.0,0.0,0.0,0.0,
0.8228,4.170066567411558,4.170066567411558,4.170066567411558,0.0,0.0,0.0,4.170066567411558,0.0,0.0,0.0,0.0,0.0,0.0,0.0,0.0,0.0,0.0,0.0,0.0,0.0,0.0,
0.8438,4.172401827331071,4.172401827331071,4.172401827331071,0.0,0.0,0.0,4.172401827331071,0.0,0.0,0.0,0.0,0.0,0.0,0.0,0.0,0.0,0.0,0.0,0.0,0.0,0.0,
0.8649,4.174814486172814,4.174814486172814,4.174814486172814,0.0,0.0,0.0,4.174814486172814,0.0,0.0,0.0,0.0,0.0,0.0,0.0,0.0,0.0,0.0,0.0,0.0,0.0,0.0,
0.886,4.177294152382201,4.177294152382201,4.177294152382201,0.0,0.0,0.0,4.177294152382201,0.0,0.0,0.0,0.0,0.0,0.0,0.0,0.0,0.0,0.0,0.0,0.0,0.0,0.0,
0.9071,4.179841418347631,4.179841418347631,4.179841418347631,0.0,0.0,0.0,4.179841418347631,0.0,0.0,0.0,0.0,0.0,0.0,0.0,0.0,0.0,0.0,0.0,0.0,0.0,0.0,
0.9282,4.1824568971999145,4.1824568971999145,4.1824568971999145,0.0,0.0,0.0,4.1824568971999145,0.0,0.0,0.0,0.0,0.0,0.0,0.0,0.0,0.0,0.0,0.0,0.0,0.0,0.0,
0.9493,4.185141223371277,4.185141223371277,4.185141223371277,0.0,0.0,0.0,4.185141223371277,0.0,0.0,0.0,0.0,0.0,0.0,0.0,0.0,0.0,0.0,0.0,0.0,0.0,0.0,
0.9704,4.187895053181037,4.187895053181037,4.187895053181037,0.0,0.0,0.0,4.187895053181037,0.0,0.0,0.0,0.0,0.0,0.0,0.0,0.0,0.0,0.0,0.0,0.0,0.0,0.0,
0.9915,4.190719065448889,4.190719065448889,4.190719065448889,0.0,0.0,0.0,4.190719065448889,0.0,0.0,0.0,0.0,0.0,0.0,0.0,0.0,0.0,0.0,0.0,0.0,0.0,0.0,
1.0126,4.193613962137574,4.193613962137574,4.193613962137574,0.0,0.0,0.0,4.193613962137574,0.0,0.0,0.0,0.0,0.0,0.0,0.0,0.0,0.0,0.0,0.0,0.0,0.0,0.0,
1.0337,4.196580469026156,4.196580469026156,4.196580469026156,0.0,0.0,0.0,4.196580469026156,0.0,0.0,0.0,0.0,0.0,0.0,0.0,0.0,0.0,0.0,0.0,0.0,0.0,0.0,
1.0548,4.199619336415381,4.199619336415381,4.199619336415381,0.0,0.0,0.0,4.199619336415381,0.0,0.0,0.0,0.0,0.0,0.0,0.0,0.0,0.0,0.0,0.0,0.0,0.0,0.0,
1.0759,4.202731339867156,4.202731339867156,4.202731339867156,0.0,0.0,0.0,4.202731339867156,0.0,0.0,0.0,0.0,0.0,0.0,0.0,0.0,0.0,0.0,0.0,0.0,0.0,0.0,
1.097,4.205917280979493,4.205917280979493,4.205917280979493,0.0,0.0,0.0,4.205917280979493,0.0,0.0,0.0,0.0,0.0,0.0,0.0,0.0,0.0,0.0,0.0,0.0,0.0,0.0,
1.1181,4.2091779881991345,4.2091779881991345,4.2091779881991345,0.0,0.0,0.0,4.2091779881991345,0.0,0.0,0.0,0.0,0.0,0.0,0.0,0.0,0.0,0.0,0.0,0.0,0.0,0.0,
1.1392,4.21251431767357,4.21251431767357,4.21251431767357,0.0,0.0,0.0,4.21251431767357,0.0,0.0,0.0,0.0,0.0,0.0,0.0,0.0,0.0,0.0,0.0,0.0,0.0,0.0,
1.1603,4.215927154145049,4.215927154145049,4.215927154145049,0.0,0.0,0.0,4.215927154145049,0.0,0.0,0.0,0.0,0.0,0.0,0.0,0.0,0.0,0.0,0.0,0.0,0.0,0.0,
1.1814,4.219417411888358,4.219417411888358,4.219417411888358,0.0,0.0,0.0,4.219417411888358,0.0,0.0,0.0,0.0,0.0,0.0,0.0,0.0,0.0,0.0,0.0,0.0,0.0,0.0,
1.2025,4.222986035695232,4.222986035695232,4.222986035695232,0.0,0.0,0.0,4.222986035695232,0.0,0.0,0.0,0.0,0.0,0.0,0.0,0.0,0.0,0.0,0.0,0.0,0.0,0.0,
1.2236,4.226634001907783,4.226634001907783,4.226634001907783,0.0,0.0,0.0,4.226634001907783,0.0,0.0,0.0,0.0,0.0,0.0,0.0,0.0,0.0,0.0,0.0,0.0,0.0,0.0,
1.2447,4.230362319503948,4.230362319503948,4.230362319503948,0.0,0.0,0.0,4.230362319503948,0.0,0.0,0.0,0.0,0.0,0.0,0.0,0.0,0.0,0.0,0.0,0.0,0.0,0.0,
1.2658,4.23417203123787,4.23417203123787,4.23417203123787,0.0,0.0,0.0,4.23417203123787,0.0,0.0,0.0,0.0,0.0,0.0,0.0,0.0,0.0,0.0,0.0,0.0,0.0,0.0,
1.2869,4.238064214838406,4.238064214838406,4.238064214838406,0.0,0.0,0.0,4.238064214838406,0.0,0.0,0.0,0.0,0.0,0.0,0.0,0.0,0.0,0.0,0.0,0.0,0.0,0.0,
1.308,4.242039984269241,4.242039984269241,4.242039984269241,0.0,0.0,0.0,4.242039984269241,0.0,0.0,0.0,0.0,0.0,0.0,0.0,0.0,0.0,0.0,0.0,0.0,0.0,0.0,
1.3291,4.2461004910545395,4.2461004910545395,4.2461004910545395,0.0,0.0,0.0,4.2461004910545395,0.0,0.0,0.0,0.0,0.0,0.0,0.0,0.0,0.0,0.0,0.0,0.0,0.0,0.0,
1.3502,4.250246925673808,4.250246925673808,4.250246925673808,0.0,0.0,0.0,4.250246925673808,0.0,0.0,0.0,0.0,0.0,0.0,0.0,0.0,0.0,0.0,0.0,0.0,0.0,0.0,
1.3713,4.2544805190303165,4.2544805190303165,4.2544805190303165,0.0,0.0,0.0,4.2544805190303165,0.0,0.0,0.0,0.0,0.0,0.0,0.0,0.0,0.0,0.0,0.0,0.0,0.0,0.0,
1.3923,4.258781849859597,4.258781849859597,4.258781849859597,0.0,0.0,0.0,4.258781849859597,0.0,0.0,0.0,0.0,0.0,0.0,0.0,0.0,0.0,0.0,0.0,0.0,0.0,0.0,
1.4134,4.263193194391732,4.263193194391732,4.263193194391732,0.0,0.0,0.0,4.263193194391732,0.0,0.0,0.0,0.0,0.0,0.0,0.0,0.0,0.0,0.0,0.0,0.0,0.0,0.0,
1.4345,4.267695642240184,4.267695642240184,4.267695642240184,0.0,0.0,0.0,4.267695642240184,0.0,0.0,0.0,0.0,0.0,0.0,0.0,0.0,0.0,0.0,0.0,0.0,0.0,0.0,
1.4556,4.272290602103498,4.272290602103498,4.272290602103498,0.0,0.0,0.0,4.272290602103498,0.0,0.0,0.0,0.0,0.0,0.0,0.0,0.0,0.0,0.0,0.0,0.0,0.0,0.0,
1.4767,4.2769795317169175,4.2769795317169175,4.2769795317169175,0.0,0.0,0.0,4.2769795317169175,0.0,0.0,0.0,0.0,0.0,0.0,0.0,0.0,0.0,0.0,0.0,0.0,0.0,0.0,
1.4978,4.281763939872717,4.281763939872717,4.281763939872717,0.0,0.0,0.0,4.281763939872717,0.0,0.0,0.0,0.0,0.0,0.0,0.0,0.0,0.0,0.0,0.0,0.0,0.0,0.0,
1.5189,4.2866453885552565,4.2866453885552565,4.2866453885552565,0.0,0.0,0.0,4.2866453885552565,0.0,0.0,0.0,0.0,0.0,0.0,0.0,0.0,0.0,0.0,0.0,0.0,0.0,0.0,
1.54,4.2916254951984785,4.2916254951984785,4.2916254951984785,0.0,0.0,0.0,4.2916254951984785,0.0,0.0,0.0,0.0,0.0,0.0,0.0,0.0,0.0,0.0,0.0,0.0,0.0,0.0,
1.5611,4.2967059350744945,4.2967059350744945,4.2967059350744945,0.0,0.0,0.0,4.2967059350744945,0.0,0.0,0.0,0.0,0.0,0.0,0.0,0.0,0.0,0.0,0.0,0.0,0.0,0.0,
1.5822,4.301888443822305,4.301888443822305,4.301888443822305,0.0,0.0,0.0,4.301888443822305,0.0,0.0,0.0,0.0,0.0,0.0,0.0,0.0,0.0,0.0,0.0,0.0,0.0,0.0,
1.6033,4.307174820127032,4.307174820127032,4.307174820127032,0.0,0.0,0.0,4.307174820127032,0.0,0.0,0.0,0.0,0.0,0.0,0.0,0.0,0.0,0.0,0.0,0.0,0.0,0.0,
1.6244,4.312566928560532,4.312566928560532,4.312566928560532,0.0,0.0,0.0,4.312566928560532,0.0,0.0,0.0,0.0,0.0,0.0,0.0,0.0,0.0,0.0,0.0,0.0,0.0,0.0,
1.6455,4.318066702594985,4.318066702594985,4.318066702594985,0.0,0.0,0.0,4.318066702594985,0.0,0.0,0.0,0.0,0.0,0.0,0.0,0.0,0.0,0.0,0.0,0.0,0.0,0.0,
1.6666,4.323676147803004,4.323676147803004,4.323676147803004,0.0,0.0,0.0,4.323676147803004,0.0,0.0,0.0,0.0,0.0,0.0,0.0,0.0,0.0,0.0,0.0,0.0,0.0,0.0,
1.6877,4.3293973452580445,4.3293973452580445,4.3293973452580445,0.0,0.0,0.0,4.3293973452580445,0.0,0.0,0.0,0.0,0.0,0.0,0.0,0.0,0.0,0.0,0.0,0.0,0.0,0.0,
1.7088,4.335232455150706,4.335232455150706,4.335232455150706,0.0,0.0,0.0,4.335232455150706,0.0,0.0,0.0,0.0,0.0,0.0,0.0,0.0,0.0,0.0,0.0,0.0,0.0,0.0,
1.7299,4.341183720638037,4.341183720638037,4.341183720638037,0.0,0.0,0.0,4.341183720638037,0.0,0.0,0.0,0.0,0.0,0.0,0.0,0.0,0.0,0.0,0.0,0.0,0.0,0.0,
1.751,4.347253471944174,4.347253471944174,4.347253471944174,0.0,0.0,0.0,4.347253471944174,0.0,0.0,0.0,0.0,0.0,0.0,0.0,0.0,0.0,0.0,0.0,0.0,0.0,0.0,
1.7721,4.353444130733143,4.353444130733143,4.353444130733143,0.0,0.0,0.0,4.353444130733143,0.0,0.0,0.0,0.0,0.0,0.0,0.0,0.0,0.0,0.0,0.0,0.0,0.0,0.0,
1.7932,4.359758214775811,4.359758214775811,4.359758214775811,0.0,0.0,0.0,4.359758214775811,0.0,0.0,0.0,0.0,0.0,0.0,0.0,0.0,0.0,0.0,0.0,0.0,0.0,0.0,
1.8143,4.3661983429361175,4.3661983429361175,4.3661983429361175,0.0,0.0,0.0,4.3661983429361175,0.0,0.0,0.0,0.0,0.0,0.0,0.0,0.0,0.0,0.0,0.0,0.0,0.0,0.0,
1.8354,4.372767240503572,4.372767240503572,4.372767240503572,0.0,0.0,0.0,4.372767240503572,0.0,0.0,0.0,0.0,0.0,0.0,0.0,0.0,0.0,0.0,0.0,0.0,0.0,0.0,
1.8565,4.379467744902539,4.379467744902539,4.379467744902539,0.0,0.0,0.0,4.379467744902539,0.0,0.0,0.0,0.0,0.0,0.0,0.0,0.0,0.0,0.0,0.0,0.0,0.0,0.0,
1.8776,4.386302811811421,4.386302811811421,4.386302811811421,0.0,0.0,0.0,4.386302811811421,0.0,0.0,0.0,0.0,0.0,0.0,0.0,0.0,0.0,0.0,0.0,0.0,0.0,0.0,
1.8987,4.393275521729109,4.393275521729109,4.393275521729109,0.0,0.0,0.0,4.393275521729109,0.0,0.0,0.0,0.0,0.0,0.0,0.0,0.0,0.0,0.0,0.0,0.0,0.0,0.0,
1.9198,4.4003890870300175,4.4003890870300175,4.4003890870300175,0.0,0.0,0.0,4.4003890870300175,0.0,0.0,0.0,0.0,0.0,0.0,0.0,0.0,0.0,0.0,0.0,0.0,0.0,0.0,
1.9409,4.407646859553665,4.407646859553665,4.407646859553665,0.0,0.0,0.0,4.407646859553665,0.0,0.0,0.0,0.0,0.0,0.0,0.0,0.0,0.0,0.0,0.0,0.0,0.0,0.0,
1.9619,4.415016887694887,4.415016887694887,4.415016887694887,0.0,0.0,0.0,4.415016887694887,0.0,0.0,0.0,0.0,0.0,0.0,0.0,0.0,0.0,0.0,0.0,0.0,0.0,0.0,
1.983,4.42257300332983,4.42257300332983,4.42257300332983,0.0,0.0,0.0,4.42257300332983,0.0,0.0,0.0,0.0,0.0,0.0,0.0,0.0,0.0,0.0,0.0,0.0,0.0,0.0,
2.0041,4.43028428502217,4.43028428502217,4.43028428502217,0.0,0.0,0.0,4.43028428502217,0.0,0.0,0.0,0.0,0.0,0.0,0.0,0.0,0.0,0.0,0.0,0.0,0.0,0.0,
2.0252,4.438154730147773,4.438154730147773,4.438154730147773,0.0,0.0,0.0,4.438154730147773,0.0,0.0,0.0,0.0,0.0,0.0,0.0,0.0,0.0,0.0,0.0,0.0,0.0,0.0,
2.0463,4.446188523511723,4.446188523511723,4.446188523511723,0.0,0.0,0.0,4.446188523511723,0.0,0.0,0.0,0.0,0.0,0.0,0.0,0.0,0.0,0.0,0.0,0.0,0.0,0.0,
2.0674,4.454390049486585,4.454390049486585,4.454390049486585,0.0,0.0,0.0,4.454390049486585,0.0,0.0,0.0,0.0,0.0,0.0,0.0,0.0,0.0,0.0,0.0,0.0,0.0,0.0,
2.0885,4.462763905222588,4.462763905222588,4.462763905222588,0.0,0.0,0.0,4.462763905222588,0.0,0.0,0.0,0.0,0.0,0.0,0.0,0.0,0.0,0.0,0.0,0.0,0.0,0.0,
2.1096,4.471314915056596,4.471314915056596,4.471314915056596,0.0,0.0,0.0,4.471314915056596,0.0,0.0,0.0,0.0,0.0,0.0,0.0,0.0,0.0,0.0,0.0,0.0,0.0,0.0,
2.1307,4.480048146267191,4.480048146267191,4.480048146267191,0.0,0.0,0.0,4.480048146267191,0.0,0.0,0.0,0.0,0.0,0.0,0.0,0.0,0.0,0.0,0.0,0.0,0.0,0.0,
2.1518,4.488968926349351,4.488968926349351,4.488968926349351,0.0,0.0,0.0,4.488968926349351,0.0,0.0,0.0,0.0,0.0,0.0,0.0,0.0,0.0,0.0,0.0,0.0,0.0,0.0,
2.1729,4.498082862014268,4.498082862014268,4.498082862014268,0.0,0.0,0.0,4.498082862014268,0.0,0.0,0.0,0.0,0.0,0.0,0.0,0.0,0.0,0.0,0.0,0.0,0.0,0.0,
2.194,4.507395860163269,4.507395860163269,4.507395860163269,0.0,0.0,0.0,4.507395860163269,0.0,0.0,0.0,0.0,0.0,0.0,0.0,0.0,0.0,0.0,0.0,0.0,0.0,0.0,
2.2151,4.516914151139248,4.516914151139248,4.516914151139248,0.0,0.0,0.0,4.516914151139248,0.0,0.0,0.0,0.0,0.0,0.0,0.0,0.0,0.0,0.0,0.0,0.0,0.0,0.0,
2.2362,4.526644314636686,4.526644314636686,4.526644314636686,0.0,0.0,0.0,4.526644314636686,0.0,0.0,0.0,0.0,0.0,0.0,0.0,0.0,0.0,0.0,0.0,0.0,0.0,0.0,
2.2573,4.536593308760188,4.536593308760188,4.536593308760188,0.0,0.0,0.0,4.536593308760188,0.0,0.0,0.0,0.0,0.0,0.0,0.0,0.0,0.0,0.0,0.0,0.0,0.0,0.0,
2.2784,4.546768502880757,4.546768502880757,4.546768502880757,0.0,0.0,0.0,4.546768502880757,0.0,0.0,0.0,0.0,0.0,0.0,0.0,0.0,0.0,0.0,0.0,0.0,0.0,0.0,
2.2995,4.557177715189491,4.557177715189491,4.557177715189491,0.0,0.0,0.0,4.557177715189491,0.0,0.0,0.0,0.0,0.0,0.0,0.0,0.0,0.0,0.0,0.0,0.0,0.0,0.0,
2.3206,4.567829256252864,4.567829256252864,4.567829256252864,0.0,0.0,0.0,4.567829256252864,0.0,0.0,0.0,0.0,0.0,0.0,0.0,0.0,0.0,0.0,0.0,0.0,0.0,0.0,
2.3417,4.5787319805773,4.5787319805773,4.5787319805773,0.0,0.0,0.0,4.5787319805773,0.0,0.0,0.0,0.0,0.0,0.0,0.0,0.0,0.0,0.0,0.0,0.0,0.0,0.0,
2.3628,4.589895349485604,4.589895349485604,4.589895349485604,0.0,0.0,0.0,4.589895349485604,0.0,0.0,0.0,0.0,0.0,0.0,0.0,0.0,0.0,0.0,0.0,0.0,0.0,0.0,
2.3839,4.6013295111584105,4.6013295111584105,4.6013295111584105,0.0,0.0,0.0,4.6013295111584105,0.0,0.0,0.0,0.0,0.0,0.0,0.0,0.0,0.0,0.0,0.0,0.0,0.0,0.0,
2.405,4.613045409050033,4.613045409050033,4.613045409050033,0.0,0.0,0.0,4.613045409050033,0.0,0.0,0.0,0.0,0.0,0.0,0.0,0.0,0.0,0.0,0.0,0.0,0.0,0.0,
2.4261,4.625054941524995,4.625054941524995,4.625054941524995,0.0,0.0,0.0,4.625054941524995,0.0,0.0,0.0,0.0,0.0,-0.0,0.0,0.0,0.0,0.0,0.0,0.0,0.0,0.0,
2.4472,4.637371217485302,4.637371217485302,4.637371217485302,0.0,0.0,0.0,4.637371217485302,0.0,0.0,0.0,0.0,0.0,-0.0,0.0,0.0,0.0,0.0,0.0,0.0,0.0,0.0,
2.4683,4.650008921507627,4.650008921507627,4.650008921507627,0.0,0.0,0.0,4.650008921507627,0.0,0.0,0.0,0.0,-0.0,-0.0,0.0,0.0,0.0,0.0,0.0,0.0,0.0,0.0,
2.4894,4.6629832119806105,4.6629832119806105,4.6629832119806105,0.0,0.0,0.0,4.6629832119806105,0.0,0.0,0.0,0.0,-0.0,-0.0,0.0,0.0,0.0,0.0,0.0,0.0,0.0,0.0,
2.5104,4.676226008039464,4.676226008039464,4.676226008039464,0.0,0.0,0.0,4.676226008039464,0.0001,0.0001,0.0001,0.0,0.0,-0.0,0.0001,5.883132810716868,5.883132810716868,5.883132810716868,0.0,0.0,0.0,5.883132810716868,
2.5315,4.689882026754169,4.689882026754169,4.689882026754169,0.0,0.0,0.0,4.689882026754169,0.0001,0.0001,0.0001,0.0,0.0,-0.0,0.0001,5.923938157249596,5.923938157249596,5.923938157249596,0.0,0.0,0.0,5.923938157249596,
2.5526,4.7039297680150565,4.7039297680150565,4.7039297680150565,0.0,0.0,0.0,4.7039297680150565,0.0001,0.0001,0.0001,0.0,0.0,-0.0,0.0001,5.964387352563364,5.964387352563364,5.964387352563364,0.0,0.0,0.0,5.964387352563364,
2.5737,4.718368751871901,4.718368751871901,4.718368751871901,0.0,0.0,0.0,4.718368751871901,0.0002,0.0002,0.0002,0.0,-0.0,-0.0,0.0002,12.008963449737218,12.008963449737218,12.008963449737218,0.0,0.0,0.0,12.008963449737218,
2.5948,4.733199412783481,4.733199412783481,4.733199412783481,0.0,0.0,0.0,4.733199412783481,0.0003,0.0003,0.0003,0.0,-0.0,-0.0,0.0003,18.132649877616718,18.132649877616718,18.132649877616718,0.0,0.0,0.0,18.132649877616718,
2.6159,4.7484677572062335,4.7484677572062335,4.7484677572062335,0.0,0.0,0.0,4.7484677572062335,0.0003,0.0003,0.0003,0.0,-0.0,-0.0,0.0003,18.2506852368761,18.2506852368761,18.2506852368761,0.0,0.0,0.0,18.2506852368761,
2.637,4.764199627490614,4.764199627490614,4.764199627490614,0.0,0.0,0.0,4.764199627490614,0.0004,0.0004,0.0004,0.0,-0.0,-0.0,0.0004,24.489993672624323,24.489993672624323,24.489993672624323,0.0,0.0,0.0,24.489993672624323,
2.6581,4.7804008521010575,4.7804008521010575,4.7804008521010575,0.0,0.0,0.0,4.7804008521010575,0.0005,0.0005,0.0005,0.0,0.0,-0.0,0.0005,30.80510473294285,30.80510473294285,30.80510473294285,0.0,0.0,0.0,30.80510473294285,
2.6792,4.797125289906333,4.797125289906333,4.797125289906333,0.0,0.0,0.0,4.797125289906333,0.0005,0.0005,0.0005,0.0,0.0,-0.0,0.0005,30.99546345132444,30.99546345132444,30.99546345132444,0.0,0.0,0.0,30.99546345132444,
