energies(eV),real_xx,real_yy,real_zz,real_xy,real_yz,real_xz,real_ave,imag_xx,imag_yy,imag_zz,imag_xy,imag_yz,imag_xz,imag_ave,absorption_xx,absorption_yy,absorption_zz,absorption_xy,absorption_yz,absorption_xz,absorption_ave,band_gap
0.0,2.702872470275727,2.8339486804852356,2.5876093854649476,0.0,0.0,0.0,2.7081435120753032,0.0,0.0,0.0,0.0,0.0,0.0,0.0,0.0,0.0,0.0,0.0,0.0,0.0,0.0,4.4618
0.0158,2.7028780364380114,2.833955062459851,2.5876147439018924,0.0,0.0,0.0,2.708149280933251,0.0,0.0,0.0,0.0,0.0,0.0,0.0,0.0,0.0,0.0,0.0,0.0,0.0,0.0,
0.0316,2.702894735251693,2.8339742087800746,2.5876308195404674,0.0,0.0,0.0,2.7081665878574115,0.0,0.0,0.0,0.0,0.0,0.0,0.0,0.0,0.0,0.0,0.0,0.0,0.0,0.0,
0.0474,2.7029225676972946,2.8340061206350837,2.587657613363957,0.0,0.0,0.0,2.7081954338987786,0.0,0.0,0.0,0.0,0.0,0.0,0.0,0.0,0.0,0.0,0.0,0.0,0.0,0.0,
0.0632,2.7029615354092034,2.8340508000070637,2.587695127011424,0.0,0.0,0.0,2.7082358208092305,0.0,0.0,0.0,0.0,0.0,0.0,0.0,0.0,0.0,0.0,0.0,0.0,0.0,0.0,
0.079,2.7030116406759865,2.8341082496716234,2.587743362777898,0.0,0.0,0.0,2.7082877510418357,0.0,0.0,0.0,0.0,0.0,0.0,0.0,0.0,0.0,0.0,0.0,0.0,0.0,0.0,
0.0948,2.703072886440794,2.834178473198295,2.587802323614854,0.0,0.0,0.0,2.7083512277513138,0.0,0.0,0.0,0.0,0.0,0.0,0.0,0.0,0.0,0.0,0.0,0.0,0.0,0.0,
0.1106,2.703145276301851,2.834261474951223,2.5878720131307205,0.0,0.0,0.0,2.7084262547945976,0.0,0.0,0.0,0.0,0.0,0.0,0.0,0.0,0.0,0.0,0.0,0.0,0.0,0.0,
0.1264,2.7032288145131877,2.8343572600899876,2.5879524355915473,0.0,0.0,0.0,2.708512836731574,0.0,0.0,0.0,0.0,0.0,0.0,0.0,0.0,0.0,0.0,0.0,0.0,0.0,0.0,
0.1422,2.703323505985334,2.8344658345705325,2.588043595921682,0.0,0.0,0.0,2.7086109788258494,0.0,0.0,0.0,0.0,0.0,0.0,0.0,0.0,0.0,0.0,0.0,0.0,0.0,0.0,
0.158,2.7034293562862084,2.8345872051463807,2.588145499704737,0.0,0.0,0.0,2.708720687045775,0.0,0.0,0.0,0.0,0.0,0.0,0.0,0.0,0.0,0.0,0.0,0.0,0.0,0.0,
0.1738,2.703546371642145,2.834721379369845,2.5882581531845674,0.0,0.0,0.0,2.708841968065519,0.0,0.0,0.0,0.0,0.0,0.0,0.0,0.0,0.0,0.0,0.0,0.0,0.0,0.0,
0.1896,2.7036745589390057,2.8348683655935027,2.588381563266328,0.0,0.0,0.0,2.7089748292662787,0.0,0.0,0.0,0.0,0.0,0.0,0.0,0.0,0.0,0.0,0.0,0.0,0.0,0.0,
0.2054,2.7038139257234493,2.8350281729717226,2.588515737517744,0.0,0.0,0.0,2.7091192787376386,0.0,0.0,0.0,0.0,0.0,0.0,0.0,0.0,0.0,0.0,0.0,0.0,0.0,0.0,
0.2212,2.7039644802041995,2.8352008114624776,2.588660684170498,0.0,0.0,0.0,2.7092753252790587,0.0,0.0,0.0,0.0,0.0,0.0,0.0,0.0,0.0,0.0,0.0,0.0,0.0,0.0,
0.237,2.7041262312536265,2.8353862918291655,2.5888164121216275,0.0,0.0,0.0,2.709442978401473,0.0,0.0,0.0,0.0,0.0,0.0,0.0,0.0,0.0,0.0,0.0,0.0,0.0,0.0,
0.2528,2.704299188409339,2.8355846256427135,2.5889829309351784,0.0,0.0,0.0,2.7096222483290773,0.0,0.0,0.0,0.0,0.0,0.0,0.0,0.0,0.0,0.0,0.0,0.0,0.0,0.0,
0.2686,2.704483361875849,2.835795825283735,2.5891602508438245,0.0,0.0,0.0,2.7098131460011365,0.0,0.0,0.0,0.0,0.0,0.0,0.0,0.0,0.0,0.0,0.0,0.0,0.0,0.0,
0.2844,2.704678762526453,2.8360199039449188,2.5893483827508526,0.0,0.0,0.0,2.7100156830740745,0.0,0.0,0.0,0.0,0.0,0.0,0.0,0.0,0.0,0.0,0.0,0.0,0.0,0.0,
0.3002,2.7048854019052073,2.8362568756335422,2.589547338231947,0.0,0.0,0.0,2.710229871923566,0.0,0.0,0.0,0.0,0.0,0.0,0.0,0.0,0.0,0.0,0.0,0.0,0.0,0.0,
0.316,2.705103292229037,2.8365067551741,2.5897571295373587,0.0,0.0,0.0,2.7104557256468316,0.0,0.0,0.0,0.0,0.0,0.0,0.0,0.0,0.0,0.0,0.0,0.0,0.0,0.0,
0.3318,2.705332446389906,2.836769558211227,2.589977769594142,0.0,0.0,0.0,2.710693258065092,0.0,0.0,0.0,0.0,0.0,0.0,0.0,0.0,0.0,0.0,0.0,0.0,0.0,0.0,
0.3475,2.7055713207468917,2.837043515277965,2.5902077726166954,0.0,0.0,0.0,2.710940869547184,0.0,0.0,0.0,0.0,0.0,0.0,0.0,0.0,0.0,0.0,0.0,0.0,0.0,0.0,
0.3633,2.705822972457496,2.8373321334734682,2.590450082790071,0.0,0.0,0.0,2.7112017295736783,0.0,0.0,0.0,0.0,0.0,0.0,0.0,0.0,0.0,0.0,0.0,0.0,0.0,0.0,
0.3791,2.7060859306589133,2.837633726933361,2.5907032844832885,0.0,0.0,0.0,2.7114743140251876,0.0,0.0,0.0,0.0,0.0,0.0,0.0,0.0,0.0,0.0,0.0,0.0,0.0,0.0,
0.3949,2.7063602109637475,2.8379483146089024,2.590967393350504,0.0,0.0,0.0,2.711758639641051,0.0,0.0,0.0,0.0,0.0,0.0,0.0,0.0,0.0,0.0,0.0,0.0,0.0,0.0,
0.4107,2.7066458296726807,2.8382759162880498,2.5912424257354805,0.0,0.0,0.0,2.7120547238987367,0.0,0.0,0.0,0.0,0.0,0.0,0.0,0.0,0.0,0.0,0.0,0.0,0.0,0.0,
0.4265,2.706942803777403,2.8386165525992175,2.5915283986745554,0.0,0.0,0.0,2.712362585017059,0.0,0.0,0.0,0.0,0.0,0.0,0.0,0.0,0.0,0.0,0.0,0.0,0.0,0.0,
0.4423,2.7072511509637804,2.8389702450153482,2.5918253298997183,0.0,0.0,0.0,2.712682241959616,0.0,0.0,0.0,0.0,0.0,0.0,0.0,0.0,0.0,0.0,0.0,0.0,0.0,0.0,
0.4581,2.7075708896150488,2.8393370158579856,2.5921332378418196,0.0,0.0,0.0,2.7130137144382847,0.0,0.0,0.0,0.0,0.0,0.0,0.0,0.0,0.0,0.0,0.0,0.0,0.0,0.0,
0.4739,2.70790203881526,2.839716888301677,2.5924521416339554,0.0,0.0,0.0,2.713357022916964,0.0,0.0,0.0,0.0,0.0,0.0,0.0,0.0,0.0,0.0,0.0,0.0,0.0,0.0,
0.4897,2.708244618352768,2.840109886378391,2.5927820611149173,0.0,0.0,0.0,2.713712188615359,0.0,0.0,0.0,0.0,0.0,0.0,0.0,0.0,0.0,0.0,0.0,0.0,0.0,0.0,
0.5055,2.7085986487239,2.840516034982307,2.593123016832833,0.0,0.0,0.0,2.7140792335130137,0.0,0.0,0.0,0.0,0.0,0.0,0.0,0.0,0.0,0.0,0.0,0.0,0.0,0.0,
0.5213,2.708964151136752,2.840935359874594,2.5934750300489133,0.0,0.0,0.0,2.71445818035342,0.0,0.0,0.0,0.0,0.0,0.0,0.0,0.0,0.0,0.0,0.0,0.0,0.0,0.0,
0.5371,2.709341147515093,2.8413678876884574,2.593838122741334,0.0,0.0,0.0,2.7148490526482942,0.0,0.0,0.0,0.0,0.0,0.0,0.0,0.0,0.0,0.0,0.0,0.0,0.0,0.0,
0.5529,2.709729660502515,2.841813645934402,2.5942123176092724,0.0,0.0,0.0,2.7152518746820635,0.0,0.0,0.0,0.0,0.0,0.0,0.0,0.0,0.0,0.0,0.0,0.0,0.0,0.0,
0.5687,2.7101297134665936,2.8422726630055917,2.594597638077113,0.0,0.0,0.0,2.715666671516433,0.0,0.0,0.0,0.0,0.0,0.0,0.0,0.0,0.0,0.0,0.0,0.0,0.0,0.0,
0.5845,2.7105413305032693,2.8427449681834736,2.594994108298703,0.0,0.0,0.0,2.716093468995149,0.0,0.0,0.0,0.0,0.0,0.0,0.0,0.0,0.0,0.0,0.0,0.0,0.0,0.0,
0.6003,2.7109645364413897,2.8432305916435396,2.595401753161867,0.0,0.0,0.0,2.7165322937489322,0.0,0.0,0.0,0.0,0.0,0.0,0.0,0.0,0.0,0.0,0.0,0.0,0.0,0.0,
0.6161,2.7113993568473376,2.843729564461314,2.595820598292957,0.0,0.0,0.0,2.716983173200536,0.0,0.0,0.0,0.0,0.0,0.0,0.0,0.0,0.0,0.0,0.0,0.0,0.0,0.0,
0.6319,2.711845818029839,2.844241918618503,2.596250670061655,0.0,0.0,0.0,2.717446135569999,0.0,0.0,0.0,0.0,0.0,0.0,0.0,0.0,0.0,0.0,0.0,0.0,0.0,0.0,
0.6477,2.7123039470449726,2.8447676870093788,2.5966919955858243,0.0,0.0,0.0,2.7179212098800583,0.0,0.0,0.0,0.0,0.0,0.0,0.0,0.0,0.0,0.0,0.0,0.0,0.0,0.0,
0.6635,2.712773771701246,2.845306903447322,2.597144602736589,0.0,0.0,0.0,2.7184084259617194,0.0,0.0,0.0,0.0,0.0,0.0,0.0,0.0,0.0,0.0,0.0,0.0,0.0,0.0,
0.6793,2.71325532056489,2.8458596026716236,2.597608520143538,0.0,0.0,0.0,2.7189078144600174,0.0,0.0,0.0,0.0,0.0,0.0,0.0,0.0,0.0,0.0,0.0,0.0,0.0,0.0,
0.6951,2.713748622965312,2.8464258203543995,2.598083777200072,0.0,0.0,0.0,2.7194194068399278,0.0,0.0,0.0,0.0,0.0,0.0,0.0,0.0,0.0,0.0,0.0,0.0,0.0,0.0,
0.7109,2.7142537090006464,2.8470055931078084,2.598570404068897,0.0,0.0,0.0,2.7199432353924506,0.0,0.0,0.0,0.0,0.0,0.0,0.0,0.0,0.0,0.0,0.0,0.0,0.0,0.0,
0.7267,2.714770609543544,2.847598958491458,2.599068431687739,0.0,0.0,0.0,2.7204793332409136,0.0,0.0,0.0,0.0,0.0,0.0,0.0,0.0,0.0,0.0,0.0,0.0,0.0,0.0,
0.7425,2.715299356247118,2.848205955019939,2.5995778917751515,0.0,0.0,0.0,2.721027734347403,0.0,0.0,0.0,0.0,0.0,0.0,0.0,0.0,0.0,0.0,0.0,0.0,0.0,0.0,
0.7583,2.715839981550986,2.8488266221707574,2.6000988168365193,0.0,0.0,0.0,2.721588473519421,0.0,0.0,0.0,0.0,0.0,0.0,0.0,0.0,0.0,0.0,0.0,0.0,0.0,0.0,
0.7741,2.7163925186875684,2.8494610003922443,2.6006312401702267,0.0,0.0,0.0,2.72216158641668,0.0,0.0,0.0,0.0,0.0,0.0,0.0,0.0,0.0,0.0,0.0,0.0,0.0,0.0,
0.7899,2.716957001688529,2.8501091311119744,2.6011751958739575,0.0,0.0,0.0,2.722747109558154,0.0,0.0,0.0,0.0,0.0,0.0,0.0,0.0,0.0,0.0,0.0,0.0,0.0,0.0,
0.8057,2.717533465391369,2.8507710567451454,2.6017307188512504,0.0,0.0,0.0,2.723345080329255,0.0,0.0,0.0,0.0,0.0,0.0,0.0,0.0,0.0,0.0,0.0,0.0,0.0,0.0,
0.8215,2.7181219454462484,2.8514468207033326,2.6022978448181133,0.0,0.0,0.0,2.7239555369892314,0.0,0.0,0.0,0.0,0.0,0.0,0.0,0.0,0.0,0.0,0.0,0.0,0.0,0.0,
0.8373,2.7187224783229067,2.852136467403512,2.6028766103099468,0.0,0.0,0.0,2.7245785186787885,0.0,0.0,0.0,0.0,0.0,0.0,0.0,0.0,0.0,0.0,0.0,0.0,0.0,0.0,
0.8531,2.719335101317914,2.8528400422772116,2.6034670526884787,0.0,0.0,0.0,2.7252140654278683,0.0,0.0,0.0,0.0,0.0,0.0,0.0,0.0,0.0,0.0,0.0,0.0,0.0,0.0,
0.8689,2.719959852561921,2.8535575917799907,2.604069210149052,0.0,0.0,0.0,2.725862218163654,0.0,0.0,0.0,0.0,0.0,0.0,0.0,0.0,0.0,0.0,0.0,0.0,0.0,0.0,
0.8847,2.720596771027246,2.854289163401112,2.604683121727997,0.0,0.0,0.0,2.726523018718785,0.0,0.0,0.0,0.0,0.0,0.0,0.0,0.0,0.0,0.0,0.0,0.0,0.0,0.0,
0.9005,2.721245896535626,2.8550348056735233,2.60530882731019,0.0,0.0,0.0,2.72719650983978,0.0,0.0,0.0,0.0,0.0,0.0,0.0,0.0,0.0,0.0,0.0,0.0,0.0,0.0,
0.9163,2.7219072697661124,2.855794568184085,2.6059463676368537,0.0,0.0,0.0,2.7278827351956836,0.0,0.0,0.0,0.0,0.0,0.0,0.0,0.0,0.0,0.0,0.0,0.0,0.0,0.0,
0.9321,2.7225809322632353,2.856568501584017,2.6065957843135115,0.0,0.0,0.0,2.7285817393869216,0.0,0.0,0.0,0.0,0.0,0.0,0.0,0.0,0.0,0.0,0.0,0.0,0.0,0.0,
0.9479,2.7232669264453016,2.8573566575995892,2.6072571198181134,0.0,0.0,0.0,2.729293567954335,0.0,0.0,0.0,0.0,0.0,0.0,0.0,0.0,0.0,0.0,0.0,0.0,0.0,0.0,
0.9637,2.723965295612988,2.8581590890432853,2.607930417509471,0.0,0.0,0.0,2.7300182673885813,0.0,0.0,0.0,0.0,0.0,0.0,0.0,0.0,0.0,0.0,0.0,0.0,0.0,0.0,
0.9795,2.7246760839580677,2.8589758498249394,2.608615721635754,0.0,0.0,0.0,2.730755885139587,0.0,0.0,0.0,0.0,0.0,0.0,0.0,0.0,0.0,0.0,0.0,0.0,0.0,0.0,
0.9953,2.725399336572396,2.8598069949634026,2.6093130773432978,0.0,0.0,0.0,2.731506469626366,0.0,0.0,0.0,0.0,0.0,0.0,0.0,0.0,0.0,0.0,0.0,0.0,0.0,0.0,
1.0111,2.7261350994571285,2.860652580598365,2.610022530685585,0.0,0.0,0.0,2.732270070247026,0.0,0.0,0.0,0.0,0.0,0.0,0.0,0.0,0.0,0.0,0.0,0.0,0.0,0.0,
1.0268,2.726878643743161,2.8615071747265963,2.610739523268139,0.0,0.0,0.0,2.733041780579299,0.0,0.0,0.0,0.0,0.0,0.0,0.0,0.0,0.0,0.0,0.0,0.0,0.0,0.0,
1.0426,2.7276394889254356,2.862381722004362,2.6114732363947644,0.0,0.0,0.0,2.7338314824415213,0.0,0.0,0.0,0.0,0.0,0.0,0.0,0.0,0.0,0.0,0.0,0.0,0.0,0.0,
1.0584,2.7284129876208603,2.863270884665253,2.61221919054039,0.0,0.0,0.0,2.734634354275501,0.0,0.0,0.0,0.0,0.0,0.0,0.0,0.0,0.0,0.0,0.0,0.0,0.0,0.0,
1.0742,2.7291991895582033,2.8641747234495916,2.612977435475175,0.0,0.0,0.0,2.7354504494943233,0.0,0.0,0.0,0.0,0.0,0.0,0.0,0.0,0.0,0.0,0.0,0.0,0.0,0.0,
1.09,2.7299981454248856,2.8650933002823145,2.6137480219245512,0.0,0.0,0.0,2.736279822543917,0.0,0.0,0.0,0.0,0.0,0.0,0.0,0.0,0.0,0.0,0.0,0.0,0.0,0.0,
1.1058,2.73080990687763,2.866026678286695,2.614531001579553,0.0,0.0,0.0,2.7371225289146266,0.0,0.0,0.0,0.0,0.0,0.0,0.0,0.0,0.0,0.0,0.0,0.0,0.0,0.0,
1.1216,2.731634526553265,2.866974921798482,2.6153264271073704,0.0,0.0,0.0,2.737978625153039,0.0,0.0,0.0,0.0,0.0,0.0,0.0,0.0,0.0,0.0,0.0,0.0,0.0,0.0,
1.1374,2.732472058079906,2.867938096380133,2.6161343521621583,0.0,0.0,0.0,2.738848168874066,0.0,0.0,0.0,0.0,0.0,0.0,0.0,0.0,0.0,0.0,0.0,0.0,0.0,0.0,
1.1532,2.7333225560883303,2.8689162688357004,2.6169548313961175,0.0,0.0,0.0,2.739731218773383,0.0,0.0,0.0,0.0,0.0,0.0,0.0,0.0,0.0,0.0,0.0,0.0,0.0,0.0,
1.169,2.734186076223586,2.8699095072258483,2.6177879204707564,0.0,0.0,0.0,2.740627834640063,0.0,0.0,0.0,0.0,0.0,0.0,0.0,0.0,0.0,0.0,0.0,0.0,0.0,0.0,
1.1848,2.735062675156972,2.870917880883332,2.6186336760685003,0.0,0.0,0.0,2.741538077369601,0.0,0.0,0.0,0.0,0.0,0.0,0.0,0.0,0.0,0.0,0.0,0.0,0.0,0.0,
1.2006,2.7359524105982373,2.871941460428828,2.6194921559045294,0.0,0.0,0.0,2.742462008977198,0.0,0.0,0.0,0.0,0.0,0.0,0.0,0.0,0.0,0.0,0.0,0.0,0.0,0.0,
1.2164,2.736855341308061,2.8729803177870887,2.6203634187387994,0.0,0.0,0.0,2.7433996926113164,0.0,0.0,0.0,0.0,0.0,0.0,0.0,0.0,0.0,0.0,0.0,0.0,0.0,0.0,
1.2322,2.7377715271108722,2.874034526203638,2.621247524388531,0.0,0.0,0.0,2.7443511925676805,0.0,0.0,0.0,0.0,0.0,0.0,0.0,0.0,0.0,0.0,0.0,0.0,0.0,0.0,
1.248,2.7387010289078932,2.8751041602616025,2.6221445337407516,0.0,0.0,0.0,2.745316574303416,0.0,0.0,0.0,0.0,0.0,0.0,0.0,0.0,0.0,0.0,0.0,0.0,0.0,0.0,
1.2638,2.739643908690563,2.876189295899236,2.623054508765324,0.0,0.0,0.0,2.7462959044517077,0.0,0.0,0.0,0.0,0.0,0.0,0.0,0.0,0.0,0.0,0.0,0.0,0.0,0.0,
1.2796,2.7406002295542633,2.8772900104276498,2.623977512528092,0.0,0.0,0.0,2.7472892508366678,0.0,0.0,0.0,0.0,0.0,0.0,0.0,0.0,0.0,0.0,0.0,0.0,0.0,0.0,
1.2954,2.741570055712261,2.878406382549035,2.624913609204474,0.0,0.0,0.0,2.74829668248859,0.0,0.0,0.0,0.0,0.0,0.0,0.0,0.0,0.0,0.0,0.0,0.0,0.0,0.0,
1.3112,2.742553452510175,2.879538492375378,2.625862864093251,0.0,0.0,0.0,2.7493182696596015,0.0,0.0,0.0,0.0,0.0,0.0,0.0,0.0,0.0,0.0,0.0,0.0,0.0,0.0,
1.327,2.743550486440573,2.8806864214474635,2.626825343630717,0.0,0.0,0.0,2.7503540838395844,0.0,0.0,0.0,0.0,0.0,0.0,0.0,0.0,0.0,0.0,0.0,0.0,0.0,0.0,
1.3428,2.7445612251580225,2.881850252754494,2.6278011154051377,0.0,0.0,0.0,2.751404197772551,0.0,0.0,0.0,0.0,0.0,0.0,0.0,0.0,0.0,0.0,0.0,0.0,0.0,0.0,
1.3586,2.745585737494479,2.8830300707541108,2.628790248171496,0.0,0.0,0.0,2.752468685473362,0.0,0.0,0.0,0.0,0.0,0.0,0.0,0.0,0.0,0.0,0.0,0.0,0.0,0.0,
1.3744,2.7466240934749973,2.8842259613928345,2.6297928118666567,0.0,0.0,0.0,2.7535476222448296,0.0,0.0,0.0,0.0,0.0,0.0,0.0,0.0,0.0,0.0,0.0,0.0,0.0,0.0,
1.3902,2.7476763643338744,2.885438012127077,2.6308088776247303,0.0,0.0,0.0,2.7546410846952276,0.0,0.0,0.0,0.0,0.0,0.0,0.0,0.0,0.0,0.0,0.0,0.0,0.0,0.0,
1.406,2.7487426225310223,2.886666311944599,2.631838517792968,0.0,0.0,0.0,2.7557491507561966,0.0,0.0,0.0,0.0,0.0,0.0,0.0,0.0,0.0,0.0,0.0,0.0,0.0,0.0,
1.4218,2.749822941768972,2.8879109513865044,2.632881805947765,0.0,0.0,0.0,2.7568718997010806,0.0,0.0,0.0,0.0,0.0,0.0,0.0,0.0,0.0,0.0,0.0,0.0,0.0,0.0,
1.4376,2.750917397009978,2.889172022569756,2.633938816911293,0.0,0.0,0.0,2.7580094121636756,0.0,0.0,0.0,0.0,0.0,0.0,0.0,0.0,0.0,0.0,0.0,0.0,0.0,0.0,
1.4534,2.752026064493762,2.8904496192101847,2.63500962676827,0.0,0.0,0.0,2.7591617701574056,0.0,0.0,0.0,0.0,0.0,0.0,0.0,0.0,0.0,0.0,0.0,0.0,0.0,0.0,
1.4692,2.753149021755549,2.891743836646113,2.6360943128832446,0.0,0.0,0.0,2.760329057094969,0.0,0.0,0.0,0.0,0.0,0.0,0.0,0.0,0.0,0.0,0.0,0.0,0.0,0.0,
1.485,2.7542863476445385,2.8930547718625226,2.6371929539182553,0.0,0.0,0.0,2.761511357808439,0.0,0.0,0.0,0.0,0.0,0.0,0.0,0.0,0.0,0.0,0.0,0.0,0.0,0.0,
1.5008,2.7554381223428095,2.894382523515726,2.6383056298507332,0.0,0.0,0.0,2.7627087585697563,0.0,0.0,0.0,0.0,0.0,0.0,0.0,0.0,0.0,0.0,0.0,0.0,0.0,0.0,
1.5166,2.756604427384744,2.8957271919587653,2.639432421992094,0.0,0.0,0.0,2.763921347111868,0.0,0.0,0.0,0.0,0.0,0.0,0.0,0.0,0.0,0.0,0.0,0.0,0.0,0.0,
1.5324,2.757785345676753,2.8970888792673,2.640573413006422,0.0,0.0,0.0,2.765149212650158,0.0,0.0,0.0,0.0,0.0,0.0,0.0,0.0,0.0,0.0,0.0,0.0,0.0,0.0,
1.5482,2.7589809615176066,2.8984676892661567,2.641728686929806,0.0,0.0,0.0,2.7663924459045233,0.0,0.0,0.0,0.0,0.0,0.0,0.0,0.0,0.0,0.0,0.0,0.0,0.0,0.0,
1.564,2.760191360619198,2.8998637275565695,2.6428983291900057,0.0,0.0,0.0,2.767651139121924,0.0,0.0,0.0,0.0,0.0,0.0,0.0,0.0,0.0,0.0,0.0,0.0,0.0,0.0,
1.5798,2.7614166301277256,2.901277101543964,2.6440824266265697,0.0,0.0,0.0,2.76892538609942,0.0,0.0,0.0,0.0,0.0,0.0,0.0,0.0,0.0,0.0,0.0,0.0,0.0,0.0,
1.5956,2.762656858645502,2.902707920466548,2.6452810675113962,0.0,0.0,0.0,2.770215282207815,0.0,0.0,0.0,0.0,0.0,0.0,0.0,0.0,0.0,0.0,0.0,0.0,0.0,0.0,
1.6114,2.7639121362531958,2.904156295424479,2.6464943415698583,0.0,0.0,0.0,2.7715209244158445,0.0,0.0,0.0,0.0,0.0,0.0,0.0,0.0,0.0,0.0,0.0,0.0,0.0,0.0,
1.6272,2.7651825545326068,2.9056223394098093,2.6477223400021854,0.0,0.0,0.0,2.772842411314867,0.0,0.0,0.0,0.0,0.0,0.0,0.0,0.0,0.0,0.0,0.0,0.0,0.0,0.0,
1.643,2.766468206589999,2.907106167337106,2.6489651555055653,0.0,0.0,0.0,2.7741798431442235,0.0,0.0,0.0,0.0,0.0,0.0,0.0,0.0,0.0,0.0,0.0,0.0,0.0,0.0,
1.6588,2.7677691870799963,2.908607896074913,2.6502228822965863,0.0,0.0,0.0,2.7755333218171656,0.0,0.0,0.0,0.0,0.0,0.0,0.0,0.0,0.0,0.0,0.0,0.0,0.0,0.0,
1.6746,2.7690855922300277,2.910127644477853,2.651495616134257,0.0,0.0,0.0,2.7769029509473793,0.0,0.0,0.0,0.0,0.0,0.0,0.0,0.0,0.0,0.0,0.0,0.0,0.0,0.0,
1.6904,2.77041751986538,2.911665533419641,2.652783454343504,0.0,0.0,0.0,2.7782888358761753,0.0,0.0,0.0,0.0,0.0,0.0,0.0,0.0,0.0,0.0,0.0,0.0,0.0,0.0,
1.7061,2.7717564913060837,2.9132117790708296,2.654078200724828,0.0,0.0,0.0,2.779682157033914,0.0,0.0,0.0,0.0,0.0,0.0,0.0,0.0,0.0,0.0,0.0,0.0,0.0,0.0,
1.7219,2.773119664073885,2.9147862031770524,2.655396448857522,0.0,0.0,0.0,2.781100772036153,0.0,0.0,0.0,0.0,0.0,0.0,0.0,0.0,0.0,0.0,0.0,0.0,0.0,0.0,
1.7377,2.7744986619937206,2.9163791420881306,2.656730102323692,0.0,0.0,0.0,2.7825359688018474,0.0,0.0,0.0,0.0,0.0,0.0,0.0,0.0,0.0,0.0,0.0,0.0,0.0,0.0,
1.7535,2.7758935895340793,2.917990725086381,2.658079264947472,0.0,0.0,0.0,2.7839878598559777,0.0,0.0,0.0,0.0,0.0,0.0,0.0,0.0,0.0,0.0,0.0,0.0,0.0,0.0,
1.7693,2.777304552895732,2.919621083650452,2.6594440422446715,0.0,0.0,0.0,2.785456559596952,0.0,0.0,0.0,0.0,0.0,0.0,0.0,0.0,0.0,0.0,0.0,0.0,0.0,0.0,
1.7851,2.778731660040593,2.9212703514933454,2.66082454144962,0.0,0.0,0.0,2.7869421843278523,0.0,0.0,0.0,0.0,0.0,0.0,0.0,0.0,0.0,0.0,0.0,0.0,0.0,0.0,
1.8009,2.780175020721283,2.922938664601678,2.6622208715427917,0.0,0.0,0.0,2.7884448522885843,0.0,0.0,0.0,0.0,0.0,0.0,0.0,0.0,0.0,0.0,0.0,0.0,0.0,0.0,
1.8167,2.7816347465115747,2.924626161275734,2.6636331432789677,0.0,0.0,0.0,2.789964683688759,0.0,0.0,0.0,0.0,0.0,0.0,0.0,0.0,0.0,0.0,0.0,0.0,0.0,0.0,
1.8325,2.7831109508373766,2.9263329821706123,2.665061469215967,0.0,0.0,0.0,2.791501800741319,0.0,0.0,0.0,0.0,0.0,0.0,0.0,0.0,0.0,0.0,0.0,0.0,0.0,0.0,
1.8483,2.784603749008671,2.928059270338415,2.666505963744311,0.0,0.0,0.0,2.793056327697132,0.0,0.0,0.0,0.0,0.0,0.0,0.0,0.0,0.0,0.0,0.0,0.0,0.0,0.0,
1.8641,2.7861132582520485,2.929805171271494,2.6679667431172676,0.0,0.0,0.0,2.79462839088027,0.0,0.0,0.0,0.0,0.0,0.0,0.0,0.0,0.0,0.0,0.0,0.0,0.0,0.0,
1.8799,2.787639597744315,2.931570832946784,2.669443925481763,0.0,0.0,0.0,2.7962181187242874,0.0,0.0,0.0,0.0,0.0,0.0,0.0,0.0,0.0,0.0,0.0,0.0,0.0,0.0,
1.8957,2.789182888646641,2.933356405871365,2.670937630910058,0.0,0.0,0.0,2.797825641809355,0.0,0.0,0.0,0.0,0.0,0.0,0.0,0.0,0.0,0.0,0.0,0.0,0.0,0.0,
1.9115,2.7907432541398656,2.9351620431290657,2.672447981431988,0.0,0.0,0.0,2.799451092900307,0.0,0.0,0.0,0.0,0.0,0.0,0.0,0.0,0.0,0.0,0.0,0.0,0.0,0.0,
1.9273,2.7923208194603815,2.936987900428405,2.6739751010681503,0.0,0.0,0.0,2.8010946069856453,0.0,0.0,0.0,0.0,0.0,0.0,0.0,0.0,0.0,0.0,0.0,0.0,0.0,0.0,
1.9431,2.793915711937281,2.938834136151645,2.67551911586376,0.0,0.0,0.0,2.802756321317562,0.0,0.0,0.0,0.0,0.0,0.0,0.0,0.0,0.0,0.0,0.0,0.0,0.0,0.0,
1.9589,2.7955280610300717,2.9407009114052998,2.677080153923317,0.0,0.0,0.0,2.8044363754528963,0.0,0.0,0.0,0.0,0.0,0.0,0.0,0.0,0.0,0.0,0.0,0.0,0.0,0.0,
1.9747,2.797157998367691,2.9425883900717587,2.6786583454461774,0.0,0.0,0.0,2.8061349112952088,0.0,0.0,0.0,0.0,0.0,0.0,0.0,0.0,0.0,0.0,0.0,0.0,0.0,0.0,
1.9905,2.7988056577882854,2.9444967388624943,2.680253822762862,0.0,0.0,0.0,2.80785207313788,0.0,0.0,0.0,0.0,0.0,0.0,0.0,0.0,0.0,0.0,0.0,0.0,0.0,0.0,
2.0063,2.8004711753801583,2.9464261273724457,2.681866720372276,0.0,0.0,0.0,2.8095880077082938,0.0,0.0,0.0,0.0,0.0,0.0,0.0,0.0,0.0,0.0,0.0,0.0,0.0,0.0,
2.0221,2.8021546895236558,2.948376728136087,2.6834971749798875,0.0,0.0,0.0,2.8113428642132106,0.0,0.0,0.0,0.0,0.0,0.0,0.0,0.0,0.0,0.0,0.0,0.0,0.0,0.0,
2.0379,2.803856340934312,2.9503487166847853,2.685145325536711,0.0,0.0,0.0,2.8131167943852695,0.0,0.0,0.0,0.0,0.0,0.0,0.0,0.0,0.0,0.0,0.0,0.0,0.0,0.0,
2.0537,2.805576272706931,2.9523422716058287,2.686811313279295,0.0,0.0,0.0,2.814909952530685,0.0,0.0,0.0,0.0,0.0,0.0,0.0,0.0,0.0,0.0,0.0,0.0,0.0,0.0,
