energies(eV),real_xx,real_yy,real_zz,real_xy,real_yz,real_xz,real_ave,imag_xx,imag_yy,imag_zz,imag_xy,imag_yz,imag_xz,imag_ave,absorption_xx,absorption_yy,absorption_zz,absorption_xy,absorption_yz,absorption_xz,absorption_ave,band_gap
0.0,3.484580133561076,3.6654227691301897,4.507349579956092,0.0,0.0,0.0,3.885784160882453,0.0,0.0,0.0,0.0,0.0,0.0,0.0,0.0,0.0,0.0,0.0,0.0,0.0,0.0,3.8027
0.0156,3.484587605707686,3.665431023209693,4.507366061593752,0.0,0.0,0.0,3.885794896837044,0.0,0.0,0.0,0.0,0.0,0.0,0.0,0.0,0.0,0.0,0.0,0.0,0.0,0.0,
0.0313,3.484610214459642,3.6654559978892536,4.5074159311202715,0.0,0.0,0.0,3.885827381156389,0.0,0.0,0.0,0.0,0.0,0.0,0.0,0.0,0.0,0.0,0.0,0.0,0.0,0.0,
0.0469,3.4846476730329594,3.6654973763866185,4.507498557216186,0.0,0.0,0.0,3.8858812022119213,0.0,0.0,0.0,0.0,0.0,0.0,0.0,0.0,0.0,0.0,0.0,0.0,0.0,0.0,
0.0626,3.4847004637270382,3.665555691493456,4.507615005852644,0.0,0.0,0.0,3.885957053691046,0.0,0.0,0.0,0.0,0.0,0.0,0.0,0.0,0.0,0.0,0.0,0.0,0.0,0.0,
0.0782,3.4847679169112733,3.665630203533405,4.5077638028593885,0.0,0.0,0.0,3.8860539744346894,0.0,0.0,0.0,0.0,0.0,0.0,0.0,0.0,0.0,0.0,0.0,0.0,0.0,0.0,
0.0939,3.484850901082904,3.6657218719285303,4.507946867892224,0.0,0.0,0.0,3.886173213634553,0.0,0.0,0.0,0.0,0.0,0.0,0.0,0.0,0.0,0.0,0.0,0.0,0.0,0.0,
0.1095,3.4849483636196874,3.6658295339467806,4.50816188346347,0.0,0.0,0.0,3.8863132603433126,0.0,0.0,0.0,0.0,0.0,0.0,0.0,0.0,0.0,0.0,0.0,0.0,0.0,0.0,
0.1252,3.4850615594082126,3.6659545758540326,4.508411623535506,0.0,0.0,0.0,3.8864759195992504,0.0,0.0,0.0,0.0,0.0,0.0,0.0,0.0,0.0,0.0,0.0,0.0,0.0,0.0,
0.1408,3.485189052606642,3.666095411608309,4.508692926569579,0.0,0.0,0.0,3.88665913026151,0.0,0.0,0.0,0.0,0.0,0.0,0.0,0.0,0.0,0.0,0.0,0.0,0.0,0.0,
0.1564,3.4853315231666144,3.6662527923898325,4.509007299794607,0.0,0.0,0.0,3.8868638717836848,0.0,0.0,0.0,0.0,0.0,0.0,0.0,0.0,0.0,0.0,0.0,0.0,0.0,0.0,
0.1721,3.485490036518987,3.6664278952141687,4.509357102436979,0.0,0.0,0.0,3.8870916780567115,0.0,0.0,0.0,0.0,0.0,0.0,0.0,0.0,0.0,0.0,0.0,0.0,0.0,0.0,
0.1877,3.485662581996251,3.6666184990723054,4.509737906271392,0.0,0.0,0.0,3.8873396624466494,0.0,0.0,0.0,0.0,0.0,0.0,0.0,0.0,0.0,0.0,0.0,0.0,0.0,0.0,
0.2034,3.4858513812378815,3.6668270582148708,4.5101546241990595,0.0,0.0,0.0,3.8876110212172708,0.0,0.0,0.0,0.0,0.0,0.0,0.0,0.0,0.0,0.0,0.0,0.0,0.0,0.0,
0.219,3.4860540394232,3.6670509272819767,4.51060198093791,0.0,0.0,0.0,3.887902315881029,0.0,0.0,0.0,0.0,0.0,0.0,0.0,0.0,0.0,0.0,0.0,0.0,0.0,0.0,
0.2347,3.4862731659239294,3.6672929888651127,4.511085748059385,0.0,0.0,0.0,3.8882173009494756,0.0,0.0,0.0,0.0,0.0,0.0,0.0,0.0,0.0,0.0,0.0,0.0,0.0,0.0,
0.2503,3.4865059812462396,3.6675501726736752,4.511599801549387,0.0,0.0,0.0,3.888551985156434,0.0,0.0,0.0,0.0,0.0,0.0,0.0,0.0,0.0,0.0,0.0,0.0,0.0,0.0,
0.266,3.486755483071383,3.667825790283561,4.512150773527242,0.0,0.0,0.0,3.8889106822940622,0.0,0.0,0.0,0.0,0.0,0.0,0.0,0.0,0.0,0.0,0.0,0.0,0.0,0.0,
0.2816,3.4870185066282833,3.6681163457999713,4.512731689299463,0.0,0.0,0.0,3.889288847242573,0.0,0.0,0.0,0.0,0.0,0.0,0.0,0.0,0.0,0.0,0.0,0.0,0.0,0.0,
0.2973,3.4872984385716643,3.6684255805232007,4.513350043693981,0.0,0.0,0.0,3.8896913542629488,0.0,0.0,0.0,0.0,0.0,0.0,0.0,0.0,0.0,0.0,0.0,0.0,0.0,0.0,
0.3129,3.4875917281645297,3.6687495721864147,4.513998009116694,0.0,0.0,0.0,3.8901131031558798,0.0,0.0,0.0,0.0,0.0,0.0,0.0,0.0,0.0,0.0,0.0,0.0,0.0,0.0,
0.3285,3.4879001261057163,3.669090254908021,4.514679469057989,0.0,0.0,0.0,3.8905566166905756,0.0,0.0,0.0,0.0,0.0,0.0,0.0,0.0,0.0,0.0,0.0,0.0,0.0,0.0,
0.3442,3.488225771959967,3.669449992417258,4.5153991700021905,0.0,0.0,0.0,3.8910249781264716,0.0,0.0,0.0,0.0,0.0,0.0,0.0,0.0,0.0,0.0,0.0,0.0,0.0,0.0,
0.3598,3.488564535183241,3.6698242219259796,4.516148001606481,0.0,0.0,0.0,3.8915122529052337,0.0,0.0,0.0,0.0,0.0,0.0,0.0,0.0,0.0,0.0,0.0,0.0,0.0,0.0,
0.3755,3.488920777716412,3.670217762231405,4.51693562540914,0.0,0.0,0.0,3.8920247217856523,0.0,0.0,0.0,0.0,0.0,0.0,0.0,0.0,0.0,0.0,0.0,0.0,0.0,0.0,
0.3911,3.489289980956299,3.670625621839521,4.517752071406834,0.0,0.0,0.0,3.892555891400885,0.0,0.0,0.0,0.0,0.0,0.0,0.0,0.0,0.0,0.0,0.0,0.0,0.0,0.0,
0.4068,3.4896768988291327,3.671053052629277,4.518607873664908,0.0,0.0,0.0,3.893112608374439,0.0,0.0,0.0,0.0,0.0,0.0,0.0,0.0,0.0,0.0,0.0,0.0,0.0,0.0,
0.4224,3.4900766236841436,3.671494633298669,4.519492199322843,0.0,0.0,0.0,3.8936878187685515,0.0,0.0,0.0,0.0,0.0,0.0,0.0,0.0,0.0,0.0,0.0,0.0,0.0,0.0,
0.4381,3.4904943024933566,3.6719560499903148,4.520416458436488,0.0,0.0,0.0,3.894288936973387,0.0,0.0,0.0,0.0,0.0,0.0,0.0,0.0,0.0,0.0,0.0,0.0,0.0,0.0,
0.4537,3.4909246374827343,3.6724314503950515,4.521368951806284,0.0,0.0,0.0,3.8949083465613565,0.0,0.0,0.0,0.0,0.0,0.0,0.0,0.0,0.0,0.0,0.0,0.0,0.0,0.0,
0.4693,3.4913702638635615,3.6729237459042743,4.5223555348560085,0.0,0.0,0.0,3.895549848207948,0.0,0.0,0.0,0.0,0.0,0.0,0.0,0.0,0.0,0.0,0.0,0.0,0.0,0.0,
0.485,3.491834210446076,3.6734362827960134,4.5233829414289115,0.0,0.0,0.0,3.896217811557,0.0,0.0,0.0,0.0,0.0,0.0,0.0,0.0,0.0,0.0,0.0,0.0,0.0,0.0,
0.5006,3.492310592689244,3.6739625604802444,4.524438167053974,0.0,0.0,0.0,3.896903773407821,0.0,0.0,0.0,0.0,0.0,0.0,0.0,0.0,0.0,0.0,0.0,0.0,0.0,0.0,
0.5163,3.4928055447778132,3.674509355889837,4.525534827459985,0.0,0.0,0.0,3.897616576042545,0.0,0.0,0.0,0.0,0.0,0.0,0.0,0.0,0.0,0.0,0.0,0.0,0.0,0.0,
0.5319,3.4933127889745035,3.675069734001751,4.526659041871298,0.0,0.0,0.0,3.898347188282518,0.0,0.0,0.0,0.0,0.0,0.0,0.0,0.0,0.0,0.0,0.0,0.0,0.0,0.0,
0.5476,3.4938388569332455,3.6756509109425375,4.52782531649089,0.0,0.0,0.0,3.8991050281222246,0.0,0.0,0.0,0.0,0.0,0.0,0.0,0.0,0.0,0.0,0.0,0.0,0.0,0.0,
0.5632,3.494377076334001,3.676245515710419,4.529018889732841,0.0,0.0,0.0,3.8998804939257536,0.0,0.0,0.0,0.0,0.0,0.0,0.0,0.0,0.0,0.0,0.0,0.0,0.0,0.0,
0.5789,3.4949343777720188,3.6768612052662237,4.5302551631075225,0.0,0.0,0.0,3.9006835820485883,0.0,0.0,0.0,0.0,0.0,0.0,0.0,0.0,0.0,0.0,0.0,0.0,0.0,0.0,
0.5945,3.495503692866894,3.6774901709823884,4.531518489411462,0.0,0.0,0.0,3.9015041177535807,0.0,0.0,0.0,0.0,0.0,0.0,0.0,0.0,0.0,0.0,0.0,0.0,0.0,0.0,
0.6101,3.4960885534010413,3.678136314961509,4.532816735651012,0.0,0.0,0.0,3.9023472013378537,0.0,0.0,0.0,0.0,0.0,0.0,0.0,0.0,0.0,0.0,0.0,0.0,0.0,0.0,
0.6258,3.4966928913256807,3.67880398151486,4.534158668774847,0.0,0.0,0.0,3.9032185138717956,0.0,0.0,0.0,0.0,0.0,0.0,0.0,0.0,0.0,0.0,0.0,0.0,0.0,0.0,
0.6414,3.4973090418358908,3.6794847029684106,4.535527304900251,0.0,0.0,0.0,3.9041070165681844,0.0,0.0,0.0,0.0,0.0,0.0,0.0,0.0,0.0,0.0,0.0,0.0,0.0,0.0,
0.6571,3.4979449392965076,3.6801872455247366,4.536940305583711,0.0,0.0,0.0,3.9050241634683185,0.0,0.0,0.0,0.0,0.0,0.0,0.0,0.0,0.0,0.0,0.0,0.0,0.0,0.0,
0.6727,3.498592518746539,3.6809026993186573,4.538379787966109,0.0,0.0,0.0,3.905958335343769,0.0,0.0,0.0,0.0,0.0,0.0,0.0,0.0,0.0,0.0,0.0,0.0,0.0,0.0,
0.6884,3.4992601193909483,3.6816402779602715,4.5398643283431985,0.0,0.0,0.0,3.906921575231473,0.0,0.0,0.0,0.0,0.0,0.0,0.0,0.0,0.0,0.0,0.0,0.0,0.0,0.0,
0.704,3.4999392743084803,3.682390627382422,4.5413751389795625,0.0,0.0,0.0,3.9079016802234885,0.0,0.0,0.0,0.0,0.0,0.0,0.0,0.0,0.0,0.0,0.0,0.0,0.0,0.0,
0.7197,3.5006387294495402,3.68316341072554,4.54293171720875,0.0,0.0,0.0,3.9089112857946104,0.0,0.0,0.0,0.0,0.0,0.0,0.0,0.0,0.0,0.0,0.0,0.0,0.0,0.0,
0.7353,3.501349614032233,3.6839488276024874,4.544514364194567,0.0,0.0,0.0,3.9099376019430956,0.0,0.0,0.0,0.0,0.0,0.0,0.0,0.0,0.0,0.0,0.0,0.0,0.0,0.0,
0.751,3.5020810827575466,3.6847569929182225,4.546143504948629,0.0,0.0,0.0,3.910993860208133,0.0,0.0,0.0,0.0,0.0,0.0,0.0,0.0,0.0,0.0,0.0,0.0,0.0,0.0,
0.7666,3.502823858985188,3.68557765773901,4.547798522979217,0.0,0.0,0.0,3.9120666799011388,0.0,0.0,0.0,0.0,0.0,0.0,0.0,0.0,0.0,0.0,0.0,0.0,0.0,0.0,
0.7822,3.5035825930261146,3.6864159603494837,4.549489818996209,0.0,0.0,0.0,3.9131627907906026,0.0,0.0,0.0,0.0,0.0,0.0,0.0,0.0,0.0,0.0,0.0,0.0,0.0,0.0,
0.7979,3.504362346026203,3.68727749312784,4.551228728866693,0.0,0.0,0.0,3.9142895226735788,0.0,0.0,0.0,0.0,0.0,0.0,0.0,0.0,0.0,0.0,0.0,0.0,0.0,0.0,
0.8135,3.5051532292500904,3.6881513306288145,4.552993248075149,0.0,0.0,0.0,3.9154326026513515,0.0,0.0,0.0,0.0,0.0,0.0,0.0,0.0,0.0,0.0,0.0,0.0,0.0,0.0,
0.8292,3.50596542805326,3.6890487269536005,4.554806150667634,0.0,0.0,0.0,3.916606768558165,0.0,0.0,0.0,0.0,0.0,0.0,0.0,0.0,0.0,0.0,0.0,0.0,0.0,0.0,
0.8448,3.506788642415101,3.689958302062886,4.55664449660987,0.0,0.0,0.0,3.9177971470292854,0.0,0.0,0.0,0.0,0.0,0.0,0.0,0.0,0.0,0.0,0.0,0.0,0.0,0.0,
0.8605,3.5076334742645865,3.690891770537149,4.558532013646552,0.0,0.0,0.0,3.9190190861494294,0.0,0.0,0.0,0.0,0.0,0.0,0.0,0.0,0.0,0.0,0.0,0.0,0.0,0.0,
0.8761,3.5084892099452056,3.691837295123838,4.560444818461354,0.0,0.0,0.0,3.9202571078434656,0.0,0.0,0.0,0.0,0.0,0.0,0.0,0.0,0.0,0.0,0.0,0.0,0.0,0.0,
0.8918,3.5093668704335284,3.692807053638469,4.562407600764441,0.0,0.0,0.0,3.9215271749454796,0.0,0.0,0.0,0.0,0.0,0.0,0.0,0.0,0.0,0.0,0.0,0.0,0.0,0.0,
0.9074,3.5102553259820066,3.693788748879745,4.5643955258321345,0.0,0.0,0.0,3.9228132002312956,0.0,0.0,0.0,0.0,0.0,0.0,0.0,0.0,0.0,0.0,0.0,0.0,0.0,0.0,
0.923,3.511160165978023,3.694788557195204,4.56642114726503,0.0,0.0,0.0,3.924123290146086,0.0,0.0,0.0,0.0,0.0,0.0,0.0,0.0,0.0,0.0,0.0,0.0,0.0,0.0,
0.9387,3.5120874016813146,3.6958131213210867,4.568497990613135,0.0,0.0,0.0,3.9254661712051786,0.0,0.0,0.0,0.0,0.0,0.0,0.0,0.0,0.0,0.0,0.0,0.0,0.0,0.0,
0.9543,3.5130252750441215,3.6968494494883215,4.5705997795422135,0.0,0.0,0.0,3.9268248346915526,0.0,0.0,0.0,0.0,0.0,0.0,0.0,0.0,0.0,0.0,0.0,0.0,0.0,0.0,
0.97,3.5139858655247935,3.697910889703855,4.572753645804276,0.0,0.0,0.0,3.9282168003443085,0.0,0.0,0.0,0.0,0.0,0.0,0.0,0.0,0.0,0.0,0.0,0.0,0.0,0.0,
0.9856,3.51495699238148,3.698983982893613,4.5749323397208395,0.0,0.0,0.0,3.9296244383319774,0.0,0.0,0.0,0.0,0.0,0.0,0.0,0.0,0.0,0.0,0.0,0.0,0.0,0.0,
1.0013,3.5159511636473444,3.700082550909704,4.5771639870106835,0.0,0.0,0.0,3.931065900522577,0.0,0.0,0.0,0.0,0.0,0.0,0.0,0.0,0.0,0.0,0.0,0.0,0.0,0.0,
1.0169,3.516955773050622,3.70119266421411,4.579420355192168,0.0,0.0,0.0,3.932522930818967,0.0,0.0,0.0,0.0,0.0,0.0,0.0,0.0,0.0,0.0,0.0,0.0,0.0,0.0,
1.0326,3.5179837601805346,3.7023286218236637,4.58173057401895,0.0,0.0,0.0,3.934014318674383,0.0,0.0,0.0,0.0,0.0,0.0,0.0,0.0,0.0,0.0,0.0,0.0,0.0,0.0,
1.0482,3.5190220902861364,3.7034760204513404,4.584065418345238,0.0,0.0,0.0,3.9355211763609055,0.0,0.0,0.0,0.0,0.0,0.0,0.0,0.0,0.0,0.0,0.0,0.0,0.0,0.0,
1.0638,3.5200773186853356,3.704642104410617,4.586439685178458,0.0,0.0,0.0,3.93705303609147,0.0,0.0,0.0,0.0,0.0,0.0,0.0,0.0,0.0,0.0,0.0,0.0,0.0,0.0,
1.0795,3.5211564358654854,3.7058345992108332,4.588869188268546,0.0,0.0,0.0,3.938620074448288,0.0,0.0,0.0,0.0,0.0,0.0,0.0,0.0,0.0,0.0,0.0,0.0,0.0,0.0,
1.0951,3.5222457592676597,3.7070383852677256,4.591323195697832,0.0,0.0,0.0,3.9402024467444057,0.0,0.0,0.0,0.0,0.0,0.0,0.0,0.0,0.0,0.0,0.0,0.0,0.0,0.0,
1.1108,3.5233593204955898,3.708268969127,4.593833392540729,0.0,0.0,0.0,3.9418205607211063,0.0,0.0,0.0,0.0,0.0,0.0,0.0,0.0,0.0,0.0,0.0,0.0,0.0,0.0,
1.1264,3.524483000631876,3.7095107486801377,4.596368027752034,0.0,0.0,0.0,3.9434539256880154,0.0,0.0,0.0,0.0,0.0,0.0,0.0,0.0,0.0,0.0,0.0,0.0,0.0,0.0,
1.1421,3.5256312742177225,3.7107797203078707,4.598959829113717,0.0,0.0,0.0,3.9451236078797702,0.0,0.0,0.0,0.0,0.0,0.0,0.0,0.0,0.0,0.0,0.0,0.0,0.0,0.0,
1.1577,3.5267895826126794,3.7120597956309793,4.601576015100438,0.0,0.0,0.0,3.9468084644480323,0.0,0.0,0.0,0.0,0.0,0.0,0.0,0.0,0.0,0.0,0.0,0.0,0.0,0.0,
1.1734,3.52797284683159,3.713367464801047,4.604250368292982,0.0,0.0,0.0,3.948530226641873,0.0,0.0,0.0,0.0,0.0,0.0,0.0,0.0,0.0,0.0,0.0,0.0,0.0,0.0,
1.189,3.5291660650219487,3.7146861492832137,4.606949064880608,0.0,0.0,0.0,3.9502670930619233,0.0,0.0,0.0,0.0,0.0,0.0,0.0,0.0,0.0,0.0,0.0,0.0,0.0,0.0,
1.2047,3.5303846083393458,3.716032837081051,4.609706954819618,0.0,0.0,0.0,3.9520414667466714,0.0,0.0,0.0,0.0,0.0,0.0,0.0,0.0,0.0,0.0,0.0,0.0,0.0,0.0,
1.2203,3.5316130281029823,3.7173904554780286,4.6124891597428235,0.0,0.0,0.0,3.9538308811079452,0.0,0.0,0.0,0.0,0.0,0.0,0.0,0.0,0.0,0.0,0.0,0.0,0.0,0.0,
1.2359,3.532859104621242,3.7187676035085753,4.615313370086977,0.0,0.0,0.0,3.9556466927389313,0.0,0.0,0.0,0.0,0.0,0.0,0.0,0.0,0.0,0.0,0.0,0.0,0.0,0.0,
1.2516,3.534131073005828,3.720173383256498,4.618198360093809,0.0,0.0,0.0,3.9575009387853783,0.0,0.0,0.0,0.0,0.0,0.0,0.0,0.0,0.0,0.0,0.0,0.0,0.0,0.0,
1.2672,3.535412807993568,3.7215899736700075,4.621107647227602,0.0,0.0,0.0,3.9593701429637256,0.0,0.0,0.0,0.0,0.0,0.0,0.0,0.0,0.0,0.0,0.0,0.0,0.0,0.0,
1.2829,3.5367208222847366,3.7230356254052497,4.624078806454759,0.0,0.0,0.0,3.9612784180482485,0.0,0.0,0.0,0.0,0.0,0.0,0.0,0.0,0.0,0.0,0.0,0.0,0.0,0.0,
1.2985,3.5380385341779044,3.7244920125314525,4.627074267900488,0.0,0.0,0.0,3.963201604869948,0.0,0.0,0.0,0.0,0.0,0.0,0.0,0.0,0.0,0.0,0.0,0.0,0.0,0.0,
1.3142,3.5393829204186,3.7259778990270123,4.630132721940118,0.0,0.0,0.0,3.965164513795243,0.0,0.0,0.0,0.0,0.0,0.0,0.0,0.0,0.0,0.0,0.0,0.0,0.0,0.0,
1.3298,3.540736938782197,3.7274744495360332,4.633215497349305,0.0,0.0,0.0,3.9671422952225117,0.0,0.0,0.0,0.0,0.0,0.0,0.0,0.0,0.0,0.0,0.0,0.0,0.0,0.0,
1.3455,3.5421180343553473,3.7290009461374414,4.636362414862584,0.0,0.0,0.0,3.9691604651184575,0.0,0.0,0.0,0.0,0.0,0.0,0.0,0.0,0.0,0.0,0.0,0.0,0.0,0.0,
1.3611,3.5435087001640544,3.7305380393471945,4.639533687363656,0.0,0.0,0.0,3.9711934756249683,0.0,0.0,0.0,0.0,0.0,0.0,0.0,0.0,0.0,0.0,0.0,0.0,0.0,0.0,
1.3767,3.5449177621018824,3.7320954848015866,4.642749522729569,0.0,0.0,0.0,3.973254256544346,0.0,0.0,0.0,0.0,0.0,0.0,0.0,0.0,0.0,0.0,0.0,0.0,0.0,0.0,
1.3924,3.5463545200132427,3.7336835624866556,4.646031279086156,0.0,0.0,0.0,3.975356453862018,0.0,0.0,0.0,0.0,0.0,0.0,0.0,0.0,0.0,0.0,0.0,0.0,0.0,0.0,
1.408,3.5478007623146546,3.7352821433928236,4.64933746883856,0.0,0.0,0.0,3.9774734581820126,0.0,0.0,0.0,0.0,0.0,0.0,0.0,0.0,0.0,0.0,0.0,0.0,0.0,0.0,
1.4237,3.549275123960834,3.73691182600137,4.652710805963052,0.0,0.0,0.0,3.9796325853084187,0.0,0.0,0.0,0.0,0.0,0.0,0.0,0.0,0.0,0.0,0.0,0.0,0.0,0.0,
1.4393,3.550758917419075,3.73855195471385,4.656108648203185,0.0,0.0,0.0,3.981806506778703,0.0,0.0,0.0,0.0,0.0,0.0,0.0,0.0,0.0,0.0,0.0,0.0,0.0,0.0,
1.455,3.552271262216544,3.7402236641609097,4.65957489684658,0.0,0.0,0.0,3.9840232744080115,0.0,0.0,0.0,0.0,0.0,0.0,0.0,0.0,0.0,0.0,0.0,0.0,0.0,0.0,
1.4706,3.5537929901218916,3.7419057668722724,4.663065738433854,0.0,0.0,0.0,3.986254831809339,0.0,0.0,0.0,0.0,0.0,0.0,0.0,0.0,0.0,0.0,0.0,0.0,0.0,0.0,
1.4863,3.555343710235295,3.7436199391865714,4.666626279256576,0.0,0.0,0.0,3.9885299762261472,0.0,0.0,0.0,0.0,0.0,0.0,0.0,0.0,0.0,0.0,0.0,0.0,0.0,0.0,
1.5019,3.5569037687187297,3.7453444563031772,4.670211517496682,0.0,0.0,0.0,3.9908199141728633,0.0,0.0,0.0,0.0,0.0,0.0,0.0,0.0,0.0,0.0,0.0,0.0,0.0,0.0,
1.5175,3.5584830832674954,3.7470902818436373,4.673844341196837,0.0,0.0,0.0,3.99313923543599,0.0,0.0,0.0,0.0,0.0,0.0,0.0,0.0,0.0,0.0,0.0,0.0,0.0,0.0,
1.5332,3.560092067807214,3.7488689285487244,4.677548867231156,0.0,0.0,0.0,3.995503287862365,0.0,0.0,0.0,0.0,0.0,0.0,0.0,0.0,0.0,0.0,0.0,0.0,0.0,0.0,
1.5488,3.5617103313222587,3.7506578558683223,4.681278279636448,0.0,0.0,0.0,3.9978821556090094,0.0,0.0,0.0,0.0,0.0,0.0,0.0,0.0,0.0,0.0,0.0,0.0,0.0,0.0,
1.5645,3.563358729033299,3.752480119073312,4.685080777050611,0.0,0.0,0.0,4.000306541719074,0.0,0.0,0.0,0.0,0.0,0.0,0.0,0.0,0.0,0.0,0.0,0.0,0.0,0.0,
1.5801,3.5650163713344054,3.7543126258466497,4.688908309463702,0.0,0.0,0.0,4.002745768881586,0.0,0.0,0.0,0.0,0.0,0.0,0.0,0.0,0.0,0.0,0.0,0.0,0.0,0.0,
1.5958,3.566704621871979,3.7561789941163015,4.6928103478356675,0.0,0.0,0.0,4.005231321274649,0.0,0.0,0.0,0.0,0.0,0.0,0.0,0.0,0.0,0.0,0.0,0.0,0.0,0.0,
1.6114,3.5684020869518323,3.7580555736867276,4.69673758863178,0.0,0.0,0.0,4.00773174975678,0.0,0.0,0.0,0.0,0.0,0.0,0.0,0.0,0.0,0.0,0.0,0.0,0.0,0.0,
1.6271,3.5701306444444714,3.759966551583757,4.700740796032175,0.0,0.0,0.0,4.010279330686801,0.0,0.0,0.0,0.0,0.0,0.0,0.0,0.0,0.0,0.0,0.0,0.0,0.0,0.0,
1.6427,3.5718683908901396,3.761887713423176,4.70476939278128,0.0,0.0,0.0,4.012841832364866,0.0,0.0,0.0,0.0,0.0,0.0,0.0,0.0,0.0,0.0,0.0,0.0,0.0,0.0,
1.6584,3.5736377243737145,3.7638438219814967,4.708875457964981,0.0,0.0,0.0,4.015452334773397,0.0,0.0,0.0,0.0,0.0,0.0,0.0,0.0,0.0,0.0,0.0,0.0,0.0,0.0,
1.674,3.5754162258076456,3.765810092171371,4.713007119666651,0.0,0.0,0.0,4.0180778125485554,0.0,0.0,0.0,0.0,0.0,0.0,0.0,0.0,0.0,0.0,0.0,0.0,0.0,0.0,
1.6896,3.577215221285,3.7677990462205977,4.717190807090663,0.0,0.0,0.0,4.02073502486542,0.0,0.0,0.0,0.0,0.0,0.0,0.0,0.0,0.0,0.0,0.0,0.0,0.0,0.0,
1.7053,3.5790465652217858,3.7698237911261123,4.721454293817927,0.0,0.0,0.0,4.023441550055275,0.0,0.0,0.0,0.0,0.0,0.0,0.0,0.0,0.0,0.0,0.0,0.0,0.0,0.0,
1.7209,3.5808870545222717,3.771858674002629,4.725743727119937,0.0,0.0,0.0,4.026163151881613,0.0,0.0,0.0,0.0,0.0,0.0,0.0,0.0,0.0,0.0,0.0,0.0,0.0,0.0,
1.7366,3.5827604144685448,3.7739299266068307,4.7301145714525425,0.0,0.0,0.0,4.028934970842639,0.0,0.0,0.0,0.0,0.0,0.0,0.0,0.0,0.0,0.0,0.0,0.0,0.0,0.0,
1.7522,3.584642910846138,3.776011308141103,4.7345116236721,0.0,0.0,0.0,4.031721947553113,0.0,0.0,0.0,0.0,0.0,0.0,0.0,0.0,0.0,0.0,0.0,0.0,0.0,0.0,
1.7679,3.586558811707693,3.778129651151899,4.738991745651525,0.0,0.0,0.0,4.034560069503706,0.0,0.0,0.0,0.0,0.0,0.0,0.0,0.0,0.0,0.0,0.0,0.0,0.0,0.0,
1.7835,3.5884838451659378,3.780258119650527,4.7434983600611025,0.0,0.0,0.0,4.037413441625856,0.0,0.0,0.0,0.0,0.0,0.0,0.0,0.0,0.0,0.0,0.0,0.0,0.0,0.0,
1.7992,3.5904428289759296,3.782424154664488,4.748089751817277,0.0,0.0,0.0,4.040318911819232,0.0,0.0,0.0,0.0,0.0,0.0,0.0,0.0,0.0,0.0,0.0,0.0,0.0,0.0,
1.8148,3.5924109468116097,3.7846003175013445,4.752707944752631,0.0,0.0,0.0,4.043239736355194,0.0,0.0,0.0,0.0,0.0,0.0,0.0,0.0,0.0,0.0,0.0,0.0,0.0,0.0,
1.8304,3.5944007479057776,3.7868004842111693,4.757382525146205,0.0,0.0,0.0,4.046194585754384,0.0,0.0,0.0,0.0,0.0,0.0,0.0,0.0,0.0,0.0,0.0,0.0,0.0,0.0,
1.8461,3.5964253406636915,3.7890391498485108,4.7621445372759155,0.0,0.0,0.0,4.049203009262706,0.0,0.0,0.0,0.0,0.0,0.0,0.0,0.0,0.0,0.0,0.0,0.0,0.0,0.0,
1.8617,3.598459079827278,3.791287958037748,4.766933860801123,0.0,0.0,0.0,4.05222696622205,0.0,0.0,0.0,0.0,0.0,0.0,0.0,0.0,0.0,0.0,0.0,0.0,0.0,0.0,
1.8774,3.600528188338268,3.7935759053185345,4.771812454462892,0.0,0.0,0.0,4.055305516039898,0.0,0.0,0.0,0.0,0.0,0.0,0.0,0.0,0.0,0.0,0.0,0.0,0.0,0.0,
1.893,3.602606458625045,3.795874012771291,4.776718733411556,0.0,0.0,0.0,4.058399734935964,0.0,0.0,0.0,0.0,0.0,0.0,0.0,0.0,0.0,0.0,0.0,0.0,0.0,0.0,
1.9087,3.6047206894298,3.798211914358899,4.7817161770354835,0.0,0.0,0.0,4.061549593608061,0.0,0.0,0.0,0.0,0.0,0.0,0.0,0.0,0.0,0.0,0.0,0.0,0.0,0.0,
1.9243,3.6068441033050003,3.8005600002270046,4.786741707956606,0.0,0.0,0.0,4.064715270496204,0.0,0.0,0.0,0.0,0.0,0.0,0.0,0.0,0.0,0.0,0.0,0.0,0.0,0.0,
1.94,3.609004082815171,3.8029485506528315,4.791860356563614,0.0,0.0,0.0,4.067937663343872,0.0,0.0,0.0,0.0,0.0,0.0,0.0,0.0,0.0,0.0,0.0,0.0,0.0,0.0,
1.9556,3.6111732728294097,3.805347316186633,4.797007523877323,0.0,0.0,0.0,4.071176037631122,0.0,0.0,0.0,0.0,0.0,0.0,0.0,0.0,0.0,0.0,0.0,0.0,0.0,0.0,
1.9712,3.6133655204225894,3.807771609524385,4.802216233790048,0.0,0.0,0.0,4.074451121245674,0.0,0.0,0.0,0.0,0.0,0.0,0.0,0.0,0.0,0.0,0.0,0.0,0.0,0.0,
1.9869,3.6155952675191356,3.8102374019184158,4.807521102636,0.0,0.0,0.0,4.077784590691183,0.0,0.0,0.0,0.0,0.0,0.0,0.0,0.0,0.0,0.0,0.0,0.0,0.0,0.0,
2.0025,3.6178342782166815,3.812713468725077,4.812855194638489,0.0,0.0,0.0,4.081134313860082,0.0,0.0,0.0,0.0,0.0,0.0,0.0,0.0,0.0,0.0,0.0,0.0,0.0,0.0,
2.0182,3.6201114305265345,3.8152317457723224,4.818287555710712,0.0,0.0,0.0,4.084543577336523,0.0,0.0,0.0,0.0,0.0,0.0,0.0,0.0,0.0,0.0,0.0,0.0,0.0,0.0,
2.0338,3.6223978902305674,3.8177603459434626,4.823749650940872,0.0,0.0,0.0,4.087969295704967,0.0,0.0,0.0,0.0,0.0,0.0,0.0,0.0,0.0,0.0,0.0,0.0,0.0,0.0,
2.0495,3.6247231493827274,3.8203318848549794,4.8293121930542435,0.0,0.0,0.0,4.09145574243065,0.0,0.0,0.0,0.0,0.0,0.0,0.0,0.0,0.0,0.0,0.0,0.0,0.0,0.0,
