energies(eV),real_xx,real_yy,real_zz,real_xy,real_yz,real_xz,real_ave,imag_xx,imag_yy,imag_zz,imag_xy,imag_yz,imag_xz,imag_ave,absorption_xx,absorption_yy,absorption_zz,absorption_xy,absorption_yz,absorption_xz,absorption_ave,band_gap
0.0,2.4835496838196445,2.4423891916772478,2.46101263540049,0.0,0.0,0.011724122303230975,2.4623171702991278,0.0,0.0,0.0,0.0,0.0,0.0,0.0,0.0,0.0,0.0,0.0,0.0,0.0,0.0,6.0501000000000005
0.0162,2.4835522255489035,2.4423916831005243,2.4610151661618413,0.0,0.0,0.011724151016869449,2.4623196916037564,0.0,0.0,0.0,0.0,0.0,0.0,0.0,0.0,0.0,0.0,0.0,0.0,0.0,0.0,
0.0325,2.4835599136693984,2.4423992190571013,2.4610228211070426,0.0,0.0,0.011724237868987235,2.462327317944514,0.0,0.0,0.0,0.0,0.0,0.0,0.0,0.0,0.0,0.0,0.0,0.0,0.0,0.0,
0.0487,2.483572654078062,2.4424117073052614,2.4610355065391314,0.0,0.0,0.011724381797278607,2.4623399559741515,0.0,0.0,0.0,0.0,0.0,0.0,0.0,0.0,0.0,0.0,0.0,0.0,0.0,0.0,
0.0649,2.4835904786322485,2.4424291790699972,2.461053254178017,0.0,0.0,0.011724583162909466,2.462357637293421,0.0,0.0,0.0,0.0,0.0,0.0,0.0,0.0,0.0,0.0,0.0,0.0,0.0,0.0,
0.0812,2.4836135450717993,2.4424517889664155,2.4610762210829455,0.0,0.0,0.01172484374970005,2.4623805183737204,0.0,0.0,0.0,0.0,0.0,0.0,0.0,0.0,0.0,0.0,0.0,0.0,0.0,0.0,
0.0974,2.4836415710621944,2.4424792602447365,2.461104126137779,0.0,0.0,0.011725160370362192,2.4624083191482367,0.0,0.0,0.0,0.0,0.0,0.0,0.0,0.0,0.0,0.0,0.0,0.0,0.0,0.0,
0.1136,2.483674683259721,2.4425117170502455,2.4611370954523255,0.0,0.0,0.011725534458559103,2.462441165254097,0.0,0.0,0.0,0.0,0.0,0.0,0.0,0.0,0.0,0.0,0.0,0.0,0.0,0.0,
0.1299,2.4837131342542906,2.4425494069683262,2.4611753805266625,0.0,0.0,0.01172596887135749,2.4624793072497595,0.0,0.0,0.0,0.0,0.0,0.0,0.0,0.0,0.0,0.0,0.0,0.0,0.0,0.0,
0.1461,2.4837564534040646,2.4425918686670687,2.46121851274991,0.0,0.0,0.011726458295374413,2.4625222782736813,0.0,0.0,0.0,0.0,0.0,0.0,0.0,0.0,0.0,0.0,0.0,0.0,0.0,0.0,
0.1623,2.483804862198941,2.442639319245943,2.461266712656366,0.0,0.0,0.011727005237277745,2.46257029803375,0.0,0.0,0.0,0.0,0.0,0.0,0.0,0.0,0.0,0.0,0.0,0.0,0.0,0.0,
0.1786,2.4838587081478707,2.4426920993277816,2.4613203262555348,0.0,0.0,0.011727613628388965,2.462623711243729,0.0,0.0,0.0,0.0,0.0,0.0,0.0,0.0,0.0,0.0,0.0,0.0,0.0,0.0,
0.1948,2.48391733217505,2.4427495628750204,2.4613786973157077,0.0,0.0,0.011728276027374538,2.462681864121926,0.0,0.0,0.0,0.0,0.0,0.0,0.0,0.0,0.0,0.0,0.0,0.0,0.0,0.0,
0.2111,2.4839814598133256,2.442812421049515,2.461442548239166,0.0,0.0,0.01172900063805746,2.4627454763673353,0.0,0.0,0.0,0.0,0.0,0.0,0.0,0.0,0.0,0.0,0.0,0.0,0.0,0.0,
0.2273,2.484050306139734,2.4428799044570164,2.461511097490053,0.0,0.0,0.011729778597613164,2.462813769362268,0.0,0.0,0.0,0.0,0.0,0.0,0.0,0.0,0.0,0.0,0.0,0.0,0.0,0.0,
0.2435,2.484124250912975,2.4429523853283475,2.4615847231885093,0.0,0.0,0.011730614203946369,2.462887119809944,0.0,0.0,0.0,0.0,0.0,0.0,0.0,0.0,0.0,0.0,0.0,0.0,0.0,0.0,
0.2598,2.484203800129281,2.443030359630744,2.461663929147517,0.0,0.0,0.011731513182813928,2.4629660296358473,0.0,0.0,0.0,0.0,0.0,0.0,0.0,0.0,0.0,0.0,0.0,0.0,0.0,0.0,
0.276,2.484287980107639,2.4431128729481832,2.4617477458876307,0.0,0.0,0.011732464538691069,2.463049532981151,0.0,0.0,0.0,0.0,0.0,0.0,0.0,0.0,0.0,0.0,0.0,0.0,0.0,0.0,
0.2922,2.484377265660063,2.4432003906798005,2.461836646172136,0.0,0.0,0.01173347364569857,2.4631381008373334,0.0,0.0,0.0,0.0,0.0,0.0,0.0,0.0,0.0,0.0,0.0,0.0,0.0,0.0,
0.3085,2.4844722580130623,2.4432935021337334,2.461931228633352,0.0,0.0,0.011734547308399535,2.463232329593383,0.0,0.0,0.0,0.0,0.0,0.0,0.0,0.0,0.0,0.0,0.0,0.0,0.0,0.0,
0.3247,2.484571794465153,2.443391067616175,2.4620303355868893,0.0,0.0,0.011735672394723241,2.4633310658894056,0.0,0.0,0.0,0.0,0.0,0.0,0.0,0.0,0.0,0.0,0.0,0.0,0.0,0.0,
0.3409,2.4846764450118375,2.4434936458214844,2.462134534568789,0.0,0.0,0.011736855356909673,2.463434875134037,0.0,0.0,0.0,0.0,0.0,0.0,0.0,0.0,0.0,0.0,0.0,0.0,0.0,0.0,
0.3572,2.484786906274709,2.4436019195592964,2.4622445191947007,0.0,0.0,0.011738104080736712,2.463544448342902,0.0,0.0,0.0,0.0,0.0,0.0,0.0,0.0,0.0,0.0,0.0,0.0,0.0,0.0,
0.3734,2.4849018262180005,2.4437145635520023,2.4623589432629225,0.0,0.0,0.011739403292990846,2.463658444344308,0.0,0.0,0.0,0.0,0.0,0.0,0.0,0.0,0.0,0.0,0.0,0.0,0.0,0.0,
0.3896,2.4850218701772,2.443832229941687,2.4624784692378947,0.0,0.0,0.011740760526317565,2.463777523118927,0.0,0.0,0.0,0.0,0.0,0.0,0.0,0.0,0.0,0.0,0.0,0.0,0.0,0.0,
0.4059,2.4851478303601104,2.443955695225812,2.46260388590903,0.0,0.0,0.01174218475050372,2.4639024704983172,0.0,0.0,0.0,0.0,0.0,0.0,0.0,0.0,0.0,0.0,0.0,0.0,0.0,0.0,
0.4221,2.4852781650314784,2.444083448186715,2.462733658193407,0.0,0.0,0.01174365854584202,2.4640317571372,0.0,0.0,0.0,0.0,0.0,0.0,0.0,0.0,0.0,0.0,0.0,0.0,0.0,0.0,
0.4383,2.485413635049497,2.4442162345923464,2.4628685436659445,0.0,0.0,0.011745190528054183,2.4641661377692627,0.0,0.0,0.0,0.0,0.0,0.0,0.0,0.0,0.0,0.0,0.0,0.0,0.0,0.0,
0.4546,2.4855551284260473,2.444354924840269,2.4630094265065687,0.0,0.0,0.011746790754118407,2.4643064932576286,0.0,0.0,0.0,0.0,0.0,0.0,0.0,0.0,0.0,0.0,0.0,0.0,0.0,0.0,
0.4708,2.485700913309142,2.4444978213659176,2.463154582335758,0.0,0.0,0.011748439651723369,2.4644511056702725,0.0,0.0,0.0,0.0,0.0,0.0,0.0,0.0,0.0,0.0,0.0,0.0,0.0,0.0,
0.487,2.485851846289073,2.4446457637671237,2.4633048640472963,0.0,0.0,0.01175014692272582,2.4646008247011646,0.0,0.0,0.0,0.0,0.0,0.0,0.0,0.0,0.0,0.0,0.0,0.0,0.0,0.0,
0.5033,2.486008911426421,2.4447997165799684,2.4634612514550485,0.0,0.0,0.011751923714867298,2.4647566264871457,0.0,0.0,0.0,0.0,0.0,0.0,0.0,0.0,0.0,0.0,0.0,0.0,0.0,0.0,
0.5195,2.4861701862829713,2.44495779543515,2.4636218304154927,0.0,0.0,0.011753748296359395,2.464916604044538,0.0,0.0,0.0,0.0,0.0,0.0,0.0,0.0,0.0,0.0,0.0,0.0,0.0,0.0,
0.5357,2.4863366234172544,2.4451209339904603,2.463787549376247,0.0,0.0,0.011755631458641039,2.4650817022613207,0.0,0.0,0.0,0.0,0.0,0.0,0.0,0.0,0.0,0.0,0.0,0.0,0.0,0.0,
0.552,2.4865093032101404,2.4452901911851797,2.4639594840555175,0.0,0.0,0.0117575854441834,2.465252992816946,0.0,0.0,0.0,0.0,0.0,0.0,0.0,0.0,0.0,0.0,0.0,0.0,0.0,0.0,
0.5682,2.486686112115086,2.445463495336152,2.464135530025886,0.0,0.0,0.011759586354078054,2.4654283791590412,0.0,0.0,0.0,0.0,0.0,0.0,0.0,0.0,0.0,0.0,0.0,0.0,0.0,0.0,
0.5845,2.486869238388456,2.4456429912940703,2.464317866100293,0.0,0.0,0.011761658970298652,2.4656100319276066,0.0,0.0,0.0,0.0,0.0,0.0,0.0,0.0,0.0,0.0,0.0,0.0,0.0,0.0,
0.6007,2.4870564406306297,2.445826482062854,2.4645042605497354,0.0,0.0,0.011763777943071546,2.46579572774774,0.0,0.0,0.0,0.0,0.0,0.0,0.0,0.0,0.0,0.0,0.0,0.0,0.0,0.0,
0.6169,2.4872488320112156,2.4460150587143827,2.46469582173921,0.0,0.0,0.011765955889286996,2.465986570821603,0.0,0.0,0.0,0.0,0.0,0.0,0.0,0.0,0.0,0.0,0.0,0.0,0.0,0.0,
0.6332,2.487447654189088,2.446209938252008,2.464893785968205,0.0,0.0,0.01176820688661222,2.4661837928031005,0.0,0.0,0.0,0.0,0.0,0.0,0.0,0.0,0.0,0.0,0.0,0.0,0.0,0.0,
0.6494,2.487650473667416,2.4464087354016026,2.46509573023923,0.0,0.0,0.011770503403683958,2.466384979769416,0.0,0.0,0.0,0.0,0.0,0.0,0.0,0.0,0.0,0.0,0.0,0.0,0.0,0.0,
0.6656,2.4878585003462317,2.446612636037712,2.465302859229726,0.0,0.0,0.01177285915809852,2.466591331871223,0.0,0.0,0.0,0.0,0.0,0.0,0.0,0.0,0.0,0.0,0.0,0.0,0.0,0.0,
0.6819,2.4880730730633314,2.446822952403382,2.465516505998064,0.0,0.0,0.011775289334778912,2.4668041771549256,0.0,0.0,0.0,0.0,0.0,0.0,0.0,0.0,0.0,0.0,0.0,0.0,0.0,0.0,
0.6981,2.488291565559679,2.447037110298198,2.4657340556162186,0.0,0.0,0.011777764211046933,2.467020910491365,0.0,0.0,0.0,0.0,0.0,0.0,0.0,0.0,0.0,0.0,0.0,0.0,0.0,0.0,
0.7143,2.488515284801905,2.4472563907268317,2.4659568094086377,0.0,0.0,0.011780298610107435,2.467242828312458,0.0,0.0,0.0,0.0,0.0,0.0,0.0,0.0,0.0,0.0,0.0,0.0,0.0,0.0,
0.7306,2.4887456671797503,2.447482201535333,2.466186197563734,0.0,0.0,0.011782908829575755,2.467471355426272,0.0,0.0,0.0,0.0,0.0,0.0,0.0,0.0,0.0,0.0,0.0,0.0,0.0,0.0,
0.7468,2.4889798929524143,2.4477117788956706,2.4664194125066725,0.0,0.0,0.011785562944940218,2.467703694784919,0.0,0.0,0.0,0.0,0.0,0.0,0.0,0.0,0.0,0.0,0.0,0.0,0.0,0.0,
0.763,2.4892193665172506,2.4479464992972746,2.4666578525712506,0.0,0.0,0.011788276890320934,2.467941239461925,0.0,0.0,0.0,0.0,0.0,0.0,0.0,0.0,0.0,0.0,0.0,0.0,0.0,0.0,
0.7793,2.4894656222172884,2.448187866580172,2.4669030454752936,0.0,0.0,0.01179106808187329,2.468185511424251,0.0,0.0,0.0,0.0,0.0,0.0,0.0,0.0,0.0,0.0,0.0,0.0,0.0,0.0,
0.7955,2.489715646055224,2.448432926533524,2.4671519902259575,0.0,0.0,0.011793902381930586,2.4684335209382353,0.0,0.0,0.0,0.0,0.0,0.0,0.0,0.0,0.0,0.0,0.0,0.0,0.0,0.0,
0.8117,2.489970940251524,2.448683151513732,2.467406182556767,0.0,0.0,0.011796796841244279,2.468686758107341,0.0,0.0,0.0,0.0,0.0,0.0,0.0,0.0,0.0,0.0,0.0,0.0,0.0,0.0,
0.828,2.4902331375326803,2.4489401417736394,2.4676672481429898,0.0,0.0,0.011799770000772581,2.468946842483103,0.0,0.0,0.0,0.0,0.0,0.0,0.0,0.0,0.0,0.0,0.0,0.0,0.0,0.0,
0.8442,2.490499028814181,2.449200751910122,2.4679319917469162,0.0,0.0,0.01180278549756094,2.46921059082374,0.0,0.0,0.0,0.0,0.0,0.0,0.0,0.0,0.0,0.0,0.0,0.0,0.0,0.0,
0.8604,2.4907702145606088,2.449466550556542,2.468202006920756,0.0,0.0,0.011805861505122243,2.469479590679302,0.0,0.0,0.0,0.0,0.0,0.0,0.0,0.0,0.0,0.0,0.0,0.0,0.0,0.0,
0.8767,2.49104842634121,2.4497392348257403,2.4684790177541527,0.0,0.0,0.01180901769590008,2.4697555596403675,0.0,0.0,0.0,0.0,0.0,0.0,0.0,0.0,0.0,0.0,0.0,0.0,0.0,0.0,
0.8929,2.491330259096964,2.4500154672577015,2.4687596338813305,0.0,0.0,0.011812215468698217,2.470035120078665,0.0,0.0,0.0,0.0,0.0,0.0,0.0,0.0,0.0,0.0,0.0,0.0,0.0,0.0,
0.9091,2.491617411986632,2.4502969132009387,2.469045547120988,0.0,0.0,0.011815474126339591,2.4703199574361863,0.0,0.0,0.0,0.0,0.0,0.0,0.0,0.0,0.0,0.0,0.0,0.0,0.0,0.0,
0.9254,2.4919117159110913,2.4505853671042326,2.469338580463421,0.0,0.0,0.01181881447986069,2.4706118878262484,0.0,0.0,0.0,0.0,0.0,0.0,0.0,0.0,0.0,0.0,0.0,0.0,0.0,0.0,
0.9416,2.492209568891958,2.4508772985301865,2.4696351474745577,0.0,0.0,0.011822195676039737,2.4709073382989004,0.0,0.0,0.0,0.0,0.0,0.0,0.0,0.0,0.0,0.0,0.0,0.0,0.0,0.0,
0.9579,2.492514657494599,2.4511763206929627,2.469938918796374,0.0,0.0,0.011825659594436813,2.471209965661312,0.0,0.0,0.0,0.0,0.0,0.0,0.0,0.0,0.0,0.0,0.0,0.0,0.0,0.0,
0.9741,2.49282324777181,2.451478773831365,2.470246176596608,0.0,0.0,0.011829163870852782,2.4715160660665942,0.0,0.0,0.0,0.0,0.0,0.0,0.0,0.0,0.0,0.0,0.0,0.0,0.0,0.0,
0.9903,2.4931372045213314,2.4517864856044653,2.4705587776140545,0.0,0.0,0.011832729706781243,2.471827489246617,0.0,0.0,0.0,0.0,0.0,0.0,0.0,0.0,0.0,0.0,0.0,0.0,0.0,0.0,
1.0066,2.4934585254336925,2.452101413891956,2.4708787109039756,0.0,0.0,0.011836379828674227,2.4721462167432082,0.0,0.0,0.0,0.0,0.0,0.0,0.0,0.0,0.0,0.0,0.0,0.0,0.0,0.0,
1.0228,2.4937832779369153,2.452419704294134,2.4712020608686913,0.0,0.0,0.011840069595444572,2.472468347699914,0.0,0.0,0.0,0.0,0.0,0.0,0.0,0.0,0.0,0.0,0.0,0.0,0.0,0.0,
1.039,2.49411342686866,2.4527432824950886,2.471530783852115,0.0,0.0,0.011843821357449292,2.4727958310719544,0.0,0.0,0.0,0.0,0.0,0.0,0.0,0.0,0.0,0.0,0.0,0.0,0.0,0.0,
1.0553,2.494451070703378,2.4530742051237993,2.471866969254642,0.0,0.0,0.01184765900081725,2.473130748360606,0.0,0.0,0.0,0.0,0.0,0.0,0.0,0.0,0.0,0.0,0.0,0.0,0.0,0.0,
1.0715,2.494792077141777,2.4534084220683887,2.47220650261625,0.0,0.0,0.011851535591517174,2.473469000608805,0.0,0.0,0.0,0.0,0.0,0.0,0.0,0.0,0.0,0.0,0.0,0.0,0.0,0.0,
1.0877,2.4951385116218443,2.4537479575832983,2.472551440443249,0.0,0.0,0.011855474636898544,2.473812636549464,0.0,0.0,0.0,0.0,0.0,0.0,0.0,0.0,0.0,0.0,0.0,0.0,0.0,0.0,
1.104,2.4954925740034337,2.454094967631903,2.4729039730793754,0.0,0.0,0.011859501191486115,2.4741638382382374,0.0,0.0,0.0,0.0,0.0,0.0,0.0,0.0,0.0,0.0,0.0,0.0,0.0,0.0,
1.1202,2.495849931096656,2.4544452052574997,2.473259786044862,0.0,0.0,0.011863566011372973,2.474518307466339,0.0,0.0,0.0,0.0,0.0,0.0,0.0,0.0,0.0,0.0,0.0,0.0,0.0,0.0,
1.1364,2.496212749531357,2.4548007938603815,2.4736210365967164,0.0,0.0,0.011867693769477057,2.4748781933294848,0.0,0.0,0.0,0.0,0.0,0.0,0.0,0.0,0.0,0.0,0.0,0.0,0.0,0.0,
1.1527,2.4965833311863346,2.45516398935456,2.4739900166519524,0.0,0.0,0.011871910697890993,2.475245779064282,0.0,0.0,0.0,0.0,0.0,0.0,0.0,0.0,0.0,0.0,0.0,0.0,0.0,0.0,
1.1689,2.4969571407557067,2.4555303467456557,2.474362210492068,0.0,0.0,0.011876165225014727,2.4756165659978104,0.0,0.0,0.0,0.0,0.0,0.0,0.0,0.0,0.0,0.0,0.0,0.0,0.0,0.0,
1.1851,2.497336446684674,2.455902089186206,2.4747398767447217,0.0,0.0,0.011880483198361061,2.4759928042052004,0.0,0.0,0.0,0.0,0.0,0.0,0.0,0.0,0.0,0.0,0.0,0.0,0.0,0.0,
1.2014,2.49772365353706,2.4562815731886083,2.4751254095623985,0.0,0.0,0.011884892037225687,2.476376878762689,0.0,0.0,0.0,0.0,0.0,0.0,0.0,0.0,0.0,0.0,0.0,0.0,0.0,0.0,
1.2176,2.498114022602554,2.456664154466761,2.475514090706308,0.0,0.0,0.011889337823594704,2.4767640892585407,0.0,0.0,0.0,0.0,0.0,0.0,0.0,0.0,0.0,0.0,0.0,0.0,0.0,0.0,
1.2338,2.4985099247974922,2.457052156563238,2.475908280826741,0.0,0.0,0.011893847589062692,2.4771567873958236,0.0,0.0,0.0,0.0,0.0,0.0,0.0,0.0,0.0,0.0,0.0,0.0,0.0,0.0,
1.2501,2.498913868070116,2.4574480372687546,2.476310477006992,0.0,0.0,0.011898449950232048,2.4775574607819544,0.0,0.0,0.0,0.0,0.0,0.0,0.0,0.0,0.0,0.0,0.0,0.0,0.0,0.0,
1.2663,2.49932090895283,2.457846951689106,2.4767157571424008,0.0,0.0,0.011903088623038252,2.4779612059281124,0.0,0.0,0.0,0.0,0.0,0.0,0.0,0.0,0.0,0.0,0.0,0.0,0.0,0.0,
1.2826,2.4997360858432702,2.4582538375319483,2.4771291378169513,0.0,0.0,0.011907821066086498,2.47837302039739,0.0,0.0,0.0,0.0,0.0,0.0,0.0,0.0,0.0,0.0,0.0,0.0,0.0,0.0,
1.2988,2.5001543178437515,2.4586637152632664,2.4775455600951597,0.0,0.0,0.011912589404940365,2.478787864400726,0.0,0.0,0.0,0.0,0.0,0.0,0.0,0.0,0.0,0.0,0.0,0.0,0.0,0.0,
1.315,2.5005781482745695,2.459079077316577,2.477967556274378,0.0,0.0,0.01191742266784226,2.4792082606218417,0.0,0.0,0.0,0.0,0.0,0.0,0.0,0.0,0.0,0.0,0.0,0.0,0.0,0.0,
1.3313,2.5010102591099885,2.45950255195066,2.4783977966974238,0.0,0.0,0.011922351491494093,2.479636869252691,0.0,0.0,0.0,0.0,0.0,0.0,0.0,0.0,0.0,0.0,0.0,0.0,0.0,0.0,
1.3475,2.5014453622926576,2.4599289566864693,2.478831016174169,0.0,0.0,0.011927315600586354,2.480068445051099,0.0,0.0,0.0,0.0,0.0,0.0,0.0,0.0,0.0,0.0,0.0,0.0,0.0,0.0,
1.3637,2.5018861055270207,2.4603608862070288,2.479269850926057,0.0,0.0,0.011932345235052053,2.4805056142200357,0.0,0.0,0.0,0.0,0.0,0.0,0.0,0.0,0.0,0.0,0.0,0.0,0.0,0.0,
1.38,2.5023352762053,2.460801072025519,2.4797170762476832,0.0,0.0,0.01193747225820651,2.480951141492834,0.0,0.0,0.0,0.0,0.0,0.0,0.0,0.0,0.0,0.0,0.0,0.0,0.0,0.0,
1.3962,2.502787377579505,2.461244127229013,2.480167219172028,0.0,0.0,0.011942633971708114,2.481399574660182,0.0,0.0,0.0,0.0,0.0,0.0,0.0,0.0,0.0,0.0,0.0,0.0,0.0,0.0,
1.4124,2.5032451625186685,2.461692749508366,2.480623020620313,0.0,0.0,0.01194786183841734,2.4818536442157826,0.0,0.0,0.0,0.0,0.0,0.0,0.0,0.0,0.0,0.0,0.0,0.0,0.0,0.0,
1.4287,2.5037115246605914,2.4621497744350354,2.481087361661154,0.0,0.0,0.011953188960158921,2.4823162202522604,0.0,0.0,0.0,0.0,0.0,0.0,0.0,0.0,0.0,0.0,0.0,0.0,0.0,0.0,
1.4449,2.504180756966126,2.4626096091061664,2.481554559959613,0.0,0.0,0.011958550192422245,2.482781642010635,0.0,0.0,0.0,0.0,0.0,0.0,0.0,0.0,0.0,0.0,0.0,0.0,0.0,0.0,
1.4611,2.5046557182852176,2.4630750550133085,2.4820274619476925,0.0,0.0,0.01196397823273026,2.4832527450820727,0.0,0.0,0.0,0.0,0.0,0.0,0.0,0.0,0.0,0.0,0.0,0.0,0.0,0.0,
1.4774,2.505139409365606,2.463549052625489,2.482509055326762,0.0,0.0,0.011969507433821717,2.4837325057726187,0.0,0.0,0.0,0.0,0.0,0.0,0.0,0.0,0.0,0.0,0.0,0.0,0.0,0.0,
1.4936,2.5056259112054695,2.464025801425296,2.4829934467325474,0.0,0.0,0.011975070180885077,2.4842150531211042,0.0,0.0,0.0,0.0,0.0,0.0,0.0,0.0,0.0,0.0,0.0,0.0,0.0,0.0,
1.5098,2.5061181894884887,2.4645082075331572,2.483483588955107,0.0,0.0,0.011980700418346832,2.484703328658918,0.0,0.0,0.0,0.0,0.0,0.0,0.0,0.0,0.0,0.0,0.0,0.0,0.0,0.0,
1.5261,2.506619352974484,2.4649993171913747,2.483982577224581,0.0,0.0,0.011986433762783546,2.4852004157968133,0.0,0.0,0.0,0.0,0.0,0.0,0.0,0.0,0.0,0.0,0.0,0.0,0.0,0.0,
1.5423,2.5071232689547407,2.4654931205730874,2.4844843054139534,0.0,0.0,0.011992200103936526,2.4857002316472605,0.0,0.0,0.0,0.0,0.0,0.0,0.0,0.0,0.0,0.0,0.0,0.0,0.0,0.0,
1.5585,2.5076330108370097,2.465992629291913,2.4849918335556755,0.0,0.0,0.011998034645892747,2.4862058245615324,0.0,0.0,0.0,0.0,0.0,0.0,0.0,0.0,0.0,0.0,0.0,0.0,0.0,0.0,
1.5748,2.508151796333922,2.4665009962763573,2.4855083653428838,0.0,0.0,0.012003974282519736,2.4867203859843876,0.0,0.0,0.0,0.0,0.0,0.0,0.0,0.0,0.0,0.0,0.0,0.0,0.0,0.0,
1.591,2.5086732772112312,2.467012000623442,2.4860275800787415,0.0,0.0,0.012009946381930934,2.4872376193044716,0.0,0.0,0.0,0.0,0.0,0.0,0.0,0.0,0.0,0.0,0.0,0.0,0.0,0.0,
1.6072,2.5092006355294036,2.4675287603411915,2.4865526459603693,0.0,0.0,0.012015987421156631,2.4877606806103216,0.0,0.0,0.0,0.0,0.0,0.0,0.0,0.0,0.0,0.0,0.0,0.0,0.0,0.0,
1.6235,2.5097371989343635,2.468054535995463,2.4870868761174023,0.0,0.0,0.012022135585347874,2.4882928703490763,0.0,0.0,0.0,0.0,0.0,0.0,0.0,0.0,0.0,0.0,0.0,0.0,0.0,0.0,
1.6397,2.51027640177133,2.468582893766874,2.4876237334005316,0.0,0.0,0.012028315693754708,2.4888276763129116,0.0,0.0,0.0,0.0,0.0,0.0,0.0,0.0,0.0,0.0,0.0,0.0,0.0,0.0,
1.656,2.5108249192028063,2.4691203743849894,2.4881698638876086,0.0,0.0,0.012034604306302423,2.489371719158468,0.0,0.0,0.0,0.0,0.0,0.0,0.0,0.0,0.0,0.0,0.0,0.0,0.0,0.0,
1.6722,2.5113760393853433,2.469660400879383,2.4887185848939124,0.0,0.0,0.01204092452557054,2.4899183417195463,0.0,0.0,0.0,0.0,0.0,0.0,0.0,0.0,0.0,0.0,0.0,0.0,0.0,0.0,
1.6884,2.5119331277142245,2.4702062707625068,2.4892732471221892,0.0,0.0,0.012047314982032098,2.490470881866307,0.0,0.0,0.0,0.0,0.0,0.0,0.0,0.0,0.0,0.0,0.0,0.0,0.0,0.0,
1.7047,2.512499697423987,2.470761426291334,2.489837348445689,0.0,0.0,0.012053816046476989,2.49103282405367,0.0,0.0,0.0,0.0,0.0,0.0,0.0,0.0,0.0,0.0,0.0,0.0,0.0,0.0,
1.7209,2.5130688159161436,2.4713190743420936,2.490403986415137,0.0,0.0,0.012060348224806916,2.491597292224458,0.0,0.0,0.0,0.0,0.0,0.0,0.0,0.0,0.0,0.0,0.0,0.0,0.0,0.0,
1.7371,2.5136439599111657,2.471882621413622,2.490976622551109,0.0,0.0,0.012066951458518988,2.492167734625299,0.0,0.0,0.0,0.0,0.0,0.0,0.0,0.0,0.0,0.0,0.0,0.0,0.0,0.0,
1.7534,2.514228755394032,2.4724556201313774,2.4915588669595645,0.0,0.0,0.012073667449731566,2.4927477474949913,0.0,0.0,0.0,0.0,0.0,0.0,0.0,0.0,0.0,0.0,0.0,0.0,0.0,0.0,
1.7696,2.514816046902969,2.4730310591726594,2.492143595333169,0.0,0.0,0.012080414077512956,2.4933302338029324,0.0,0.0,0.0,0.0,0.0,0.0,0.0,0.0,0.0,0.0,0.0,0.0,0.0,0.0,
1.7858,2.5154094235617808,2.47361245506773,2.4927343810803597,0.0,0.0,0.012087232609686176,2.4939187532366236,0.0,0.0,0.0,0.0,0.0,0.0,0.0,0.0,0.0,0.0,0.0,0.0,0.0,0.0,
1.8021,2.5160126252411352,2.4742034719103483,2.4933349476661437,0.0,0.0,0.012094166095763912,2.494517014939209,0.0,0.0,0.0,0.0,0.0,0.0,0.0,0.0,0.0,0.0,0.0,0.0,0.0,0.0,
1.8183,2.5166182714237744,2.47479687805256,2.4939379467486256,0.0,0.0,0.012101129756689269,2.4951176987416535,0.0,0.0,0.0,0.0,0.0,0.0,0.0,0.0,0.0,0.0,0.0,0.0,0.0,0.0,
1.8345,2.517230064758486,2.4753963011426707,2.4945470647370027,0.0,0.0,0.012108166202489345,2.4957244768793867,0.0,0.0,0.0,0.0,0.0,0.0,0.0,0.0,0.0,0.0,0.0,0.0,0.0,0.0,
1.8508,2.5178518601817927,2.4760055178858,2.4951661396261025,0.0,0.0,0.012115319846730574,2.496341172564565,0.0,0.0,0.0,0.0,0.0,0.0,0.0,0.0,0.0,0.0,0.0,0.0,0.0,0.0,
1.867,2.5184760498425263,2.476617074099471,2.4957875967777934,0.0,0.0,0.01212250321977698,2.4969602402399302,0.0,0.0,0.0,0.0,0.0,0.0,0.0,0.0,0.0,0.0,0.0,0.0,0.0,0.0,
1.8832,2.5191064510806784,2.4772347096796175,2.49641523675891,0.0,0.0,0.012129760290327437,2.497585465839735,0.0,0.0,0.0,0.0,0.0,0.0,0.0,0.0,0.0,0.0,0.0,0.0,0.0,0.0,
1.8995,2.5197470351252487,2.477862315130017,2.497053013310602,0.0,0.0,0.012137136853266315,2.498220787855289,0.0,0.0,0.0,0.0,0.0,0.0,0.0,0.0,0.0,0.0,0.0,0.0,0.0,0.0,
