energies(eV),real_xx,real_yy,real_zz,real_xy,real_yz,real_xz,real_ave,imag_xx,imag_yy,imag_zz,imag_xy,imag_yz,imag_xz,imag_ave,absorption_xx,absorption_yy,absorption_zz,absorption_xy,absorption_yz,absorption_xz,absorption_ave,band_gap
0.0,2.8135546285842192,2.9710435418755106,2.856666473506335,0.0,0.0,0.0,2.880421547988688,0.0,0.0,0.0,0.0,0.0,0.0,0.0,0.0,0.0,0.0,0.0,0.0,0.0,0.0,6.417
0.0228,2.8135614589806934,2.9710513873993696,2.856673447731504,0.0,0.0,0.0,2.8804287647038556,0.0,0.0,0.0,0.0,0.0,0.0,0.0,0.0,0.0,0.0,0.0,0.0,0.0,0.0,
0.0455,2.813581830895631,2.9710747869657697,2.8566942486100766,0.0,0.0,0.0,2.8804502888238255,0.0,0.0,0.0,0.0,0.0,0.0,0.0,0.0,0.0,0.0,0.0,0.0,0.0,0.0,
0.0683,2.8136159251007093,2.9711139481997138,2.856729060687595,0.0,0.0,0.0,2.880486311329339,0.0,0.0,0.0,0.0,0.0,0.0,0.0,0.0,0.0,0.0,0.0,0.0,0.0,0.0,
0.0911,2.8136636839578673,2.9711688048756697,2.85677782505776,0.0,0.0,0.0,2.880536771297099,0.0,0.0,0.0,0.0,0.0,0.0,0.0,0.0,0.0,0.0,0.0,0.0,0.0,0.0,
0.1139,2.8137251104744445,2.971239360417947,2.856840544714758,0.0,0.0,0.0,2.8806016718690497,0.0,0.0,0.0,0.0,0.0,0.0,0.0,0.0,0.0,0.0,0.0,0.0,0.0,0.0,
0.1366,2.8137998492851857,2.97132520660996,2.8569168567153906,0.0,0.0,0.0,2.880680637536845,0.0,0.0,0.0,0.0,0.0,0.0,0.0,0.0,0.0,0.0,0.0,0.0,0.0,0.0,
0.1594,2.813888563593334,2.971427105170415,2.8570074381029507,0.0,0.0,0.0,2.8807743689555667,0.0,0.0,0.0,0.0,0.0,0.0,0.0,0.0,0.0,0.0,0.0,0.0,0.0,0.0,
0.1822,2.8139909597273904,2.9715447187272694,2.8571119888817087,0.0,0.0,0.0,2.88088255577879,0.0,0.0,0.0,0.0,0.0,0.0,0.0,0.0,0.0,0.0,0.0,0.0,0.0,0.0,
0.2049,2.8141065051022576,2.971677435482662,2.8572299650990125,0.0,0.0,0.0,2.8810046352279777,0.0,0.0,0.0,0.0,0.0,0.0,0.0,0.0,0.0,0.0,0.0,0.0,0.0,0.0,
0.2277,2.8142362250293336,2.971826433047552,2.8573624134510744,0.0,0.0,0.0,2.8811416905093203,0.0,0.0,0.0,0.0,0.0,0.0,0.0,0.0,0.0,0.0,0.0,0.0,0.0,0.0,
0.2505,2.8143796487032877,2.971991170566046,2.857508853018129,0.0,0.0,0.0,2.8812932240958204,0.0,0.0,0.0,0.0,0.0,0.0,0.0,0.0,0.0,0.0,0.0,0.0,0.0,0.0,
0.2732,2.814536066025168,2.9721708323234677,2.857668558544985,0.0,0.0,0.0,2.8814584856312067,0.0,0.0,0.0,0.0,0.0,0.0,0.0,0.0,0.0,0.0,0.0,0.0,0.0,0.0,
0.296,2.8147068650032114,2.972367012492257,2.857842946966411,0.0,0.0,0.0,2.8816389414872936,0.0,0.0,0.0,0.0,0.0,0.0,0.0,0.0,0.0,0.0,0.0,0.0,0.0,0.0,
0.3188,2.8148913974413627,2.9725789664391566,2.858031356182336,0.0,0.0,0.0,2.881833906687618,0.0,0.0,0.0,0.0,0.0,0.0,0.0,0.0,0.0,0.0,0.0,0.0,0.0,0.0,
0.3416,2.815089675001821,2.9728067074386617,2.8582337978018453,0.0,0.0,0.0,2.882043393414109,0.0,0.0,0.0,0.0,0.0,0.0,0.0,0.0,0.0,0.0,0.0,0.0,0.0,0.0,
0.3643,2.8153007501868115,2.973049147071854,2.8584493041194694,0.0,0.0,0.0,2.8822664004593785,0.0,0.0,0.0,0.0,0.0,0.0,0.0,0.0,0.0,0.0,0.0,0.0,0.0,0.0,
0.3871,2.8155264960556896,2.973308436582852,2.8586797871736476,0.0,0.0,0.0,2.8825049066040633,0.0,0.0,0.0,0.0,0.0,0.0,0.0,0.0,0.0,0.0,0.0,0.0,0.0,0.0,
0.4099,2.815766027235918,2.9735835588858954,2.8589243426347144,0.0,0.0,0.0,2.882757976252176,0.0,0.0,0.0,0.0,0.0,0.0,0.0,0.0,0.0,0.0,0.0,0.0,0.0,0.0,
0.4326,2.8160182176475335,2.973873220425989,2.859181820429706,0.0,0.0,0.0,2.8830244195010764,0.0,0.0,0.0,0.0,0.0,0.0,0.0,0.0,0.0,0.0,0.0,0.0,0.0,0.0,
0.4554,2.816285305237148,2.974179991498338,2.859454505014331,0.0,0.0,0.0,2.8833066005832726,0.0,0.0,0.0,0.0,0.0,0.0,0.0,0.0,0.0,0.0,0.0,0.0,0.0,0.0,
0.4782,2.816566226260726,2.9745026501196343,2.859741309900536,0.0,0.0,0.0,2.8836033954269653,0.0,0.0,0.0,0.0,0.0,0.0,0.0,0.0,0.0,0.0,0.0,0.0,0.0,0.0,
0.501,2.8168609985629436,2.974841216591372,2.860042252846978,0.0,0.0,0.0,2.883914822667098,0.0,0.0,0.0,0.0,0.0,0.0,0.0,0.0,0.0,0.0,0.0,0.0,0.0,0.0,
0.5237,2.817168256879408,2.975194122616764,2.860355939550522,0.0,0.0,0.0,2.8842394396822315,0.0,0.0,0.0,0.0,0.0,0.0,0.0,0.0,0.0,0.0,0.0,0.0,0.0,0.0,
0.5465,2.817490727900049,2.975564499758281,2.8606851532426427,0.0,0.0,0.0,2.8845801269669913,0.0,0.0,0.0,0.0,0.0,0.0,0.0,0.0,0.0,0.0,0.0,0.0,0.0,0.0,
0.5693,2.8178271090368288,2.975950851675898,2.861028563542931,0.0,0.0,0.0,2.8849355080852193,0.0,0.0,0.0,0.0,0.0,0.0,0.0,0.0,0.0,0.0,0.0,0.0,0.0,0.0,
0.592,2.8181758548311433,2.9763514030977385,2.8613845921741805,0.0,0.0,0.0,2.8853039500343542,0.0,0.0,0.0,0.0,0.0,0.0,0.0,0.0,0.0,0.0,0.0,0.0,0.0,0.0,
0.6148,2.818540060212447,2.9767697084454507,2.8617563981185494,0.0,0.0,0.0,2.885688722258816,0.0,0.0,0.0,0.0,0.0,0.0,0.0,0.0,0.0,0.0,0.0,0.0,0.0,0.0,
0.6376,2.8189182426989485,2.977204064743714,2.8621424673195994,0.0,0.0,0.0,2.8860882582540874,0.0,0.0,0.0,0.0,0.0,0.0,0.0,0.0,0.0,0.0,0.0,0.0,0.0,0.0,
0.6604,2.8193104264877853,2.977654499501403,2.862542823848618,0.0,0.0,0.0,2.886502583279269,0.0,0.0,0.0,0.0,0.0,0.0,0.0,0.0,0.0,0.0,0.0,0.0,0.0,0.0,
0.6831,2.819714824416231,2.9781189598309243,2.862955642687327,0.0,0.0,0.0,2.8869298089781608,0.0,0.0,0.0,0.0,0.0,0.0,0.0,0.0,0.0,0.0,0.0,0.0,0.0,0.0,
0.7059,2.8201350254188764,2.9786015673964217,2.863384586824969,0.0,0.0,0.0,2.8873737265467554,0.0,0.0,0.0,0.0,0.0,0.0,0.0,0.0,0.0,0.0,0.0,0.0,0.0,0.0,
0.7287,2.8205693057718886,2.97910034212919,2.8638278959223564,0.0,0.0,0.0,2.887832514607812,0.0,0.0,0.0,0.0,0.0,0.0,0.0,0.0,0.0,0.0,0.0,0.0,0.0,0.0,
0.7514,2.8210156959480743,2.9796130216920345,2.8642835588247775,0.0,0.0,0.0,2.888304092154962,0.0,0.0,0.0,0.0,0.0,0.0,0.0,0.0,0.0,0.0,0.0,0.0,0.0,0.0,
0.7742,2.8214781576683436,2.980144155769394,2.8647556187917127,0.0,0.0,0.0,2.8887926440764837,0.0,0.0,0.0,0.0,0.0,0.0,0.0,0.0,0.0,0.0,0.0,0.0,0.0,0.0,
0.797,2.821954785237719,2.9806915552873434,2.8652421297375263,0.0,0.0,0.0,2.8892961567541966,0.0,0.0,0.0,0.0,0.0,0.0,0.0,0.0,0.0,0.0,0.0,0.0,0.0,0.0,
0.8197,2.8224434256590962,2.98125274719916,2.8657408932699466,0.0,0.0,0.0,2.8898123553760677,0.0,0.0,0.0,0.0,0.0,0.0,0.0,0.0,0.0,0.0,0.0,0.0,0.0,0.0,
0.8425,2.8229484157641247,2.981832711846443,2.8662563352283716,0.0,0.0,0.0,2.890345820946313,0.0,0.0,0.0,0.0,0.0,0.0,0.0,0.0,0.0,0.0,0.0,0.0,0.0,0.0,
0.8653,2.8234676668222236,2.982429049936216,2.866786322720177,0.0,0.0,0.0,2.8908943464928725,0.0,0.0,0.0,0.0,0.0,0.0,0.0,0.0,0.0,0.0,0.0,0.0,0.0,0.0,
0.8881,2.824001212526052,2.9830417997184275,2.8673308892377682,0.0,0.0,0.0,2.891457967160749,0.0,0.0,0.0,0.0,0.0,0.0,0.0,0.0,0.0,0.0,0.0,0.0,0.0,0.0,
0.9108,2.8245466532546644,2.9836682049244603,2.8678875847477316,0.0,0.0,0.0,2.8920341476422853,0.0,0.0,0.0,0.0,0.0,0.0,0.0,0.0,0.0,0.0,0.0,0.0,0.0,0.0,
0.9336,2.8251088301897522,2.9843138248724435,2.8684613493753472,0.0,0.0,0.0,2.8926280014791814,0.0,0.0,0.0,0.0,0.0,0.0,0.0,0.0,0.0,0.0,0.0,0.0,0.0,0.0,
0.9564,2.8256854086215704,2.9849759777749076,2.869049799225618,0.0,0.0,0.0,2.893237061874032,0.0,0.0,0.0,0.0,0.0,0.0,0.0,0.0,0.0,0.0,0.0,0.0,0.0,0.0,
0.9791,2.826273802455572,2.98565169323308,2.8696502940368647,0.0,0.0,0.0,2.8938585965751717,0.0,0.0,0.0,0.0,0.0,0.0,0.0,0.0,0.0,0.0,0.0,0.0,0.0,0.0,
1.0019,2.8268792343185423,2.9863469684015316,2.8702681628056785,0.0,0.0,0.0,2.894498121841918,0.0,0.0,0.0,0.0,0.0,0.0,0.0,0.0,0.0,0.0,0.0,0.0,0.0,0.0,
1.0247,2.8274991835606644,2.9870589079642205,2.870900831937276,0.0,0.0,0.0,2.8951529744873867,0.0,0.0,0.0,0.0,0.0,0.0,0.0,0.0,0.0,0.0,0.0,0.0,0.0,0.0,
1.0475,2.828133690912865,2.9877875581024735,2.8715483418936216,0.0,0.0,0.0,2.8958231969696535,0.0,0.0,0.0,0.0,0.0,0.0,0.0,0.0,0.0,0.0,0.0,0.0,0.0,0.0,
1.0702,2.828779919244226,2.988529660173043,2.8722077963795973,0.0,0.0,0.0,2.8965057919322894,0.0,0.0,0.0,0.0,0.0,0.0,0.0,0.0,0.0,0.0,0.0,0.0,0.0,0.0,
1.093,2.8294436048539793,2.989291800866094,2.8728850479336936,0.0,0.0,0.0,2.8972068178845887,0.0,0.0,0.0,0.0,0.0,0.0,0.0,0.0,0.0,0.0,0.0,0.0,0.0,0.0,
1.1158,2.8301219768365207,2.9900707975005743,2.873577267700715,0.0,0.0,0.0,2.897923347345936,0.0,0.0,0.0,0.0,0.0,0.0,0.0,0.0,0.0,0.0,0.0,0.0,0.0,0.0,
1.1385,2.8308120079671406,2.990863173184681,2.874281365554876,0.0,0.0,0.0,2.8986521822355655,0.0,0.0,0.0,0.0,0.0,0.0,0.0,0.0,0.0,0.0,0.0,0.0,0.0,0.0,
1.1613,2.8315198236512806,2.9916759611162993,2.875003590509726,0.0,0.0,0.0,2.8993997917591017,0.0,0.0,0.0,0.0,0.0,0.0,0.0,0.0,0.0,0.0,0.0,0.0,0.0,0.0,
1.1841,2.8322424635281194,2.9925057610845966,2.875740920511405,0.0,0.0,0.0,2.9001630483747065,0.0,0.0,0.0,0.0,0.0,0.0,0.0,0.0,0.0,0.0,0.0,0.0,0.0,0.0,
1.2068,2.832976708530927,2.9933488759623037,2.876490069864696,0.0,0.0,0.0,2.9009385514526422,0.0,0.0,0.0,0.0,0.0,0.0,0.0,0.0,0.0,0.0,0.0,0.0,0.0,0.0,
1.2296,2.833729076879157,2.9942127896469355,2.877257687736172,0.0,0.0,0.0,2.901733184754088,0.0,0.0,0.0,0.0,0.0,0.0,0.0,0.0,0.0,0.0,0.0,0.0,0.0,0.0,
1.2524,2.834496417055651,2.9950938824632978,2.878040557180835,0.0,0.0,0.0,2.902543618899928,0.0,0.0,0.0,0.0,0.0,0.0,0.0,0.0,0.0,0.0,0.0,0.0,0.0,0.0,
1.2752,2.8352787805774167,2.9959922126900875,2.8788387293158157,0.0,0.0,0.0,2.903369907527773,0.0,0.0,0.0,0.0,0.0,0.0,0.0,0.0,0.0,0.0,0.0,0.0,0.0,0.0,
1.2979,2.836072689561357,2.9969037861134655,2.8796486546746767,0.0,0.0,0.0,2.9042083767831666,0.0,0.0,0.0,0.0,0.0,0.0,0.0,0.0,0.0,0.0,0.0,0.0,0.0,0.0,
1.3207,2.8368851924011436,2.997836694821938,2.8804775223343446,0.0,0.0,0.0,2.9050664698524753,0.0,0.0,0.0,0.0,0.0,0.0,0.0,0.0,0.0,0.0,0.0,0.0,0.0,0.0,
1.3435,2.8377128797536266,2.9987870231662295,2.8813218525579156,0.0,0.0,0.0,2.9059405851592572,0.0,0.0,0.0,0.0,0.0,0.0,0.0,0.0,0.0,0.0,0.0,0.0,0.0,0.0,
1.3662,2.8385520773312463,2.9997505515167227,2.882177895774149,0.0,0.0,0.0,2.906826841540706,0.0,0.0,0.0,0.0,0.0,0.0,0.0,0.0,0.0,0.0,0.0,0.0,0.0,0.0,
1.389,2.839410236039516,3.0007358336115004,2.8830532508265128,0.0,0.0,0.0,2.907733106825843,0.0,0.0,0.0,0.0,0.0,0.0,0.0,0.0,0.0,0.0,0.0,0.0,0.0,0.0,
1.4118,2.8402837509321777,3.001738729284711,2.8839442386652214,0.0,0.0,0.0,2.908655572960703,0.0,0.0,0.0,0.0,0.0,0.0,0.0,0.0,0.0,0.0,0.0,0.0,0.0,0.0,
1.4346,2.841172681712657,3.002759305946566,2.8848509184725994,0.0,0.0,0.0,2.9095943020439408,0.0,0.0,0.0,0.0,0.0,0.0,0.0,0.0,0.0,0.0,0.0,0.0,0.0,0.0,
1.4573,2.8420730887238097,3.0037930394461845,2.885769270394708,0.0,0.0,0.0,2.910545132854901,0.0,0.0,0.0,0.0,0.0,0.0,0.0,0.0,0.0,0.0,0.0,0.0,0.0,0.0,
1.4801,2.842992966995584,3.0048491074481416,2.8867074470073293,0.0,0.0,0.0,2.9115165071503513,0.0,0.0,0.0,0.0,0.0,0.0,0.0,0.0,0.0,0.0,0.0,0.0,0.0,0.0,
1.5029,2.843928447362785,3.0059230665548102,2.8876615001144232,0.0,0.0,0.0,2.9125043380106725,0.0,0.0,0.0,0.0,0.0,0.0,0.0,0.0,0.0,0.0,0.0,0.0,0.0,0.0,
1.5256,2.8448753884883633,3.0070101612197435,2.8886272045178254,0.0,0.0,0.0,2.913504251408644,0.0,0.0,0.0,0.0,0.0,0.0,0.0,0.0,0.0,0.0,0.0,0.0,0.0,0.0,
1.5484,2.8458421991609666,3.008120043429598,2.889613133697293,0.0,0.0,0.0,2.914525125429286,0.0,0.0,0.0,0.0,0.0,0.0,0.0,0.0,0.0,0.0,0.0,0.0,0.0,0.0,
1.5712,2.846824809461987,3.009248039427992,2.8906151350270255,0.0,0.0,0.0,2.915562661305668,0.0,0.0,0.0,0.0,0.0,0.0,0.0,0.0,0.0,0.0,0.0,0.0,0.0,0.0,
1.594,2.8478232879214134,3.0103942264195145,2.8916332763634562,0.0,0.0,0.0,2.916616930234795,0.0,0.0,0.0,0.0,0.0,0.0,0.0,0.0,0.0,0.0,0.0,0.0,0.0,0.0,
1.6167,2.8488332202944333,3.011553535799434,2.8926630547425,0.0,0.0,0.0,2.9176832702787885,0.0,0.0,0.0,0.0,0.0,0.0,0.0,0.0,0.0,0.0,0.0,0.0,0.0,0.0,
1.6395,2.849863575589694,3.0127362615959288,2.8937136133062804,0.0,0.0,0.0,2.918771150163968,0.0,0.0,0.0,0.0,0.0,0.0,0.0,0.0,0.0,0.0,0.0,0.0,0.0,0.0,
1.6623,2.8509100123054796,3.013937418474615,2.8947805229696284,0.0,0.0,0.0,2.919875984583241,0.0,0.0,0.0,0.0,0.0,0.0,0.0,0.0,0.0,0.0,0.0,0.0,0.0,0.0,
1.685,2.851967908475525,3.015151699599662,2.895859069429783,0.0,0.0,0.0,2.9209928925016566,0.0,0.0,0.0,0.0,0.0,0.0,0.0,0.0,0.0,0.0,0.0,0.0,0.0,0.0,
1.7078,2.853046659787129,3.0163898878444937,2.896958829512253,0.0,0.0,0.0,2.9221317923812915,0.0,0.0,0.0,0.0,0.0,0.0,0.0,0.0,0.0,0.0,0.0,0.0,0.0,0.0,
1.7306,2.854141718079924,3.0176467608294075,2.898075163840712,0.0,0.0,0.0,2.9232878809166807,0.0,0.0,0.0,0.0,0.0,0.0,0.0,0.0,0.0,0.0,0.0,0.0,0.0,0.0,
1.7533,2.8552482508278447,3.0189167702809225,2.89920314395962,0.0,0.0,0.0,2.924456055022796,0.0,0.0,0.0,0.0,0.0,0.0,0.0,0.0,0.0,0.0,0.0,0.0,0.0,0.0,
1.7761,2.856376086480516,3.0202111947433354,2.9003527863899015,0.0,0.0,0.0,2.925646689204585,0.0,0.0,0.0,0.0,0.0,0.0,0.0,0.0,0.0,0.0,0.0,0.0,0.0,0.0,
1.7989,2.8575204674429355,3.0215245716527392,2.9015192387106397,0.0,0.0,0.0,2.9268547592687715,0.0,0.0,0.0,0.0,0.0,0.0,0.0,0.0,0.0,0.0,0.0,0.0,0.0,0.0,
1.8217,2.858681476202941,3.02285699359121,2.9027025824490793,0.0,0.0,0.0,2.9280803507477433,0.0,0.0,0.0,0.0,0.0,0.0,0.0,0.0,0.0,0.0,0.0,0.0,0.0,0.0,
1.8444,2.8598539946942108,3.0242025849566816,2.903897598859846,0.0,0.0,0.0,2.9293180595035793,0.0,0.0,0.0,0.0,0.0,0.0,0.0,0.0,0.0,0.0,0.0,0.0,0.0,0.0,
1.8672,2.861048438665056,3.0255732967133655,2.905114900884617,0.0,0.0,0.0,2.9305788787543463,0.0,0.0,0.0,0.0,0.0,0.0,0.0,0.0,0.0,0.0,0.0,0.0,0.0,0.0,
1.89,2.862259766582591,3.0269633407507874,2.9063493473896873,0.0,0.0,0.0,2.9318574849076886,0.0,0.0,0.0,0.0,0.0,0.0,0.0,0.0,0.0,0.0,0.0,0.0,0.0,0.0,
1.9127,2.8634826425731026,3.0283665918552694,2.907595498297603,0.0,0.0,0.0,2.9331482442419916,0.0,0.0,0.0,0.0,0.0,0.0,0.0,0.0,0.0,0.0,0.0,0.0,0.0,0.0,
1.9355,2.864727930719822,3.029795514095975,2.9088644216186097,0.0,0.0,0.0,2.934462622144802,0.0,0.0,0.0,0.0,0.0,0.0,0.0,0.0,0.0,0.0,0.0,0.0,0.0,0.0,
1.9583,2.8659903729637968,3.0312440711730804,2.9101507561468556,0.0,0.0,0.0,2.9357950667612442,0.0,0.0,0.0,0.0,0.0,0.0,0.0,0.0,0.0,0.0,0.0,0.0,0.0,0.0,
1.9811,2.8672700627059236,3.0327123675960186,2.911454594059523,0.0,0.0,0.0,2.937145674787155,0.0,0.0,0.0,0.0,0.0,0.0,0.0,0.0,0.0,0.0,0.0,0.0,0.0,0.0,
2.0038,2.8685613682532125,3.034193939244041,2.9127701948135103,0.0,0.0,0.0,2.9385085007702543,0.0,0.0,0.0,0.0,0.0,0.0,0.0,0.0,0.0,0.0,0.0,0.0,0.0,0.0,
2.0266,2.8698757631132654,3.035701947337007,2.9141092446657053,0.0,0.0,0.0,2.9398956517053256,0.0,0.0,0.0,0.0,0.0,0.0,0.0,0.0,0.0,0.0,0.0,0.0,0.0,0.0,
2.0494,2.871207695229627,3.0372300186858583,2.9154660837342306,0.0,0.0,0.0,2.9413012658832387,0.0,0.0,0.0,0.0,0.0,0.0,0.0,0.0,0.0,0.0,0.0,0.0,0.0,0.0,
2.0721,2.8725513069164657,3.038771430349946,2.9168347420459675,0.0,0.0,0.0,2.942719159770793,0.0,0.0,0.0,0.0,0.0,0.0,0.0,0.0,0.0,0.0,0.0,0.0,0.0,0.0,
2.0949,2.873918537668539,3.0403398763511897,2.9182273783254753,0.0,0.0,0.0,2.944161930781735,0.0,0.0,0.0,0.0,0.0,0.0,0.0,0.0,0.0,0.0,0.0,0.0,0.0,0.0,
2.1177,2.875303610891221,3.041928726288485,2.9196381046885813,0.0,0.0,0.0,2.9456234806227624,0.0,0.0,0.0,0.0,0.0,0.0,0.0,0.0,0.0,0.0,0.0,0.0,0.0,0.0,
2.1404,2.876700439088961,3.043530994116244,2.921060717959878,0.0,0.0,0.0,2.947097383721694,0.0,0.0,0.0,0.0,0.0,0.0,0.0,0.0,0.0,0.0,0.0,0.0,0.0,0.0,
2.1632,2.8781214359976115,3.045160915844422,2.9225078574573375,0.0,0.0,0.0,2.948596736433123,0.0,0.0,0.0,0.0,0.0,0.0,0.0,0.0,0.0,0.0,0.0,0.0,0.0,0.0,
2.186,2.879560596747921,3.0468115996603182,2.9239734035998026,0.0,0.0,0.0,2.950115200002681,0.0,0.0,0.0,0.0,0.0,0.0,0.0,0.0,0.0,0.0,0.0,0.0,0.0,0.0,
2.2088,2.8810180323460575,3.048483169140572,2.925457465677064,0.0,0.0,0.0,2.9516528890545644,0.0,0.0,0.0,0.0,0.0,0.0,0.0,0.0,0.0,0.0,0.0,0.0,0.0,0.0,
2.2315,2.882487342488614,3.0501682802611363,2.9269535232585824,0.0,0.0,0.0,2.9532030486694443,0.0,0.0,0.0,0.0,0.0,0.0,0.0,0.0,0.0,0.0,0.0,0.0,0.0,0.0,
2.2543,2.883981587078151,3.051881907069847,2.9284748700789076,0.0,0.0,0.0,2.9547794547423023,0.0,0.0,0.0,0.0,0.0,0.0,0.0,0.0,0.0,0.0,0.0,0.0,0.0,0.0,
2.2771,2.88549445061712,3.053616802173852,2.9300150714367135,0.0,0.0,0.0,2.9563754414092287,0.0,0.0,0.0,0.0,0.0,0.0,0.0,0.0,0.0,0.0,0.0,0.0,0.0,0.0,
2.2998,2.887019293302757,3.0553653475900258,2.9315673641332642,0.0,0.0,0.0,2.9579840016753494,0.0,0.0,0.0,0.0,0.0,0.0,0.0,0.0,0.0,0.0,0.0,0.0,0.0,0.0,
2.3226,2.888569670297186,3.0571430826778037,2.9331455431608626,0.0,0.0,0.0,2.9596194320452844,0.0,0.0,0.0,0.0,0.0,0.0,0.0,0.0,0.0,0.0,0.0,0.0,0.0,0.0,
2.3454,2.890139028342448,3.058942487993753,2.934742932751451,0.0,0.0,0.0,2.9612748163625504,0.0,0.0,0.0,0.0,0.0,0.0,0.0,0.0,0.0,0.0,0.0,0.0,0.0,0.0,
2.3682,2.8917274924751384,3.0607637021588174,2.9363596557751235,0.0,0.0,0.0,2.962950283469693,0.0,0.0,0.0,0.0,0.0,0.0,0.0,0.0,0.0,0.0,0.0,0.0,0.0,0.0,
2.3909,2.89332809638635,3.0625987338923775,2.9379886182655826,0.0,0.0,0.0,2.964638482848103,0.0,0.0,0.0,0.0,0.0,0.0,0.0,0.0,0.0,0.0,0.0,0.0,0.0,0.0,
2.4137,2.8949550711863212,3.064463893566859,2.9396442988824045,0.0,0.0,0.0,2.9663544212118613,0.0,0.0,0.0,0.0,0.0,0.0,0.0,0.0,0.0,0.0,0.0,0.0,0.0,0.0,
2.4365,2.896601539579331,3.0663512911427335,2.941319693502163,0.0,0.0,0.0,2.9680908414080758,0.0,0.0,0.0,0.0,0.0,0.0,0.0,0.0,0.0,0.0,0.0,0.0,0.0,0.0,
2.4592,2.8982602848770576,3.0682526492341324,2.943007454666936,0.0,0.0,0.0,2.969840129592709,0.0,0.0,0.0,0.0,0.0,0.0,0.0,0.0,0.0,0.0,0.0,0.0,0.0,0.0,
2.482,2.89994605715989,3.0701848697177,2.9447225855580883,0.0,0.0,0.0,2.9716178374785596,0.0,0.0,0.0,0.0,0.0,0.0,0.0,0.0,0.0,0.0,0.0,0.0,0.0,0.0,
2.5048,2.901651730721925,3.072139778597335,2.9464578304825917,0.0,0.0,0.0,2.9734164466006177,0.0,0.0,0.0,0.0,0.0,0.0,0.0,0.0,0.0,0.0,0.0,0.0,0.0,0.0,
2.5276,2.9033774463306306,3.0741175312071456,2.9482133274797935,0.0,0.0,0.0,2.975236101672523,0.0,0.0,0.0,0.0,0.0,0.0,0.0,0.0,0.0,0.0,0.0,0.0,0.0,0.0,
2.5503,2.9051156454183853,3.0761094597335683,2.949981383185624,0.0,0.0,0.0,2.9770688294458587,0.0,0.0,0.0,0.0,0.0,0.0,0.0,0.0,0.0,0.0,0.0,0.0,0.0,0.0,
2.5731,2.9068817876008737,3.078133274077099,2.951777717367312,0.0,0.0,0.0,2.978930926348428,0.0,0.0,0.0,0.0,0.0,0.0,0.0,0.0,0.0,0.0,0.0,0.0,0.0,0.0,
2.5959,2.9086684080886975,3.0801804128549333,2.953594731151,0.0,0.0,0.0,2.980814517364877,0.0,0.0,0.0,0.0,0.0,0.0,0.0,0.0,0.0,0.0,0.0,0.0,0.0,0.0,
2.6186,2.910467685728633,3.082241908573372,2.9554244656721647,0.0,0.0,0.0,2.982711353324723,0.0,0.0,0.0,0.0,0.0,0.0,0.0,0.0,0.0,0.0,0.0,0.0,0.0,0.0,
2.6414,2.912295625845358,3.084336092024703,2.9572831913965647,0.0,0.0,0.0,2.9846383030888752,0.0,0.0,0.0,0.0,0.0,0.0,0.0,0.0,0.0,0.0,0.0,0.0,0.0,0.0,
2.6642,2.914144503295311,3.0864541045647873,2.9591630461218736,0.0,0.0,0.0,2.9865872179939905,0.0,0.0,0.0,0.0,0.0,0.0,0.0,0.0,0.0,0.0,0.0,0.0,0.0,0.0,
2.6869,2.916006228665112,3.0885866727274887,2.9610557999079052,0.0,0.0,0.0,2.9885495671001685,0.0,0.0,0.0,0.0,0.0,0.0,0.0,0.0,0.0,0.0,0.0,0.0,0.0,0.0,
2.7097,2.9178973654690843,3.090752761859369,2.962978286116342,0.0,0.0,0.0,2.990542804481598,0.0,0.0,0.0,0.0,0.0,0.0,0.0,0.0,0.0,0.0,0.0,0.0,0.0,0.0,
2.7325,2.919809922658583,3.092943209888797,2.9649223737586974,0.0,0.0,0.0,2.992558502102026,0.0,0.0,0.0,0.0,0.0,0.0,0.0,0.0,0.0,0.0,0.0,0.0,0.0,0.0,
2.7553,2.9217440670668866,3.0951581994982984,2.966888225885734,0.0,0.0,0.0,2.9945968308169726,0.0,0.0,0.0,0.0,0.0,0.0,0.0,0.0,0.0,0.0,0.0,0.0,0.0,0.0,
2.778,2.9236913421398194,3.0973880387856987,2.968867241833415,0.0,0.0,0.0,2.9966488742529775,0.0,0.0,0.0,0.0,0.0,0.0,0.0,0.0,0.0,0.0,0.0,0.0,0.0,0.0,
2.8008,2.9256690764971203,3.0996525619430804,2.970877025854258,0.0,0.0,0.0,2.9987328880981523,0.0,0.0,0.0,0.0,0.0,0.0,0.0,0.0,0.0,0.0,0.0,0.0,0.0,0.0,
2.8236,2.9276689152963282,3.101942192065844,2.9729090794847512,0.0,0.0,0.0,3.0008400622823075,0.0,0.0,0.0,0.0,0.0,0.0,0.0,0.0,0.0,0.0,0.0,0.0,0.0,0.0,
2.8463,2.929682119339355,3.1042469153815055,2.974954516874389,0.0,0.0,0.0,3.0029611838650836,0.0,0.0,0.0,0.0,0.0,0.0,0.0,0.0,0.0,0.0,0.0,0.0,0.0,0.0,
2.8691,2.931726607214945,3.10658723526944,2.97703153617096,0.0,0.0,0.0,3.0051151262184486,0.0,0.0,0.0,0.0,0.0,0.0,0.0,0.0,0.0,0.0,0.0,0.0,0.0,0.0,
2.8919,2.9337937441112745,3.1089532558223225,2.9791313563164445,0.0,0.0,0.0,3.0072927854166807,0.0,0.0,0.0,0.0,0.0,0.0,0.0,0.0,0.0,0.0,0.0,0.0,0.0,0.0,
2.9147,2.9358837181879522,3.1113451817937245,2.9812541607193497,0.0,0.0,0.0,3.009494353567009,0.0,0.0,0.0,0.0,0.0,0.0,0.0,0.0,0.0,0.0,0.0,0.0,0.0,0.0,
2.9374,2.9379874027791306,3.113752558562666,2.983390672885918,0.0,0.0,0.0,3.011710211409238,0.0,0.0,0.0,0.0,0.0,0.0,0.0,0.0,0.0,0.0,0.0,0.0,0.0,0.0,
2.9602,2.9401235266405545,3.1161968072979103,2.9855599057491924,0.0,0.0,0.0,3.013960079895886,0.0,0.0,0.0,0.0,0.0,0.0,0.0,0.0,0.0,0.0,0.0,0.0,0.0,0.0,
