energies(eV),real_xx,real_yy,real_zz,real_xy,real_yz,real_xz,real_ave,imag_xx,imag_yy,imag_zz,imag_xy,imag_yz,imag_xz,imag_ave,absorption_xx,absorption_yy,absorption_zz,absorption_xy,absorption_yz,absorption_xz,absorption_ave,band_gap
0.0,4.101296035149543,4.61025025431641,4.454634747659508,0.0,0.0,0.0,4.388727012375154,0.0,0.0,0.0,0.0,0.0,0.0,0.0,0.0,0.0,0.0,0.0,0.0,0.0,0.0,2.3537000000000003
0.0163,4.101309606800081,4.610266496737515,4.4546502866669595,0.0,0.0,0.0,4.388742130068185,0.0,0.0,0.0,0.0,0.0,0.0,0.0,0.0,0.0,0.0,0.0,0.0,0.0,0.0,
0.0326,4.101350323062661,4.610315225368834,4.4546969049950285,0.0,0.0,0.0,4.3887874844755075,0.0,0.0,0.0,0.0,0.0,0.0,0.0,0.0,0.0,0.0,0.0,0.0,0.0,0.0,
0.0489,4.1014181878705696,4.610396444314414,4.454774606561257,0.0,0.0,0.0,4.38886307958208,0.0,0.0,0.0,0.0,0.0,0.0,0.0,0.0,0.0,0.0,0.0,0.0,0.0,0.0,
0.0652,4.101513207780585,4.610510160415697,4.454883397895932,0.0,0.0,0.0,4.388968922030738,0.0,0.0,0.0,0.0,0.0,0.0,0.0,0.0,0.0,0.0,0.0,0.0,0.0,0.0,
0.0815,4.101635391975206,4.610656383253204,4.45502328814385,0.0,0.0,0.0,4.389105021124087,0.0,0.0,0.0,0.0,0.0,0.0,0.0,0.0,0.0,0.0,0.0,0.0,0.0,0.0,
0.0978,4.101784752265576,4.610835125149132,4.455194289066655,0.0,0.0,0.0,4.3892713888271215,0.0,0.0,0.0,0.0,0.0,0.0,0.0,0.0,0.0,0.0,0.0,0.0,0.0,0.0,
0.1141,4.101961303095229,4.61104640117072,4.455396415045788,0.0,0.0,0.0,4.389468039770579,0.0,0.0,0.0,0.0,0.0,0.0,0.0,0.0,0.0,0.0,0.0,0.0,0.0,0.0,
0.1304,4.102165061544831,4.611290229134081,4.455629683086386,0.0,0.0,0.0,4.389694991255099,0.0,0.0,0.0,0.0,0.0,0.0,0.0,0.0,0.0,0.0,0.0,0.0,0.0,0.0,
0.1467,4.102396047337544,4.611566629609284,4.455894112821412,0.0,0.0,0.0,4.38995226325608,0.0,0.0,0.0,0.0,0.0,0.0,0.0,0.0,0.0,0.0,0.0,0.0,0.0,0.0,
0.1631,4.102655951263674,4.611877622261548,4.456191636391109,0.0,0.0,0.0,4.390241736638777,0.0,0.0,0.0,0.0,0.0,0.0,0.0,0.0,0.0,0.0,0.0,0.0,0.0,0.0,
0.1794,4.1029416289277325,4.6122194407345045,4.456518650499689,0.0,0.0,0.0,4.390559906720642,0.0,0.0,0.0,0.0,0.0,0.0,0.0,0.0,0.0,0.0,0.0,0.0,0.0,0.0,
0.1957,4.103254609206061,4.612593910196425,4.456876901200818,0.0,0.0,0.0,4.390908473534435,0.0,0.0,0.0,0.0,0.0,0.0,0.0,0.0,0.0,0.0,0.0,0.0,0.0,0.0,
0.212,4.103594922480827,4.613001062312028,4.4572664187131945,0.0,0.0,0.0,4.39128746783535,0.0,0.0,0.0,0.0,0.0,0.0,0.0,0.0,0.0,0.0,0.0,0.0,0.0,0.0,
0.2283,4.103962601817308,4.613440931534962,4.4576872359157305,0.0,0.0,0.0,4.3916969230893335,0.0,0.0,0.0,0.0,0.0,0.0,0.0,0.0,0.0,0.0,0.0,0.0,0.0,0.0,
0.2446,4.104357682974626,4.613913555117082,4.458139388356042,0.0,0.0,0.0,4.392136875482584,0.0,0.0,0.0,0.0,0.0,0.0,0.0,0.0,0.0,0.0,0.0,0.0,0.0,0.0,
0.2609,4.104780204417283,4.614418973118391,4.458622914259832,0.0,0.0,0.0,4.392607363931836,0.0,0.0,0.0,0.0,0.0,0.0,0.0,0.0,0.0,0.0,0.0,0.0,0.0,0.0,
0.2772,4.105230207327797,4.614957228418007,4.459137854540682,0.0,0.0,0.0,4.393108430095495,0.0,0.0,0.0,0.0,0.0,0.0,0.0,0.0,0.0,0.0,0.0,0.0,0.0,0.0,
0.2935,4.105707735620102,4.6155283667256715,4.459684252810714,0.0,0.0,0.0,4.393640118385496,0.0,0.0,0.0,0.0,0.0,0.0,0.0,0.0,0.0,0.0,0.0,0.0,0.0,0.0,
0.3098,4.106212835953848,4.616132436594201,4.460262155392149,0.0,0.0,0.0,4.394202475980066,0.0,0.0,0.0,0.0,0.0,0.0,0.0,0.0,0.0,0.0,0.0,0.0,0.0,0.0,
0.3261,4.106745557749729,4.616769489432604,4.460871611329193,0.0,0.0,0.0,4.394795552837175,0.0,0.0,0.0,0.0,0.0,0.0,0.0,0.0,0.0,0.0,0.0,0.0,0.0,0.0,
0.3424,4.107305953205685,4.61743957952026,4.461512672401019,0.0,0.0,0.0,4.395419401708988,0.0,0.0,0.0,0.0,0.0,0.0,0.0,0.0,0.0,0.0,0.0,0.0,0.0,0.0,
0.3587,4.10789407731408,4.618142764021554,4.462185393135307,0.0,0.0,0.0,4.396074078156981,0.0,0.0,0.0,0.0,0.0,0.0,0.0,0.0,0.0,0.0,0.0,0.0,0.0,0.0,
0.375,4.1085099878798506,4.61887910300152,4.4628898308225935,0.0,0.0,0.0,4.396759640567988,0.0,0.0,0.0,0.0,0.0,0.0,0.0,0.0,0.0,0.0,0.0,0.0,0.0,0.0,
0.3913,4.109153745539667,4.619648659442471,4.463626045531365,0.0,0.0,0.0,4.397476150171168,0.0,0.0,0.0,0.0,0.0,0.0,0.0,0.0,0.0,0.0,0.0,0.0,0.0,0.0,
0.4076,4.10982541378192,4.62045149926111,4.464394100123938,0.0,0.0,0.0,4.398223671055656,0.0,0.0,0.0,0.0,0.0,0.0,0.0,0.0,0.0,0.0,0.0,0.0,0.0,0.0,
0.4239,4.110525058967988,4.621287691326863,4.465194060273029,0.0,0.0,0.0,4.399002270189293,0.0,0.0,0.0,0.0,0.0,0.0,0.0,0.0,0.0,0.0,0.0,0.0,0.0,0.0,
0.4402,4.111252750354283,4.622157307480778,4.466025994479315,0.0,0.0,0.0,4.3998120174381254,0.0,0.0,0.0,0.0,0.0,0.0,0.0,0.0,0.0,0.0,0.0,0.0,0.0,0.0,
0.4565,4.112008560115463,4.623060422555551,4.466889974089522,0.0,0.0,0.0,4.400652985586845,0.0,0.0,0.0,0.0,0.0,0.0,0.0,0.0,0.0,0.0,0.0,0.0,0.0,0.0,
0.4729,4.112797460377856,4.624002964765425,4.467791670145338,0.0,0.0,0.0,4.40153069842954,0.0,0.0,0.0,0.0,0.0,0.0,0.0,0.0,0.0,0.0,0.0,0.0,0.0,0.0,
0.4892,4.113609908900375,4.624973520995715,4.4687201638538125,0.0,0.0,0.0,4.402434531249967,0.0,0.0,0.0,0.0,0.0,0.0,0.0,0.0,0.0,0.0,0.0,0.0,0.0,0.0,
0.5055,4.114450710585681,4.625977819331375,4.469680934777365,0.0,0.0,0.0,4.403369821564807,0.0,0.0,0.0,0.0,0.0,0.0,0.0,0.0,0.0,0.0,0.0,0.0,0.0,0.0,
0.5218,4.115319949553179,4.627015946807527,4.470674065863722,0.0,0.0,0.0,4.404336654074809,0.0,0.0,0.0,0.0,0.0,0.0,0.0,0.0,0.0,0.0,0.0,0.0,0.0,0.0,
0.5381,4.116217712972932,4.628087993564202,4.471699643010365,0.0,0.0,0.0,4.4053351165158325,0.0,0.0,0.0,0.0,0.0,0.0,0.0,0.0,0.0,0.0,0.0,0.0,0.0,0.0,
0.5544,4.117144091095234,4.629194052871867,4.472757755087782,0.0,0.0,0.0,4.406365299684961,0.0,0.0,0.0,0.0,0.0,0.0,0.0,0.0,0.0,0.0,0.0,0.0,0.0,0.0,
0.5707,4.1180991772818345,4.6303342211578045,4.473848493963499,0.0,0.0,0.0,4.407427297467713,0.0,0.0,0.0,0.0,0.0,0.0,0.0,0.0,0.0,0.0,0.0,0.0,0.0,0.0,
0.587,4.119083068037981,4.631508598033633,4.474971954527264,0.0,0.0,0.0,4.4085212068662925,0.0,0.0,0.0,0.0,0.0,0.0,0.0,0.0,0.0,0.0,0.0,0.0,0.0,0.0,
0.6033,4.120095863045889,4.632717286323743,4.476128234716908,0.0,0.0,0.0,4.409647128028847,0.0,0.0,0.0,0.0,0.0,0.0,0.0,0.0,0.0,0.0,0.0,0.0,0.0,0.0,
0.6196,4.121137665199465,4.633960392094814,4.477317435545191,0.0,0.0,0.0,4.410805164279824,0.0,0.0,0.0,0.0,0.0,0.0,0.0,0.0,0.0,0.0,0.0,0.0,0.0,0.0,
0.6359,4.122208580640134,4.6352380246863705,4.478539661127783,0.0,0.0,0.0,4.411995422151429,0.0,0.0,0.0,0.0,0.0,0.0,0.0,0.0,0.0,0.0,0.0,0.0,0.0,0.0,
0.6522,4.123308718794322,4.636550296742406,4.479795018711902,0.0,0.0,0.0,4.41321801141621,0.0,0.0,0.0,0.0,0.0,0.0,0.0,0.0,0.0,0.0,0.0,0.0,0.0,0.0,
0.6685,4.124438192411844,4.637897324244225,4.481083618706183,0.0,0.0,0.0,4.414473045120751,0.0,0.0,0.0,0.0,0.0,0.0,0.0,0.0,0.0,0.0,0.0,0.0,0.0,0.0,
0.6848,4.125597117605981,4.639279226544109,4.482405574711435,0.0,0.0,0.0,4.415760639620508,0.0,0.0,0.0,0.0,0.0,0.0,0.0,0.0,0.0,0.0,0.0,0.0,0.0,0.0,
0.7011,4.1267856138948815,4.640696126400552,4.483761003552421,0.0,0.0,0.0,4.417080914615951,0.0,0.0,0.0,0.0,0.0,0.0,0.0,0.0,0.0,0.0,0.0,0.0,0.0,0.0,
0.7174,4.128003804244285,4.642148150014236,4.4851500253106655,0.0,0.0,0.0,4.418433993189729,0.0,0.0,0.0,0.0,0.0,0.0,0.0,0.0,0.0,0.0,0.0,0.0,0.0,0.0,
0.7337,4.12925181511188,4.643635427065622,4.486572763358481,0.0,0.0,0.0,4.419820001845328,0.0,0.0,0.0,0.0,0.0,0.0,0.0,0.0,0.0,0.0,0.0,0.0,0.0,0.0,
0.75,4.130529776493088,4.645158090753213,4.488029344393845,0.0,0.0,0.0,4.421239070546715,0.0,0.0,0.0,0.0,0.0,0.0,0.0,0.0,0.0,0.0,0.0,0.0,0.0,0.0,
0.7663,4.131837821968371,4.646716277833847,4.489519898476509,0.0,0.0,0.0,4.422691332759576,0.0,0.0,0.0,0.0,0.0,0.0,0.0,0.0,0.0,0.0,0.0,0.0,0.0,0.0,
0.7827,4.133184392538782,4.648320017253806,4.491054018354958,0.0,0.0,0.0,4.4241861427158495,0.0,0.0,0.0,0.0,0.0,0.0,0.0,0.0,0.0,0.0,0.0,0.0,0.0,0.0,
0.799,4.134553208243631,4.64994989596136,4.4926131328578744,0.0,0.0,0.0,4.425705412354288,0.0,0.0,0.0,0.0,0.0,0.0,0.0,0.0,0.0,0.0,0.0,0.0,0.0,0.0,
0.8153,4.135952531690393,4.6516157310159425,4.494206632008162,0.0,0.0,0.0,4.427258298238166,0.0,0.0,0.0,0.0,0.0,0.0,0.0,0.0,0.0,0.0,0.0,0.0,0.0,0.0,
0.8316,4.137382511328765,4.653317673854235,4.495834659718452,0.0,0.0,0.0,4.428844948300483,0.0,0.0,0.0,0.0,0.0,0.0,0.0,0.0,0.0,0.0,0.0,0.0,0.0,0.0,
0.8479,4.138843299455061,4.655055879690234,4.497497363461379,0.0,0.0,0.0,4.430465514202225,0.0,0.0,0.0,0.0,0.0,0.0,0.0,0.0,0.0,0.0,0.0,0.0,0.0,0.0,
0.8642,4.140335052269672,4.656830507563462,4.499194894312787,0.0,0.0,0.0,4.432120151381973,0.0,0.0,0.0,0.0,0.0,0.0,0.0,0.0,0.0,0.0,0.0,0.0,0.0,0.0,
0.8805,4.1418579299365925,4.658641720388267,4.500927406996427,0.0,0.0,0.0,4.433809019107096,0.0,0.0,0.0,0.0,0.0,0.0,0.0,0.0,0.0,0.0,0.0,0.0,0.0,0.0,
0.8968,4.143412096644491,4.660489685004917,4.502695059929833,0.0,0.0,0.0,4.435532280526414,0.0,0.0,0.0,0.0,0.0,0.0,0.0,0.0,0.0,0.0,0.0,0.0,0.0,0.0,
0.9131,4.1449977206700765,4.662374572232123,4.504498015271553,0.0,0.0,0.0,4.437290102724584,0.0,0.0,0.0,0.0,0.0,0.0,0.0,0.0,0.0,0.0,0.0,0.0,0.0,0.0,
0.9294,4.146614974443191,4.664296556921245,4.506336438969777,0.0,0.0,0.0,4.439082656778071,0.0,0.0,0.0,0.0,0.0,0.0,0.0,0.0,0.0,0.0,0.0,0.0,0.0,0.0,
0.9457,4.14826403461434,4.666255818011997,4.508210500812506,0.0,0.0,0.0,4.4409101178129475,0.0,0.0,0.0,0.0,0.0,0.0,0.0,0.0,0.0,0.0,0.0,0.0,0.0,0.0,
0.962,4.149945082123995,4.6682525385900275,4.5101203744790235,0.0,0.0,0.0,4.442772665064349,0.0,0.0,0.0,0.0,0.0,0.0,0.0,0.0,0.0,0.0,0.0,0.0,0.0,0.0,
0.9783,4.151658302274302,4.6702869059459955,4.512066237592923,0.0,0.0,0.0,4.444670481937741,0.0,0.0,0.0,0.0,0.0,0.0,0.0,0.0,0.0,0.0,0.0,0.0,0.0,0.0,
0.9946,4.15340388480304,4.672359111636698,4.514048271776704,0.0,0.0,0.0,4.446603756072148,0.0,0.0,0.0,0.0,0.0,0.0,0.0,0.0,0.0,0.0,0.0,0.0,0.0,0.0,
1.0109,4.155182023959951,4.674469351547744,4.516066662708058,0.0,0.0,0.0,4.448572679405251,0.0,0.0,0.0,0.0,0.0,0.0,0.0,0.0,0.0,0.0,0.0,0.0,0.0,0.0,
1.0272,4.156992918585358,4.676617825958478,4.518121600177392,0.0,0.0,0.0,4.450577448240409,0.0,0.0,0.0,0.0,0.0,0.0,0.0,0.0,0.0,0.0,0.0,0.0,0.0,0.0,
1.0435,4.158836772191389,4.678804739608275,4.520213278147516,0.0,0.0,0.0,4.452618263315727,0.0,0.0,0.0,0.0,0.0,0.0,0.0,0.0,0.0,0.0,0.0,0.0,0.0,0.0,
1.0598,4.160713793045739,4.681030301765466,4.522341894814668,0.0,0.0,0.0,4.454695329875291,0.0,0.0,0.0,0.0,0.0,0.0,0.0,0.0,0.0,0.0,0.0,0.0,0.0,0.0,
1.0762,4.162636017980319,4.6833087388626975,4.524521054583119,0.0,0.0,0.0,4.456821937142045,0.0,0.0,0.0,0.0,0.0,0.0,0.0,0.0,0.0,0.0,0.0,0.0,0.0,0.0,
1.0925,4.16458022439984,4.685612484755088,4.526724390259927,0.0,0.0,0.0,4.4589723664716185,0.0,0.0,0.0,0.0,0.0,0.0,0.0,0.0,0.0,0.0,0.0,0.0,0.0,0.0,
1.1088,4.166558253666208,4.68795553623508,4.528965286571577,0.0,0.0,0.0,4.461159692157621,0.0,0.0,0.0,0.0,0.0,0.0,0.0,0.0,0.0,0.0,0.0,0.0,0.0,0.0,
1.1251,4.168570333992935,4.69033812144453,4.531243959323404,0.0,0.0,0.0,4.463384138253623,0.0,0.0,0.0,0.0,0.0,0.0,0.0,0.0,0.0,0.0,0.0,0.0,0.0,0.0,
1.1414,4.170616698809967,4.692760473429782,4.533560628887944,0.0,0.0,0.0,4.465645933709231,0.0,0.0,0.0,0.0,0.0,0.0,0.0,0.0,0.0,0.0,0.0,0.0,0.0,0.0,
1.1577,4.1726975868648415,4.695222830223745,4.535915520277181,0.0,0.0,0.0,4.467945312455256,0.0,0.0,0.0,0.0,0.0,0.0,0.0,0.0,0.0,0.0,0.0,0.0,0.0,0.0,
1.174,4.174813242326773,4.697725434930142,4.538308863217328,0.0,0.0,0.0,4.470282513491415,0.0,0.0,0.0,0.0,0.0,0.0,0.0,0.0,0.0,0.0,0.0,0.0,0.0,0.0,
1.1903,4.176963914894367,4.700268535810484,4.540740892225472,0.0,0.0,0.0,4.472657780976775,0.0,0.0,0.0,0.0,0.0,0.0,0.0,0.0,0.0,0.0,0.0,0.0,0.0,0.0,
1.2066,4.179149859906606,4.702852386373726,4.543211846688489,0.0,0.0,0.0,4.4750713643229405,0.0,0.0,0.0,0.0,0.0,0.0,0.0,0.0,0.0,0.0,0.0,0.0,0.0,0.0,
1.2229,4.1813713384574225,4.70547724546841,4.545721970944251,0.0,0.0,0.0,4.4775235182900275,0.0,0.0,0.0,0.0,0.0,0.0,0.0,0.0,0.0,0.0,0.0,0.0,0.0,0.0,
1.2392,4.183628617514033,4.7081433773778425,4.548271514365275,0.0,0.0,0.0,4.480014503085717,0.0,0.0,0.0,0.0,0.0,0.0,0.0,0.0,0.0,0.0,0.0,0.0,0.0,0.0,
1.2555,4.185921970038994,4.7108510519179685,4.5508607314446365,0.0,0.0,0.0,4.4825445844672,0.0,0.0,0.0,0.0,0.0,0.0,0.0,0.0,0.0,0.0,0.0,0.0,0.0,0.0,
1.2718,4.188251675116311,4.7136005445384015,4.5534898818844365,0.0,0.0,0.0,4.485114033846383,0.0,0.0,0.0,0.0,0.0,0.0,0.0,0.0,0.0,0.0,0.0,0.0,0.0,0.0,
1.2881,4.190618018081655,4.716392136426416,4.556159230686949,0.0,0.0,0.0,4.48772312839834,0.0,0.0,0.0,0.0,0.0,0.0,0.0,0.0,0.0,0.0,0.0,0.0,0.0,0.0,
1.3044,4.193021290656681,4.719226114614262,4.558869048248205,0.0,0.0,0.0,4.490372151173049,0.0,0.0,0.0,0.0,0.0,0.0,0.0,0.0,0.0,0.0,0.0,0.0,0.0,0.0,
1.3207,4.1954617910878795,4.722102772089643,4.561619610454624,0.0,0.0,0.0,4.493061391210715,0.0,0.0,0.0,0.0,0.0,0.0,0.0,0.0,0.0,0.0,0.0,0.0,0.0,0.0,
1.337,4.19793982429007,4.725022407909812,4.564411198782155,0.0,0.0,0.0,4.4957911436606794,0.0,0.0,0.0,0.0,0.0,0.0,0.0,0.0,0.0,0.0,0.0,0.0,0.0,0.0,
1.3533,4.200455701994469,4.727985327318988,4.567244100398623,0.0,0.0,0.0,4.498561709904027,0.0,0.0,0.0,0.0,0.0,0.0,0.0,0.0,0.0,0.0,0.0,0.0,0.0,0.0,
1.3696,4.203009742901694,4.730991841869676,4.570118608268944,0.0,0.0,0.0,4.501373397680104,0.0,0.0,0.0,0.0,0.0,0.0,0.0,0.0,0.0,0.0,0.0,0.0,0.0,0.0,
1.386,4.205618297404193,4.7340611200235045,4.573053043325889,0.0,0.0,0.0,4.504244153584529,0.0,0.0,0.0,0.0,0.0,0.0,0.0,0.0,0.0,0.0,0.0,0.0,0.0,0.0,
1.4023,4.208249888709084,4.737156057788935,4.576011926243038,0.0,0.0,0.0,4.507139290913686,0.0,0.0,0.0,0.0,0.0,0.0,0.0,0.0,0.0,0.0,0.0,0.0,0.0,0.0,
1.4186,4.210920644856652,4.740295566526094,4.579013332118914,0.0,0.0,0.0,4.510076514500554,0.0,0.0,0.0,0.0,0.0,0.0,0.0,0.0,0.0,0.0,0.0,0.0,0.0,0.0,
1.4349,4.213630914108479,4.743479984353326,4.582057578262437,0.0,0.0,0.0,4.513056158908081,0.0,0.0,0.0,0.0,0.0,0.0,0.0,0.0,0.0,0.0,0.0,0.0,0.0,0.0,
1.4512,4.216381052542637,4.746709656364245,4.585144988355921,0.0,0.0,0.0,4.516078565754268,0.0,0.0,0.0,0.0,0.0,0.0,0.0,0.0,0.0,0.0,0.0,0.0,0.0,0.0,
1.4675,4.219171424240578,4.749984934774114,4.588275892580769,0.0,0.0,0.0,4.519144083865154,0.0,0.0,0.0,0.0,0.0,0.0,0.0,0.0,0.0,0.0,0.0,0.0,0.0,0.0,
1.4838,4.222002401480433,4.753306179070851,4.5914506277471645,0.0,0.0,0.0,4.522253069432816,0.0,0.0,0.0,0.0,0.0,0.0,0.0,0.0,0.0,0.0,0.0,0.0,0.0,0.0,
1.5001,4.224874364937069,4.7566737561713,4.594669537427713,0.0,0.0,0.0,4.525405886178693,0.0,0.0,0.0,0.0,0.0,0.0,0.0,0.0,0.0,0.0,0.0,0.0,0.0,0.0,
1.5164,4.227787703888838,4.760088040582056,4.597932972095139,0.0,0.0,0.0,4.528602905522011,0.0,0.0,0.0,0.0,0.0,0.0,0.0,0.0,0.0,0.0,0.0,0.0,0.0,0.0,
1.5327,4.230742816432065,4.763549414566361,4.601241289264452,0.0,0.0,0.0,4.531844506754292,0.0,0.0,0.0,0.0,0.0,0.0,0.0,0.0,0.0,0.0,0.0,0.0,0.0,0.0,
1.549,4.233740109702543,4.7670582683160125,4.604594853639316,0.0,0.0,0.0,4.53513107721929,0.0,0.0,0.0,0.0,0.0,0.0,0.0,0.0,0.0,0.0,0.0,0.0,0.0,0.0,
1.5653,4.236780000105357,4.770615000129223,4.60799403726336,0.0,0.0,0.0,4.538463012499314,0.0,0.0,0.0,0.0,0.0,0.0,0.0,0.0,0.0,0.0,0.0,0.0,0.0,0.0,
1.5816,4.239862913552529,4.774220016594631,4.6114392196759555,0.0,0.0,0.0,4.541840716607705,0.0,0.0,0.0,0.0,0.0,0.0,0.0,0.0,0.0,0.0,0.0,0.0,0.0,0.0,
1.5979,4.242989285709582,4.777873732781316,4.614930788073315,0.0,0.0,0.0,4.5452646021880705,0.0,0.0,0.0,0.0,0.0,0.0,0.0,0.0,0.0,0.0,0.0,0.0,0.0,0.0,
1.6142,4.246159562250697,4.781576572435657,4.618469137474493,0.0,0.0,0.0,4.548735090720283,0.0,0.0,0.0,0.0,0.0,0.0,0.0,0.0,0.0,0.0,0.0,0.0,0.0,0.0,
1.6305,4.249374199123345,4.785328968184715,4.622054670892936,0.0,0.0,0.0,4.552252612733665,0.0,0.0,0.0,0.0,0.0,0.0,0.0,0.0,0.0,0.0,0.0,0.0,0.0,0.0,
1.6468,4.2526336628225945,4.789131361746965,4.625687799513626,0.0,0.0,0.0,4.555817608027729,0.0,0.0,0.0,0.0,0.0,0.0,0.0,0.0,0.0,0.0,0.0,0.0,0.0,0.0,
1.6631,4.2559384306756165,4.792984204150231,4.629368942876076,0.0,0.0,0.0,4.559430525900641,0.0,0.0,0.0,0.0,0.0,0.0,0.0,0.0,0.0,0.0,0.0,0.0,0.0,0.0,
1.6794,4.259288991136637,4.7968879559576205,4.633098529063281,0.0,0.0,0.0,4.563091825385846,0.0,0.0,0.0,0.0,0.0,0.0,0.0,0.0,0.0,0.0,0.0,0.0,0.0,0.0,
1.6958,4.262706827604313,4.800867511671482,4.636900327441914,0.0,0.0,0.0,4.566824888905903,0.0,0.0,0.0,0.0,0.0,0.0,0.0,0.0,0.0,0.0,0.0,0.0,0.0,0.0,
1.7121,4.266150773440372,4.804874822958205,4.640728422689782,0.0,0.0,0.0,4.570584673029454,0.0,0.0,0.0,0.0,0.0,0.0,0.0,0.0,0.0,0.0,0.0,0.0,0.0,0.0,
1.7284,4.269642050380243,4.808934487972472,4.644606301079358,0.0,0.0,0.0,4.574394279810691,0.0,0.0,0.0,0.0,0.0,0.0,0.0,0.0,0.0,0.0,0.0,0.0,0.0,0.0,
1.7447,4.273181194643447,4.81304700790841,4.648534426947245,0.0,0.0,0.0,4.578254209833035,0.0,0.0,0.0,0.0,0.0,0.0,0.0,0.0,0.0,0.0,0.0,0.0,0.0,0.0,
1.761,4.276768755230579,4.817212894754648,4.652513274220773,0.0,0.0,0.0,4.582164974735334,0.0,0.0,0.0,0.0,0.0,0.0,0.0,0.0,0.0,0.0,0.0,0.0,0.0,0.0,
1.7773,4.280405294292917,4.821432671574575,4.656543326649474,0.0,0.0,0.0,4.586127097505655,0.0,0.0,0.0,0.0,0.0,0.0,0.0,0.0,0.0,0.0,0.0,0.0,0.0,0.0,
1.7936,4.284091387516803,4.825706872797038,4.660625078044696,0.0,0.0,0.0,4.590141112786179,0.0,0.0,0.0,0.0,0.0,0.0,0.0,0.0,0.0,0.0,0.0,0.0,0.0,0.0,
1.8099,4.287827624522986,4.830036044518387,4.664759032527764,0.0,0.0,0.0,4.594207567189712,0.0,0.0,0.0,0.0,0.0,0.0,0.0,0.0,0.0,0.0,0.0,0.0,0.0,0.0,
1.8262,4.291614609282286,4.83442074481578,4.668945704787081,0.0,0.0,0.0,4.598327019628383,0.0,0.0,0.0,0.0,0.0,0.0,0.0,0.0,0.0,0.0,0.0,0.0,0.0,0.0,
1.8425,4.295452960547516,4.83886154407325,4.673185620344702,0.0,0.0,0.0,4.602500041655156,0.0,0.0,0.0,0.0,0.0,0.0,0.0,0.0,0.0,0.0,0.0,0.0,0.0,0.0,
1.8588,4.299343312303662,4.843359025319936,4.677479315832594,0.0,0.0,0.0,4.60672721781873,0.0,0.0,0.0,0.0,0.0,0.0,0.0,0.0,0.0,0.0,0.0,0.0,0.0,0.0,
1.8751,4.303286314236068,4.847913784582381,4.681827339279246,0.0,0.0,0.0,4.611009146032565,0.0,0.0,0.0,0.0,0.0,0.0,0.0,0.0,0.0,0.0,0.0,0.0,0.0,0.0,
1.8914,4.307282632218217,4.852526431250606,4.686230250407247,0.0,0.0,0.0,4.61534643795869,0.0,0.0,0.0,0.0,0.0,0.0,0.0,0.0,0.0,0.0,0.0,0.0,0.0,0.0,
1.9077,4.311332948820002,4.857197588459128,4.690688620941826,0.0,0.0,0.0,4.619739719406986,0.0,0.0,0.0,0.0,0.0,0.0,0.0,0.0,0.0,0.0,0.0,0.0,0.0,0.0,
1.924,4.315437963837393,4.8619278934839745,4.6952030349316765,0.0,0.0,0.0,4.624189630751014,0.0,0.0,0.0,0.0,0.0,0.0,0.0,0.0,0.0,0.0,0.0,0.0,0.0,0.0,
1.9403,4.319598394844704,4.866717998155532,4.69977408908208,0.0,0.0,0.0,4.6286968273607725,0.0,0.0,0.0,0.0,0.0,0.0,0.0,0.0,0.0,0.0,0.0,0.0,0.0,0.0,
1.9566,4.32381497777077,4.871568569289451,4.704402393101402,0.0,0.0,0.0,4.633261980053875,0.0,0.0,0.0,0.0,0.0,0.0,0.0,0.0,0.0,0.0,0.0,0.0,0.0,0.0,
1.9729,4.328088467500079,4.876480289135438,4.709088570061131,0.0,0.0,0.0,4.637885775565549,0.0,0.0,0.0,0.0,0.0,0.0,0.0,0.0,0.0,0.0,0.0,0.0,0.0,0.0,
1.9892,4.332419638500428,4.881453855845509,4.7138332567709345,0.0,0.0,0.0,4.642568917038957,0.0,0.0,0.0,0.0,0.0,0.0,0.0,0.0,0.0,0.0,0.0,0.0,0.0,0.0,
2.0056,4.336836397975075,4.886521075038512,4.718666759578946,0.0,0.0,0.0,4.647341410864178,0.0,0.0,0.0,0.0,0.0,0.0,0.0,0.0,0.0,0.0,0.0,0.0,0.0,0.0,
2.0219,4.341285702875124,4.8916208865999495,4.723530802254101,0.0,0.0,0.0,4.652145797243058,0.0,0.0,0.0,0.0,0.0,0.0,0.0,0.0,0.0,0.0,0.0,0.0,0.0,0.0,
2.0382,4.345795141858696,4.896784744540434,4.728455355743572,0.0,0.0,0.0,4.657011747380901,0.0,0.0,0.0,0.0,0.0,0.0,0.0,0.0,0.0,0.0,0.0,0.0,0.0,0.0,
2.0545,4.350365574724707,4.902013415841827,4.7334411159757295,0.0,0.0,0.0,4.661940035514088,0.0,0.0,0.0,0.0,0.0,0.0,0.0,0.0,0.0,0.0,0.0,0.0,0.0,0.0,
2.0708,4.354997884449416,4.907307686063614,4.738488794743799,0.0,0.0,0.0,4.66693145508561,0.0,0.0,0.0,0.0,0.0,0.0,0.0,0.0,0.0,0.0,0.0,0.0,0.0,0.0,
2.0871,4.359692978007276,4.912668359952752,4.743599120187701,0.0,0.0,0.0,4.671986819382576,0.0,0.0,0.0,0.0,0.0,0.0,0.0,0.0,0.0,0.0,0.0,0.0,0.0,0.0,
2.1034,4.364451787230353,4.918096262082269,4.748772837297677,0.0,0.0,0.0,4.677106962203433,0.0,0.0,0.0,0.0,0.0,0.0,0.0,0.0,0.0,0.0,0.0,0.0,0.0,0.0,
2.1197,4.3692752697094495,4.923592237520287,4.754010708440668,0.0,0.0,0.0,4.682292738556801,0.0,0.0,0.0,0.0,0.0,0.0,0.0,0.0,0.0,0.0,0.0,0.0,0.0,0.0,
2.136,4.374164409738812,4.9291571525315145,4.759313513911684,0.0,0.0,0.0,4.687545025394003,0.0,0.0,0.0,0.0,0.0,0.0,0.0,0.0,0.0,0.0,0.0,0.0,0.0,0.0,
2.1523,4.3791202193073,4.93479189531301,4.764682052510971,0.0,0.0,0.0,4.692864722377094,0.0,0.0,0.0,0.0,0.0,0.0,0.0,0.0,0.0,0.0,0.0,0.0,0.0,0.0,
