energies(eV),real_xx,real_yy,real_zz,real_xy,real_yz,real_xz,real_ave,imag_xx,imag_yy,imag_zz,imag_xy,imag_yz,imag_xz,imag_ave,absorption_xx,absorption_yy,absorption_zz,absorption_xy,absorption_yz,absorption_xz,absorption_ave,band_gap
0.0,2.096601546430966,2.09748932415285,2.101940098917681,0.0,0.0,0.0,2.0986769898338324,0.0,0.0,0.0,0.0,0.0,0.0,0.0,0.0,0.0,0.0,0.0,0.0,0.0,0.0,7.2813
0.0154,2.096602733499811,2.0974905319253936,2.1019413267497757,0.0,0.0,0.0,2.09867819739166,0.0,0.0,0.0,0.0,0.0,0.0,0.0,0.0,0.0,0.0,0.0,0.0,0.0,0.0,
0.0308,2.0966062947277027,2.097494155264699,2.1019450102686585,0.0,0.0,0.0,2.09868182008702,0.0,0.0,0.0,0.0,0.0,0.0,0.0,0.0,0.0,0.0,0.0,0.0,0.0,0.0,
0.0462,2.096612230178759,2.097500194235825,2.1019511495420833,0.0,0.0,0.0,2.098687857985556,0.0,0.0,0.0,0.0,0.0,0.0,0.0,0.0,0.0,0.0,0.0,0.0,0.0,0.0,
0.0616,2.0966205399598365,2.097508648947191,2.1019597446830067,0.0,0.0,0.0,2.098696311196678,0.0,0.0,0.0,0.0,0.0,0.0,0.0,0.0,0.0,0.0,0.0,0.0,0.0,0.0,
0.077,2.096631224220543,2.0975195195506067,2.101970795849548,0.0,0.0,0.0,2.098707179873566,0.0,0.0,0.0,0.0,0.0,0.0,0.0,0.0,0.0,0.0,0.0,0.0,0.0,0.0,
0.0924,2.0966442831532426,2.0975328062412704,2.101984303245052,0.0,0.0,0.0,2.0987204642131885,0.0,0.0,0.0,0.0,0.0,0.0,0.0,0.0,0.0,0.0,0.0,0.0,0.0,0.0,
0.1078,2.0966597169930736,2.09754850925777,2.102000267118057,0.0,0.0,0.0,2.0987361644563003,0.0,0.0,0.0,0.0,0.0,0.0,0.0,0.0,0.0,0.0,0.0,0.0,0.0,0.0,
0.1232,2.096677526017952,2.0975666288821007,2.102018687762311,0.0,0.0,0.0,2.0987542808874546,0.0,0.0,0.0,0.0,0.0,0.0,0.0,0.0,0.0,0.0,0.0,0.0,0.0,0.0,
0.1386,2.0966977105486126,2.0975871654397142,2.102039565516842,0.0,0.0,0.0,2.0987748138350564,0.0,0.0,0.0,0.0,0.0,0.0,0.0,0.0,0.0,0.0,0.0,0.0,0.0,0.0,
0.154,2.096720270948597,2.097610119299483,2.1020629007659,0.0,0.0,0.0,2.098797763671327,0.0,0.0,0.0,0.0,0.0,0.0,0.0,0.0,0.0,0.0,0.0,0.0,0.0,0.0,
0.1694,2.096745207624285,2.097635490873758,2.1020886939390353,0.0,0.0,0.0,2.0988231308123595,0.0,0.0,0.0,0.0,0.0,0.0,0.0,0.0,0.0,0.0,0.0,0.0,0.0,0.0,
0.1848,2.096772521024932,2.097663280618379,2.1021169455111153,0.0,0.0,0.0,2.0988509157181423,0.0,0.0,0.0,0.0,0.0,0.0,0.0,0.0,0.0,0.0,0.0,0.0,0.0,0.0,
0.2002,2.0968022116426686,2.0976934890327223,2.1021476560023338,0.0,0.0,0.0,2.098881118892575,0.0,0.0,0.0,0.0,0.0,0.0,0.0,0.0,0.0,0.0,0.0,0.0,0.0,0.0,
0.2156,2.0968342800125663,2.09772611665968,2.1021808259782535,0.0,0.0,0.0,2.0989137408835,0.0,0.0,0.0,0.0,0.0,0.0,0.0,0.0,0.0,0.0,0.0,0.0,0.0,0.0,
0.231,2.0968687267126276,2.0977611640857567,2.1022164560498435,0.0,0.0,0.0,2.0989487822827426,0.0,0.0,0.0,0.0,0.0,0.0,0.0,0.0,0.0,0.0,0.0,0.0,0.0,0.0,
0.2464,2.096905552363849,2.0977986319410444,2.1022545468735103,0.0,0.0,0.0,2.0989862437261344,0.0,0.0,0.0,0.0,0.0,0.0,0.0,0.0,0.0,0.0,0.0,0.0,0.0,0.0,
0.2618,2.0969447576302445,2.097838520899302,2.102295099151138,0.0,0.0,0.0,2.099026125893561,0.0,0.0,0.0,0.0,0.0,0.0,0.0,0.0,0.0,0.0,0.0,0.0,0.0,0.0,
0.2772,2.0969863432188935,2.097880831677967,2.102338113630128,0.0,0.0,0.0,2.099068429508996,0.0,0.0,0.0,0.0,0.0,0.0,0.0,0.0,0.0,0.0,0.0,0.0,0.0,0.0,
0.2926,2.0970303098799787,2.0979255650381985,2.1023835911034503,0.0,0.0,0.0,2.0991131553405427,0.0,0.0,0.0,0.0,0.0,0.0,0.0,0.0,0.0,0.0,0.0,0.0,0.0,0.0,
0.308,2.097076658406818,2.097972721784954,2.1024315324096694,0.0,0.0,0.0,2.0991603042004807,0.0,0.0,0.0,0.0,0.0,0.0,0.0,0.0,0.0,0.0,0.0,0.0,0.0,0.0,
0.3234,2.0971253896359237,2.0980223027669873,2.1024819384330327,0.0,0.0,0.0,2.0992098769453142,0.0,0.0,0.0,0.0,0.0,0.0,0.0,0.0,0.0,0.0,0.0,0.0,0.0,0.0,
0.3388,2.097176504447053,2.098074308876921,2.102534810103493,0.0,0.0,0.0,2.0992618744758222,0.0,0.0,0.0,0.0,0.0,0.0,0.0,0.0,0.0,0.0,0.0,0.0,0.0,0.0,
0.3542,2.097230003763254,2.0981287410513123,2.1025901483967475,0.0,0.0,0.0,2.0993162977371047,0.0,0.0,0.0,0.0,0.0,0.0,0.0,0.0,0.0,0.0,0.0,0.0,0.0,0.0,
0.3696,2.0972858885509194,2.09818560027069,2.1026479543343535,0.0,0.0,0.0,2.0993731477186546,0.0,0.0,0.0,0.0,0.0,0.0,0.0,0.0,0.0,0.0,0.0,0.0,0.0,0.0,
0.385,2.0973441598198477,2.0982448875595994,2.1027082289837447,0.0,0.0,0.0,2.0994324254543972,0.0,0.0,0.0,0.0,0.0,0.0,0.0,0.0,0.0,0.0,0.0,0.0,0.0,0.0,
0.4004,2.097404818623298,2.098306603986696,2.102770973458293,0.0,0.0,0.0,2.0994941320227625,0.0,0.0,0.0,0.0,0.0,0.0,0.0,0.0,0.0,0.0,0.0,0.0,0.0,0.0,
0.4158,2.097467866058051,2.098370750664773,2.1028361889174048,0.0,0.0,0.0,2.0995582685467427,0.0,0.0,0.0,0.0,0.0,0.0,0.0,0.0,0.0,0.0,0.0,0.0,0.0,0.0,
0.4312,2.0975333032644854,2.0984373287508524,2.1029038765665615,0.0,0.0,0.0,2.0996248361939664,0.0,0.0,0.0,0.0,0.0,0.0,0.0,0.0,0.0,0.0,0.0,0.0,0.0,0.0,
0.4466,2.097601131426629,2.098506339446225,2.1029740376574018,0.0,0.0,0.0,2.0996938361767516,0.0,0.0,0.0,0.0,0.0,0.0,0.0,0.0,0.0,0.0,0.0,0.0,0.0,0.0,
0.462,2.0976713517722296,2.098577783996542,2.103046673487812,0.0,0.0,0.0,2.099765269752195,0.0,0.0,0.0,0.0,0.0,0.0,0.0,0.0,0.0,0.0,0.0,0.0,0.0,0.0,
0.4774,2.0977439655728407,2.098651663691885,2.1031217854019686,0.0,0.0,0.0,2.0998391382222312,0.0,0.0,0.0,0.0,0.0,0.0,0.0,0.0,0.0,0.0,0.0,0.0,0.0,0.0,
0.4928,2.0978189741438884,2.0987279798668377,2.1031993747904534,0.0,0.0,0.0,2.0999154429337263,0.0,0.0,0.0,0.0,0.0,0.0,0.0,0.0,0.0,0.0,0.0,0.0,0.0,0.0,
0.5082,2.097896378844751,2.098806733900552,2.103279443090323,0.0,0.0,0.0,2.099994185278542,0.0,0.0,0.0,0.0,0.0,0.0,0.0,0.0,0.0,0.0,0.0,0.0,0.0,0.0,
0.5236,2.09797618107883,2.0988879272168437,2.10336199178518,0.0,0.0,0.0,2.100075366693618,0.0,0.0,0.0,0.0,0.0,0.0,0.0,0.0,0.0,0.0,0.0,0.0,0.0,0.0,
0.539,2.0980583822936456,2.0989715612842748,2.103447022405294,0.0,0.0,0.0,2.1001589886610716,0.0,0.0,0.0,0.0,0.0,0.0,0.0,0.0,0.0,0.0,0.0,0.0,0.0,0.0,
0.5544,2.0981429839809187,2.0990576376162187,2.103534536527657,0.0,0.0,0.0,2.100245052708265,0.0,0.0,0.0,0.0,0.0,0.0,0.0,0.0,0.0,0.0,0.0,0.0,0.0,0.0,
0.5698,2.0982299876766555,2.099146157770985,2.1036245357761265,0.0,0.0,0.0,2.1003335604079223,0.0,0.0,0.0,0.0,0.0,0.0,0.0,0.0,0.0,0.0,0.0,0.0,0.0,0.0,
0.5852,2.098319394961234,2.099237123351871,2.103717021821455,0.0,0.0,0.0,2.1004245133781865,0.0,0.0,0.0,0.0,0.0,0.0,0.0,0.0,0.0,0.0,0.0,0.0,0.0,0.0,
0.6006,2.0984112074595154,2.099330536007284,2.103811996381461,0.0,0.0,0.0,2.100517913282754,0.0,0.0,0.0,0.0,0.0,0.0,0.0,0.0,0.0,0.0,0.0,0.0,0.0,0.0,
0.616,2.0985054268409318,2.099426397430825,2.103909461221081,0.0,0.0,0.0,2.100613761830946,0.0,0.0,0.0,0.0,0.0,0.0,0.0,0.0,0.0,0.0,0.0,0.0,0.0,0.0,
0.6314,2.098602054819562,2.099524709361395,2.1040094181525113,0.0,0.0,0.0,2.100712060777823,0.0,0.0,0.0,0.0,0.0,0.0,0.0,0.0,0.0,0.0,0.0,0.0,0.0,0.0,
0.6468,2.0987010931542756,2.0996254735832727,2.104111869035277,0.0,0.0,0.0,2.1008128119242753,0.0,0.0,0.0,0.0,0.0,0.0,0.0,0.0,0.0,0.0,0.0,0.0,0.0,0.0,
0.6622,2.0988025436488176,2.099728691926269,2.1042168157764047,0.0,0.0,0.0,2.100916017117164,0.0,0.0,0.0,0.0,0.0,0.0,0.0,0.0,0.0,0.0,0.0,0.0,0.0,0.0,
0.6776,2.098906408151889,2.0998343662657817,2.1043242603304604,0.0,0.0,0.0,2.101021678249377,0.0,0.0,0.0,0.0,0.0,0.0,0.0,0.0,0.0,0.0,0.0,0.0,0.0,0.0,
0.693,2.0990126885573104,2.0999424985229243,2.1044342046997464,0.0,0.0,0.0,2.101129797259994,0.0,0.0,0.0,0.0,0.0,0.0,0.0,0.0,0.0,0.0,0.0,0.0,0.0,0.0,
0.7084,2.099121386804093,2.100053090664665,2.104546650934357,0.0,0.0,0.0,2.101240376134372,0.0,0.0,0.0,0.0,0.0,0.0,0.0,0.0,0.0,0.0,0.0,0.0,0.0,0.0,
0.7238,2.099232504876574,2.100166144703901,2.1046616011323533,0.0,0.0,0.0,2.101353416904276,0.0,0.0,0.0,0.0,0.0,0.0,0.0,0.0,0.0,0.0,0.0,0.0,0.0,0.0,
0.7392,2.0993460448045225,2.100281662699593,2.1047790574398464,0.0,0.0,0.0,2.1014689216479874,0.0,0.0,0.0,0.0,0.0,0.0,0.0,0.0,0.0,0.0,0.0,0.0,0.0,0.0,
0.7546,2.0994620086632745,2.100399646756908,2.104899022051167,0.0,0.0,0.0,2.10158689249045,0.0,0.0,0.0,0.0,0.0,0.0,0.0,0.0,0.0,0.0,0.0,0.0,0.0,0.0,
0.7701,2.0995811752721654,2.100520889255408,2.1050223007112443,0.0,0.0,0.0,2.1017081217462725,0.0,0.0,0.0,0.0,0.0,0.0,0.0,0.0,0.0,0.0,0.0,0.0,0.0,0.0,
0.7855,2.0997020091762426,2.100643827985718,2.1051473050313882,0.0,0.0,0.0,2.101831047397783,0.0,0.0,0.0,0.0,0.0,0.0,0.0,0.0,0.0,0.0,0.0,0.0,0.0,0.0,
0.8009,2.099825273526273,2.100769239386229,2.105274824544251,0.0,0.0,0.0,2.1019564458189177,0.0,0.0,0.0,0.0,0.0,0.0,0.0,0.0,0.0,0.0,0.0,0.0,0.0,0.0,
0.8163,2.0999509705814106,2.1008971257484226,2.1054048616386476,0.0,0.0,0.0,2.102084319322827,0.0,0.0,0.0,0.0,0.0,0.0,0.0,0.0,0.0,0.0,0.0,0.0,0.0,0.0,
0.8317,2.10007910264701,2.1010274894106207,2.105537418752302,0.0,0.0,0.0,2.1022146702699778,0.0,0.0,0.0,0.0,0.0,0.0,0.0,0.0,0.0,0.0,0.0,0.0,0.0,0.0,
0.8471,2.1002096720747954,2.1011603327581234,2.105672498371976,0.0,0.0,0.0,2.1023475010682984,0.0,0.0,0.0,0.0,0.0,0.0,0.0,0.0,0.0,0.0,0.0,0.0,0.0,0.0,
0.8625,2.1003426812629726,2.1012956582233455,2.10581010303365,0.0,0.0,0.0,2.1024828141733227,0.0,0.0,0.0,0.0,0.0,0.0,0.0,0.0,0.0,0.0,0.0,0.0,0.0,0.0,
0.8779,2.1004781326563835,2.1014334682859825,2.10595023532265,0.0,0.0,0.0,2.1026206120883386,0.0,0.0,0.0,0.0,0.0,0.0,0.0,0.0,0.0,0.0,0.0,0.0,0.0,0.0,
0.8933,2.100616028746671,2.101573765473126,2.106092897873833,0.0,0.0,0.0,2.102760897364543,0.0,0.0,0.0,0.0,0.0,0.0,0.0,0.0,0.0,0.0,0.0,0.0,0.0,0.0,
0.9087,2.1007563720724,2.101716552359436,2.1062380933717284,0.0,0.0,0.0,2.102903672601188,0.0,0.0,0.0,0.0,0.0,0.0,0.0,0.0,0.0,0.0,0.0,0.0,0.0,0.0,
0.9241,2.1008991652192366,2.1018618315672892,2.1063858245507188,0.0,0.0,0.0,2.103048940445748,0.0,0.0,0.0,0.0,0.0,0.0,0.0,0.0,0.0,0.0,0.0,0.0,0.0,0.0,
0.9395,2.1010444108200925,2.1020096057669426,2.1065360941951896,0.0,0.0,0.0,2.103196703594075,0.0,0.0,0.0,0.0,0.0,0.0,0.0,0.0,0.0,0.0,0.0,0.0,0.0,0.0,
0.9549,2.1011921115552887,2.1021598776766766,2.106688905139718,0.0,0.0,0.0,2.103346964790561,0.0,0.0,0.0,0.0,0.0,0.0,0.0,0.0,0.0,0.0,0.0,0.0,0.0,0.0,
0.9703,2.1013422701527213,2.1023126500629834,2.1068442602692468,0.0,0.0,0.0,2.1034997268283173,0.0,0.0,0.0,0.0,0.0,0.0,0.0,0.0,0.0,0.0,0.0,0.0,0.0,0.0,
0.9857,2.1014948893880145,2.1024679257407124,2.107002162519263,0.0,0.0,0.0,2.10365499254933,0.0,0.0,0.0,0.0,0.0,0.0,0.0,0.0,0.0,0.0,0.0,0.0,0.0,0.0,
1.0011,2.1016499720847164,2.1026257075732366,2.1071626148759592,0.0,0.0,0.0,2.1038127648446374,0.0,0.0,0.0,0.0,0.0,0.0,0.0,0.0,0.0,0.0,0.0,0.0,0.0,0.0,
1.0165,2.101807521114454,2.10278599847265,2.1073256203764514,0.0,0.0,0.0,2.1039730466545183,0.0,0.0,0.0,0.0,0.0,0.0,0.0,0.0,0.0,0.0,0.0,0.0,0.0,0.0,
1.0319,2.1019675393970987,2.1029488013999256,2.1074911821089515,0.0,0.0,0.0,2.1041358409686586,0.0,0.0,0.0,0.0,0.0,0.0,0.0,0.0,0.0,0.0,0.0,0.0,0.0,0.0,
1.0473,2.102130029900969,2.1031141193650877,2.1076593032129636,0.0,0.0,0.0,2.10430115082634,0.0,0.0,0.0,0.0,0.0,0.0,0.0,0.0,0.0,0.0,0.0,0.0,0.0,0.0,
1.0627,2.102294995643014,2.1032819554274207,2.1078299868794685,0.0,0.0,0.0,2.1044689793166342,0.0,0.0,0.0,0.0,0.0,0.0,0.0,0.0,0.0,0.0,0.0,0.0,0.0,0.0,
1.0781,2.1024624396889635,2.1034523126956177,2.1080032363511347,0.0,0.0,0.0,2.1046393295785717,0.0,0.0,0.0,0.0,0.0,0.0,0.0,0.0,0.0,0.0,0.0,0.0,0.0,0.0,
1.0935,2.102632365153564,2.103625194328009,2.108179054922545,0.0,0.0,0.0,2.1048122048013727,0.0,0.0,0.0,0.0,0.0,0.0,0.0,0.0,0.0,0.0,0.0,0.0,0.0,0.0,
1.1089,2.1028047752007333,2.1038006035327257,2.1083574459403245,0.0,0.0,0.0,2.104987608224594,0.0,0.0,0.0,0.0,0.0,0.0,0.0,0.0,0.0,0.0,0.0,0.0,0.0,0.0,
1.1243,2.1029796730437864,2.103978543567905,2.108538412803468,0.0,0.0,0.0,2.1051655431383867,0.0,0.0,0.0,0.0,0.0,0.0,0.0,0.0,0.0,0.0,0.0,0.0,0.0,0.0,
1.1397,2.1031570619456117,2.1041590177418925,2.108721958963446,0.0,0.0,0.0,2.10534601288365,0.0,0.0,0.0,0.0,0.0,0.0,0.0,0.0,0.0,0.0,0.0,0.0,0.0,0.0,
1.1551,2.103336945218883,2.1043420294134387,2.108908087924481,0.0,0.0,0.0,2.1055290208522677,0.0,0.0,0.0,0.0,0.0,0.0,0.0,0.0,0.0,0.0,0.0,0.0,0.0,0.0,
1.1705,2.1035193262262712,2.104527581991905,2.1090968032437623,0.0,0.0,0.0,2.105714570487313,0.0,0.0,0.0,0.0,0.0,0.0,0.0,0.0,0.0,0.0,0.0,0.0,0.0,0.0,
1.1859,2.103704208380648,2.1047156789374855,2.1092881085316586,0.0,0.0,0.0,2.105902665283264,0.0,0.0,0.0,0.0,0.0,0.0,0.0,0.0,0.0,0.0,0.0,0.0,0.0,0.0,
1.2013,2.1038915951452855,2.104906323761396,2.1094820074519554,0.0,0.0,0.0,2.106093308786212,0.0,0.0,0.0,0.0,0.0,0.0,0.0,0.0,0.0,0.0,0.0,0.0,0.0,0.0,
1.2167,2.104081490034113,2.105099520026119,2.109678503722078,0.0,0.0,0.0,2.1062865045941037,0.0,0.0,0.0,0.0,0.0,0.0,0.0,0.0,0.0,0.0,0.0,0.0,0.0,0.0,
1.2321,2.104273896611884,2.105295271345595,2.1098776011133378,0.0,0.0,0.0,2.106482256356939,0.0,0.0,0.0,0.0,0.0,0.0,0.0,0.0,0.0,0.0,0.0,0.0,0.0,0.0,
1.2475,2.1044688184944462,2.1054935813854594,2.1100793034511818,0.0,0.0,0.0,2.1066805677770293,0.0,0.0,0.0,0.0,0.0,0.0,0.0,0.0,0.0,0.0,0.0,0.0,0.0,0.0,
1.2629,2.104666259348946,2.1056944538632933,2.1102836146154136,0.0,0.0,0.0,2.1068814426092177,0.0,0.0,0.0,0.0,0.0,0.0,0.0,0.0,0.0,0.0,0.0,0.0,0.0,0.0,
1.2783,2.1048662228940573,2.1058978925488034,2.1104905385404598,0.0,0.0,0.0,2.107084884661107,0.0,0.0,0.0,0.0,0.0,0.0,0.0,0.0,0.0,0.0,0.0,0.0,0.0,0.0,
1.2937,2.10506871290023,2.106103901264097,2.1107000792156168,0.0,0.0,0.0,2.1072908977933147,0.0,0.0,0.0,0.0,0.0,0.0,0.0,0.0,0.0,0.0,0.0,0.0,0.0,0.0,
1.3091,2.1052737331899234,2.1063124838839125,2.110912240685302,0.0,0.0,0.0,2.1074994859197127,0.0,0.0,0.0,0.0,0.0,0.0,0.0,0.0,0.0,0.0,0.0,0.0,0.0,0.0,
1.3245,2.10548128763784,2.1065236443358404,2.1111270270493283,0.0,0.0,0.0,2.1077106530076697,0.0,0.0,0.0,0.0,0.0,0.0,0.0,0.0,0.0,0.0,0.0,0.0,0.0,0.0,
1.3399,2.105691380171184,2.1067373866006003,2.111344442463155,0.0,0.0,0.0,2.107924403078313,0.0,0.0,0.0,0.0,0.0,0.0,0.0,0.0,0.0,0.0,0.0,0.0,0.0,0.0,
1.3553,2.1059040147699113,2.106953714712273,2.111564491138169,0.0,0.0,0.0,2.1081407402067844,0.0,0.0,0.0,0.0,0.0,0.0,0.0,0.0,0.0,0.0,0.0,0.0,0.0,0.0,
1.3707,2.1061191954669605,2.1071726327585436,2.1117871773419417,0.0,0.0,0.0,2.108359668522482,0.0,0.0,0.0,0.0,0.0,0.0,0.0,0.0,0.0,0.0,0.0,0.0,0.0,0.0,
1.3861,2.1063369263485536,2.1073941448809883,2.112012505398517,0.0,0.0,0.0,2.108581192209353,0.0,0.0,0.0,0.0,0.0,0.0,0.0,0.0,0.0,0.0,0.0,0.0,0.0,0.0,
1.4015,2.1065572115544136,2.1076182552753124,2.112240479688703,0.0,0.0,0.0,2.108805315506143,0.0,0.0,0.0,0.0,0.0,0.0,0.0,0.0,0.0,0.0,0.0,0.0,0.0,0.0,
1.4169,2.106780055278061,2.107844968191611,2.1124711046503366,0.0,0.0,0.0,2.1090320427066698,0.0,0.0,0.0,0.0,0.0,0.0,0.0,0.0,0.0,0.0,0.0,0.0,0.0,0.0,
1.4323,2.1070054617670704,2.1080742879346746,2.1127043847785822,0.0,0.0,0.0,2.109261378160109,0.0,0.0,0.0,0.0,0.0,0.0,0.0,0.0,0.0,0.0,0.0,0.0,0.0,0.0,
1.4477,2.107233435323347,2.108306218864216,2.11294032462623,0.0,0.0,0.0,2.1094933262712643,0.0,0.0,0.0,0.0,0.0,0.0,0.0,0.0,0.0,0.0,0.0,0.0,0.0,0.0,
1.4631,2.1074639803034074,2.1085407653951753,2.113178928803996,0.0,0.0,0.0,2.1097278915008597,0.0,0.0,0.0,0.0,0.0,0.0,0.0,0.0,0.0,0.0,0.0,0.0,0.0,0.0,
1.4785,2.10769710111865,2.1087779319980013,2.1134202019808157,0.0,0.0,0.0,2.1099650783658226,0.0,0.0,0.0,0.0,0.0,0.0,0.0,0.0,0.0,0.0,0.0,0.0,0.0,0.0,
1.4939,2.107932802235662,2.109017723198922,2.1136641488841654,0.0,0.0,0.0,2.110204891439583,0.0,0.0,0.0,0.0,0.0,0.0,0.0,0.0,0.0,0.0,0.0,0.0,0.0,0.0,
1.5093,2.1081710881764915,2.1092601435802454,2.113910774300365,0.0,0.0,0.0,2.1104473353523674,0.0,0.0,0.0,0.0,0.0,0.0,0.0,0.0,0.0,0.0,0.0,0.0,0.0,0.0,
1.5247,2.1084119635189564,2.109505197780662,2.1141600830749097,0.0,0.0,0.0,2.1106924147915094,0.0,0.0,0.0,0.0,0.0,0.0,0.0,0.0,0.0,0.0,0.0,0.0,0.0,0.0,
1.5401,2.108655432896938,2.109752890495525,2.1144120801127566,0.0,0.0,0.0,2.1109401345017402,0.0,0.0,0.0,0.0,0.0,0.0,0.0,0.0,0.0,0.0,0.0,0.0,0.0,0.0,
1.5555,2.1089015010006773,2.1100032264771675,2.1146667703786965,0.0,0.0,0.0,2.111190499285514,0.0,0.0,0.0,0.0,0.0,0.0,0.0,0.0,0.0,0.0,0.0,0.0,0.0,0.0,
1.5709,2.1091501725770945,2.110256210535197,2.114924158897664,0.0,0.0,0.0,2.1114435140033185,0.0,0.0,0.0,0.0,0.0,0.0,0.0,0.0,0.0,0.0,0.0,0.0,0.0,0.0,
1.5863,2.109401452430098,2.110511847536822,2.1151842507550658,0.0,0.0,0.0,2.1116991835739953,0.0,0.0,0.0,0.0,0.0,0.0,0.0,0.0,0.0,0.0,0.0,0.0,0.0,0.0,
1.6017,2.1096553454208973,2.1107701424071577,2.11544705109713,0.0,0.0,0.0,2.111957512975062,0.0,0.0,0.0,0.0,0.0,0.0,0.0,0.0,0.0,0.0,0.0,0.0,0.0,0.0,
1.6171,2.1099118564683437,2.1110311001295514,2.1157125651312705,0.0,0.0,0.0,2.112218507243055,0.0,0.0,0.0,0.0,0.0,0.0,0.0,0.0,0.0,0.0,0.0,0.0,0.0,0.0,
1.6325,2.110170990549218,2.1112947257459087,2.115980798126408,0.0,0.0,0.0,2.112482171473845,0.0,0.0,0.0,0.0,0.0,0.0,0.0,0.0,0.0,0.0,0.0,0.0,0.0,0.0,
1.6479,2.110432752698606,2.1115610243570164,2.116251755413335,0.0,0.0,0.0,2.112748510822986,0.0,0.0,0.0,0.0,0.0,0.0,0.0,0.0,0.0,0.0,0.0,0.0,0.0,0.0,
1.6633,2.110697148010202,2.1118300011228848,2.11652544238509,0.0,0.0,0.0,2.1130175305060592,0.0,0.0,0.0,0.0,0.0,0.0,0.0,0.0,0.0,0.0,0.0,0.0,0.0,0.0,
1.6787,2.1109641816366698,2.112101661263095,2.1168018644973183,0.0,0.0,0.0,2.113289235799028,0.0,0.0,0.0,0.0,0.0,0.0,0.0,0.0,0.0,0.0,0.0,0.0,0.0,0.0,
1.6941,2.111233858789971,2.112376010057116,2.1170810272686325,0.0,0.0,0.0,2.113563632038573,0.0,0.0,0.0,0.0,0.0,0.0,0.0,0.0,0.0,0.0,0.0,0.0,0.0,0.0,
1.7095,2.1115061847417333,2.1126530528446787,2.117362936281003,0.0,0.0,0.0,2.1138407246224715,0.0,0.0,0.0,0.0,0.0,0.0,0.0,0.0,0.0,0.0,0.0,0.0,0.0,0.0,
1.7249,2.1117811648235882,2.112932795026129,2.1176475971801447,0.0,0.0,0.0,2.1141205190099543,0.0,0.0,0.0,0.0,0.0,0.0,0.0,0.0,0.0,0.0,0.0,0.0,0.0,0.0,
1.7403,2.1120588044275452,2.113215242062775,2.1179350156758785,0.0,0.0,0.0,2.114403020722066,0.0,0.0,0.0,0.0,0.0,0.0,0.0,0.0,0.0,0.0,0.0,0.0,0.0,0.0,
1.7557,2.112339109006352,2.1135003994772563,2.118225197542548,0.0,0.0,0.0,2.114688235342052,0.0,0.0,0.0,0.0,0.0,0.0,0.0,0.0,0.0,0.0,0.0,0.0,0.0,0.0,
1.7711,2.112622084073856,2.1137882728539097,2.118518148619427,0.0,0.0,0.0,2.1149761685157307,0.0,0.0,0.0,0.0,0.0,0.0,0.0,0.0,0.0,0.0,0.0,0.0,0.0,0.0,
1.7865,2.112907735205402,2.1140788678391615,2.1188138748110843,0.0,0.0,0.0,2.1152668259518825,0.0,0.0,0.0,0.0,0.0,0.0,0.0,0.0,0.0,0.0,0.0,0.0,0.0,0.0,
1.8019,2.113196068038194,2.1143721901418715,2.1191123820878497,0.0,0.0,0.0,2.1155602134226386,0.0,0.0,0.0,0.0,0.0,0.0,0.0,0.0,0.0,0.0,0.0,0.0,0.0,0.0,
1.8173,2.113487088271687,2.114668245533764,2.119413676486168,0.0,0.0,0.0,2.115856336763873,0.0,0.0,0.0,0.0,0.0,0.0,0.0,0.0,0.0,0.0,0.0,0.0,0.0,0.0,
1.8327,2.113780801667975,2.114967039849774,2.119717764109086,0.0,0.0,0.0,2.116155201875612,0.0,0.0,0.0,0.0,0.0,0.0,0.0,0.0,0.0,0.0,0.0,0.0,0.0,0.0,
1.8481,2.1140772140522053,2.115268578988469,2.1200246511266125,0.0,0.0,0.0,2.116456814722429,0.0,0.0,0.0,0.0,0.0,0.0,0.0,0.0,0.0,0.0,0.0,0.0,0.0,0.0,
1.8635,2.114376331312951,2.115572868912442,2.120334343776198,0.0,0.0,0.0,2.116761181333864,0.0,0.0,0.0,0.0,0.0,0.0,0.0,0.0,0.0,0.0,0.0,0.0,0.0,0.0,
1.8789,2.1146781594026436,2.1158799156487214,2.120646848363177,0.0,0.0,0.0,2.117068307804847,0.0,0.0,0.0,0.0,0.0,0.0,0.0,0.0,0.0,0.0,0.0,0.0,0.0,0.0,
1.8943,2.114982704337982,2.1161897252891797,2.120962171261179,0.0,0.0,0.0,2.1173782002961135,0.0,0.0,0.0,0.0,0.0,0.0,0.0,0.0,0.0,0.0,0.0,0.0,0.0,0.0,
1.9097,2.1152899722003426,2.116502303990945,2.1212803189126066,0.0,0.0,0.0,2.1176908650346316,0.0,0.0,0.0,0.0,0.0,0.0,0.0,0.0,0.0,0.0,0.0,0.0,0.0,0.0,
1.9251,2.1155999691362197,2.116817657976841,2.1216012978290966,0.0,0.0,0.0,2.1180063083140523,0.0,0.0,0.0,0.0,0.0,0.0,0.0,0.0,0.0,0.0,0.0,0.0,0.0,0.0,
1.9405,2.1159127013576375,2.117135793535806,2.1219251145919555,0.0,0.0,0.0,2.118324536495133,0.0,0.0,0.0,0.0,0.0,0.0,0.0,0.0,0.0,0.0,0.0,0.0,0.0,0.0,
1.9559,2.1162281751426084,2.1174567170233267,2.1222517758526633,0.0,0.0,0.0,2.1186455560061996,0.0,0.0,0.0,0.0,0.0,0.0,0.0,0.0,0.0,0.0,0.0,0.0,0.0,0.0,
1.9713,2.1165463968355525,2.117780434861878,2.1225812883333317,0.0,0.0,0.0,2.1189693733435875,0.0,0.0,0.0,0.0,0.0,0.0,0.0,0.0,0.0,0.0,0.0,0.0,0.0,0.0,
1.9867,2.116867372847765,2.118106953541375,2.1229136588272013,0.0,0.0,0.0,2.1192959950721137,0.0,0.0,0.0,0.0,0.0,0.0,0.0,0.0,0.0,0.0,0.0,0.0,0.0,0.0,
2.0021,2.1171911096578686,2.1184362796196305,2.123248894199107,0.0,0.0,0.0,2.1196254278255355,0.0,0.0,0.0,0.0,0.0,0.0,0.0,0.0,0.0,0.0,0.0,0.0,0.0,0.0,
