energies(eV),real_xx,real_yy,real_zz,real_xy,real_yz,real_xz,real_ave,imag_xx,imag_yy,imag_zz,imag_xy,imag_yz,imag_xz,imag_ave,absorption_xx,absorption_yy,absorption_zz,absorption_xy,absorption_yz,absorption_xz,absorption_ave,band_gap
0.0,2.408123406624732,2.4168585964732445,2.4438293686480916,0.0,0.0,0.0,2.422937123915356,0.0,0.0,0.0,0.0,0.0,0.0,0.0,0.0,0.0,0.0,0.0,0.0,0.0,0.0,6.287
0.0155,2.4081255560728803,2.4168607206586668,2.4438316073916164,0.0,0.0,0.0,2.4229392947077213,0.0,0.0,0.0,0.0,0.0,0.0,0.0,0.0,0.0,0.0,0.0,0.0,0.0,0.0,
0.0311,2.408132060035445,2.416867148178532,2.4438383815524505,0.0,0.0,0.0,2.422945863255476,0.0,0.0,0.0,0.0,0.0,0.0,0.0,0.0,0.0,0.0,0.0,0.0,0.0,0.0,
0.0466,2.408142835304159,2.416877796799972,2.4438496044701097,0.0,0.0,0.0,2.422956745524747,0.0,0.0,0.0,0.0,0.0,0.0,0.0,0.0,0.0,0.0,0.0,0.0,0.0,0.0,
0.0622,2.408158021210467,2.4168928042125133,2.4438654212722013,0.0,0.0,0.0,2.4229720822317273,0.0,0.0,0.0,0.0,0.0,0.0,0.0,0.0,0.0,0.0,0.0,0.0,0.0,0.0,
0.0777,2.4081774234738926,2.4169119784132658,2.443885629617605,0.0,0.0,0.0,2.4229916771682545,0.0,0.0,0.0,0.0,0.0,0.0,0.0,0.0,0.0,0.0,0.0,0.0,0.0,0.0,
0.0933,2.4082012929788013,2.416935567329886,2.4439104908278146,0.0,0.0,0.0,2.423015783712167,0.0,0.0,0.0,0.0,0.0,0.0,0.0,0.0,0.0,0.0,0.0,0.0,0.0,0.0,
0.1088,2.4082293243514377,2.4169632691689156,2.4439396868585757,0.0,0.0,0.0,2.423044093459643,0.0,0.0,0.0,0.0,0.0,0.0,0.0,0.0,0.0,0.0,0.0,0.0,0.0,0.0,
0.1244,2.408261880056564,2.416995442122859,2.443973595254624,0.0,0.0,0.0,2.423076972478016,0.0,0.0,0.0,0.0,0.0,0.0,0.0,0.0,0.0,0.0,0.0,0.0,0.0,0.0,
0.1399,2.408298543594027,2.4170316745754925,2.444011782233212,0.0,0.0,0.0,2.4231140001342437,0.0,0.0,0.0,0.0,0.0,0.0,0.0,0.0,0.0,0.0,0.0,0.0,0.0,0.0,
0.1555,2.4083397890486724,2.41707243502284,2.4440547416046963,0.0,0.0,0.0,2.4231556552254028,0.0,0.0,0.0,0.0,0.0,0.0,0.0,0.0,0.0,0.0,0.0,0.0,0.0,0.0,
0.171,2.408385088748792,2.417117201981845,2.4441019237996184,0.0,0.0,0.0,2.4232014048434185,0.0,0.0,0.0,0.0,0.0,0.0,0.0,0.0,0.0,0.0,0.0,0.0,0.0,0.0,
0.1865,2.4084346944318322,2.4171662242121505,2.4441535910480274,0.0,0.0,0.0,2.42325150323067,0.0,0.0,0.0,0.0,0.0,0.0,0.0,0.0,0.0,0.0,0.0,0.0,0.0,0.0,
0.2021,2.408488969255435,2.4172198605795794,2.444210121636768,0.0,0.0,0.0,2.423306317157261,0.0,0.0,0.0,0.0,0.0,0.0,0.0,0.0,0.0,0.0,0.0,0.0,0.0,0.0,
0.2176,2.408547218858249,2.4172774248694644,2.4442707923840192,0.0,0.0,0.0,2.423365145370578,0.0,0.0,0.0,0.0,0.0,0.0,0.0,0.0,0.0,0.0,0.0,0.0,0.0,0.0,
0.2332,2.4086101964496747,2.417339661406381,2.44433638784827,0.0,0.0,0.0,2.4234287485681087,0.0,0.0,0.0,0.0,0.0,0.0,0.0,0.0,0.0,0.0,0.0,0.0,0.0,0.0,
0.2487,2.4086770963310453,2.4174057739474324,2.4444060688840006,0.0,0.0,0.0,2.4234963130541596,0.0,0.0,0.0,0.0,0.0,0.0,0.0,0.0,0.0,0.0,0.0,0.0,0.0,0.0,
0.2643,2.4087487835672152,2.417476617349858,2.444480736566713,0.0,0.0,0.0,2.4235687124945953,0.0,0.0,0.0,0.0,0.0,0.0,0.0,0.0,0.0,0.0,0.0,0.0,0.0,0.0,
0.2798,2.4088243410346397,2.417551285257325,2.4445594356937708,0.0,0.0,0.0,2.423645020661912,0.0,0.0,0.0,0.0,0.0,0.0,0.0,0.0,0.0,0.0,0.0,0.0,0.0,0.0,
0.2954,2.408904745748562,2.41763074315218,2.4446431839590104,0.0,0.0,0.0,2.4237262242865842,0.0,0.0,0.0,0.0,0.0,0.0,0.0,0.0,0.0,0.0,0.0,0.0,0.0,0.0,
0.3109,2.4089889690608306,2.417713974467512,2.444730909996224,0.0,0.0,0.0,2.4238112845081887,0.0,0.0,0.0,0.0,0.0,0.0,0.0,0.0,0.0,0.0,0.0,0.0,0.0,0.0,
0.3264,2.4090775147436876,2.4178014770106344,2.444823138585521,0.0,0.0,0.0,2.4239007101132812,0.0,0.0,0.0,0.0,0.0,0.0,0.0,0.0,0.0,0.0,0.0,0.0,0.0,0.0,
0.342,2.40917099841458,2.417893859108906,2.4449205110177816,0.0,0.0,0.0,2.423995122847089,0.0,0.0,0.0,0.0,0.0,0.0,0.0,0.0,0.0,0.0,0.0,0.0,0.0,0.0,
0.3575,2.409268224104392,2.4179899388490473,2.445021781640359,0.0,0.0,0.0,2.4240933148646,0.0,0.0,0.0,0.0,0.0,0.0,0.0,0.0,0.0,0.0,0.0,0.0,0.0,0.0,
0.3731,2.409370449020481,2.418090958581266,2.4451282600354043,0.0,0.0,0.0,2.4241965558790506,0.0,0.0,0.0,0.0,0.0,0.0,0.0,0.0,0.0,0.0,0.0,0.0,0.0,0.0,
0.3886,2.4094763653665128,2.4181956258870474,2.445238584063645,0.0,0.0,0.0,2.424303525105735,0.0,0.0,0.0,0.0,0.0,0.0,0.0,0.0,0.0,0.0,0.0,0.0,0.0,0.0,
0.4042,2.4095873427299415,2.418305294160054,2.445354180384543,0.0,0.0,0.0,2.4244156057581794,0.0,0.0,0.0,0.0,0.0,0.0,0.0,0.0,0.0,0.0,0.0,0.0,0.0,0.0,
0.4197,2.409701961344635,2.4184185603377033,2.4454735702198986,0.0,0.0,0.0,2.424531363967412,0.0,0.0,0.0,0.0,0.0,0.0,0.0,0.0,0.0,0.0,0.0,0.0,0.0,0.0,
0.4353,2.4098217033290448,2.4185368890040237,2.44559829746772,0.0,0.0,0.0,2.424652296600263,0.0,0.0,0.0,0.0,0.0,0.0,0.0,0.0,0.0,0.0,0.0,0.0,0.0,0.0,
0.4508,2.409945036792246,2.4186587663014496,2.445726766545385,0.0,0.0,0.0,2.42477685654636,0.0,0.0,0.0,0.0,0.0,0.0,0.0,0.0,0.0,0.0,0.0,0.0,0.0,0.0,
0.4664,2.4100735565471476,2.4187857681635103,2.4458606387640427,0.0,0.0,0.0,2.4249066544915667,0.0,0.0,0.0,0.0,0.0,0.0,0.0,0.0,0.0,0.0,0.0,0.0,0.0,0.0,
0.4819,2.410205618410621,2.4189162697746456,2.4459982015578996,0.0,0.0,0.0,2.425040029914389,0.0,0.0,0.0,0.0,0.0,0.0,0.0,0.0,0.0,0.0,0.0,0.0,0.0,0.0,
0.4974,2.4103420358051615,2.4190510748991505,2.4461403023186334,0.0,0.0,0.0,2.4251778043409815,0.0,0.0,0.0,0.0,0.0,0.0,0.0,0.0,0.0,0.0,0.0,0.0,0.0,0.0,
0.513,2.4104837348585617,2.419191098658848,2.4462879058673916,0.0,0.0,0.0,2.425320913128267,0.0,0.0,0.0,0.0,0.0,0.0,0.0,0.0,0.0,0.0,0.0,0.0,0.0,0.0,
0.5285,2.4106289027893495,2.4193345496479415,2.446439123988003,0.0,0.0,0.0,2.425467525475098,0.0,0.0,0.0,0.0,0.0,0.0,0.0,0.0,0.0,0.0,0.0,0.0,0.0,0.0,
0.5441,2.410779416762722,2.419483282770885,2.446595912187429,0.0,0.0,0.0,2.4256195372403453,0.0,0.0,0.0,0.0,0.0,0.0,0.0,0.0,0.0,0.0,0.0,0.0,0.0,0.0,
0.5596,2.4109333512320883,2.4196353952034624,2.4467562647613175,0.0,0.0,0.0,2.4257750037322894,0.0,0.0,0.0,0.0,0.0,0.0,0.0,0.0,0.0,0.0,0.0,0.0,0.0,0.0,
0.5752,2.411092696728811,2.4197928538535054,2.446922255347392,0.0,0.0,0.0,2.425935935309903,0.0,0.0,0.0,0.0,0.0,0.0,0.0,0.0,0.0,0.0,0.0,0.0,0.0,0.0,
0.5907,2.411255414729802,2.4199536442725593,2.4470917605273357,0.0,0.0,0.0,2.4261002731765657,0.0,0.0,0.0,0.0,0.0,0.0,0.0,0.0,0.0,0.0,0.0,0.0,0.0,0.0,
0.6063,2.4114236093534274,2.420119845586844,2.44726697230557,0.0,0.0,0.0,2.4262701424152806,0.0,0.0,0.0,0.0,0.0,0.0,0.0,0.0,0.0,0.0,0.0,0.0,0.0,0.0,
0.6218,2.4115951288760136,2.4202893315054546,2.4474456493105086,0.0,0.0,0.0,2.4264433698973256,0.0,0.0,0.0,0.0,0.0,0.0,0.0,0.0,0.0,0.0,0.0,0.0,0.0,0.0,
0.6374,2.411772191236731,2.420464293600548,2.447630102163069,0.0,0.0,0.0,2.4266221956667824,0.0,0.0,0.0,0.0,0.0,0.0,0.0,0.0,0.0,0.0,0.0,0.0,0.0,0.0,
0.6529,2.411952531274414,2.420642493508195,2.447817971285354,0.0,0.0,0.0,2.4268043320226544,0.0,0.0,0.0,0.0,0.0,0.0,0.0,0.0,0.0,0.0,0.0,0.0,0.0,0.0,
0.6684,2.412137274794752,2.4208250436100194,2.448010429600871,0.0,0.0,0.0,2.4269909160018805,0.0,0.0,0.0,0.0,0.0,0.0,0.0,0.0,0.0,0.0,0.0,0.0,0.0,0.0,
0.684,2.4123276615526223,2.421013168855999,2.4482087687915755,0.0,0.0,0.0,2.427183199733399,0.0,0.0,0.0,0.0,0.0,0.0,0.0,0.0,0.0,0.0,0.0,0.0,0.0,0.0,
0.6995,2.4125212559414804,2.4212044624937095,2.4484104516563727,0.0,0.0,0.0,2.427378723363854,0.0,0.0,0.0,0.0,0.0,0.0,0.0,0.0,0.0,0.0,0.0,0.0,0.0,0.0,
0.7151,2.4127205613768123,2.4214013981072395,2.448618086350152,0.0,0.0,0.0,2.427580015278068,0.0,0.0,0.0,0.0,0.0,0.0,0.0,0.0,0.0,0.0,0.0,0.0,0.0,0.0,
0.7306,2.412923028166187,2.4216014562398733,2.448829016772847,0.0,0.0,0.0,2.4277845003929692,0.0,0.0,0.0,0.0,0.0,0.0,0.0,0.0,0.0,0.0,0.0,0.0,0.0,0.0,
0.7462,2.4131312744670494,2.421807223818231,2.4490459706802667,0.0,0.0,0.0,2.427994822988516,0.0,0.0,0.0,0.0,0.0,0.0,0.0,0.0,0.0,0.0,0.0,0.0,0.0,0.0,
0.7617,2.41334263621862,2.422016068406376,2.4492661727716136,0.0,0.0,0.0,2.4282082924655364,0.0,0.0,0.0,0.0,0.0,0.0,0.0,0.0,0.0,0.0,0.0,0.0,0.0,0.0,
0.7773,2.4135598466135137,2.4222306905588273,2.4494924707170522,0.0,0.0,0.0,2.4284276692964646,0.0,0.0,0.0,0.0,0.0,0.0,0.0,0.0,0.0,0.0,0.0,0.0,0.0,0.0,
0.7928,2.413780126926973,2.422448344572633,2.4497219696991697,0.0,0.0,0.0,2.4286501470662585,0.0,0.0,0.0,0.0,0.0,0.0,0.0,0.0,0.0,0.0,0.0,0.0,0.0,0.0,
0.8083,2.4140048613200027,2.4226703980293496,2.4499561119458875,0.0,0.0,0.0,2.42887712376508,0.0,0.0,0.0,0.0,0.0,0.0,0.0,0.0,0.0,0.0,0.0,0.0,0.0,0.0,
0.8239,2.4142355492153795,2.422898332356416,2.450196459846407,0.0,0.0,0.0,2.429110113806068,0.0,0.0,0.0,0.0,0.0,0.0,0.0,0.0,0.0,0.0,0.0,0.0,0.0,0.0,
0.8394,2.414469239494175,2.423129231565383,2.450439938878014,0.0,0.0,0.0,2.4293461366458575,0.0,0.0,0.0,0.0,0.0,0.0,0.0,0.0,0.0,0.0,0.0,0.0,0.0,0.0,
0.855,2.414708954122156,2.4233660814313636,2.450689697768759,0.0,0.0,0.0,2.4295882444407595,0.0,0.0,0.0,0.0,0.0,0.0,0.0,0.0,0.0,0.0,0.0,0.0,0.0,0.0,
0.8705,2.414951626519165,2.4236058519228907,2.450942541627293,0.0,0.0,0.0,2.4298333400231162,0.0,0.0,0.0,0.0,0.0,0.0,0.0,0.0,0.0,0.0,0.0,0.0,0.0,0.0,
0.8861,2.4152003948189456,2.423851643545433,2.4512017403071518,0.0,0.0,0.0,2.4300845928905104,0.0,0.0,0.0,0.0,0.0,0.0,0.0,0.0,0.0,0.0,0.0,0.0,0.0,0.0,
0.9016,2.4154520766372736,2.4241003118907707,2.4514639781819505,0.0,0.0,0.0,2.4303387889033314,0.0,0.0,0.0,0.0,0.0,0.0,0.0,0.0,0.0,0.0,0.0,0.0,0.0,0.0,
0.9172,2.4157099266307513,2.424355072540072,2.4517326466101546,0.0,0.0,0.0,2.430599215260326,0.0,0.0,0.0,0.0,0.0,0.0,0.0,0.0,0.0,0.0,0.0,0.0,0.0,0.0,
0.9327,2.4159706462544603,2.4246126663613135,2.4520043088491663,0.0,0.0,0.0,2.4308625404883135,0.0,0.0,0.0,0.0,0.0,0.0,0.0,0.0,0.0,0.0,0.0,0.0,0.0,0.0,
0.9483,2.4162376070568286,2.4248764243703773,2.452282478156947,0.0,0.0,0.0,2.4311321698613844,0.0,0.0,0.0,0.0,0.0,0.0,0.0,0.0,0.0,0.0,0.0,0.0,0.0,0.0,
0.9638,2.4165073939616883,2.4251429723508027,2.452563596278588,0.0,0.0,0.0,2.4314046541970264,0.0,0.0,0.0,0.0,0.0,0.0,0.0,0.0,0.0,0.0,0.0,0.0,0.0,0.0,
0.9793,2.416781711278115,2.425413994058124,2.452849439275263,0.0,0.0,0.0,2.4316817148705008,0.0,0.0,0.0,0.0,0.0,0.0,0.0,0.0,0.0,0.0,0.0,0.0,0.0,0.0,
0.9949,2.417062380557254,2.4256912890208637,2.4531419054868993,0.0,0.0,0.0,2.431965191688339,0.0,0.0,0.0,0.0,0.0,0.0,0.0,0.0,0.0,0.0,0.0,0.0,0.0,0.0,
1.0104,2.4173458113892208,2.4259713098761297,2.453437253811169,0.0,0.0,0.0,2.4322514583588397,0.0,0.0,0.0,0.0,0.0,0.0,0.0,0.0,0.0,0.0,0.0,0.0,0.0,0.0,
1.026,2.417635669069929,2.426257677700809,2.453739303883369,0.0,0.0,0.0,2.4325442168847022,0.0,0.0,0.0,0.0,0.0,0.0,0.0,0.0,0.0,0.0,0.0,0.0,0.0,0.0,
1.0415,2.4179282456708533,2.426546729086659,2.454044192033109,0.0,0.0,0.0,2.4328397222635405,0.0,0.0,0.0,0.0,0.0,0.0,0.0,0.0,0.0,0.0,0.0,0.0,0.0,0.0,
1.0571,2.4182273247832162,2.4268422019108287,2.454355861296505,0.0,0.0,0.0,2.43314179599685,0.0,0.0,0.0,0.0,0.0,0.0,0.0,0.0,0.0,0.0,0.0,0.0,0.0,0.0,
1.0726,2.41852908053958,2.427140316310786,2.4546703249856403,0.0,0.0,0.0,2.4334465739453353,0.0,0.0,0.0,0.0,0.0,0.0,0.0,0.0,0.0,0.0,0.0,0.0,0.0,0.0,
1.0882,2.418837415260504,2.4274449273862286,2.454991650001844,0.0,0.0,0.0,2.4337579975495256,0.0,0.0,0.0,0.0,0.0,0.0,0.0,0.0,0.0,0.0,0.0,0.0,0.0,0.0,
1.1037,2.4191483847047417,2.4277521383971568,2.455315726174537,0.0,0.0,0.0,2.434072083092145,0.0,0.0,0.0,0.0,0.0,0.0,0.0,0.0,0.0,0.0,0.0,0.0,0.0,0.0,
1.1193,2.419466010371199,2.428065922102517,2.4556467447507204,0.0,0.0,0.0,2.4343928924081455,0.0,0.0,0.0,0.0,0.0,0.0,0.0,0.0,0.0,0.0,0.0,0.0,0.0,0.0,
1.1348,2.419786229195176,2.4283822644474125,2.4559804715962166,0.0,0.0,0.0,2.434716321746268,0.0,0.0,0.0,0.0,0.0,0.0,0.0,0.0,0.0,0.0,0.0,0.0,0.0,0.0,
1.1503,2.4201110715300675,2.4287031710978875,2.45631902291353,0.0,0.0,0.0,2.4350444218471616,0.0,0.0,0.0,0.0,0.0,0.0,0.0,0.0,0.0,0.0,0.0,0.0,0.0,0.0,
1.1659,2.4204426873868945,2.429030765843,2.456664639768322,0.0,0.0,0.0,2.435379364332739,0.0,0.0,0.0,0.0,0.0,0.0,0.0,0.0,0.0,0.0,0.0,0.0,0.0,0.0,
1.1814,2.420776834782666,2.4293608579935437,2.457012901345143,0.0,0.0,0.0,2.4357168647071177,0.0,0.0,0.0,0.0,0.0,0.0,0.0,0.0,0.0,0.0,0.0,0.0,0.0,0.0,
1.197,2.421117835031871,2.4296977162726927,2.457368311761473,0.0,0.0,0.0,2.4360612876886787,0.0,0.0,0.0,0.0,0.0,0.0,0.0,0.0,0.0,0.0,0.0,0.0,0.0,0.0,
1.2125,2.421461326139161,2.4300370315196425,2.4577263249662433,0.0,0.0,0.0,2.436408227541682,0.0,0.0,0.0,0.0,0.0,0.0,0.0,0.0,0.0,0.0,0.0,0.0,0.0,0.0,
1.2281,2.421811750287957,2.430383191761295,2.4580915712322158,0.0,0.0,0.0,2.4367621710938225,0.0,0.0,0.0,0.0,0.0,0.0,0.0,0.0,0.0,0.0,0.0,0.0,0.0,0.0,
1.2436,2.4221646249679525,2.4307317688763144,2.4584593787348785,0.0,0.0,0.0,2.4371185908597153,0.0,0.0,0.0,0.0,0.0,0.0,0.0,0.0,0.0,0.0,0.0,0.0,0.0,0.0,
1.2592,2.4225245137498277,2.431087270699435,2.458834504457264,0.0,0.0,0.0,2.4374820963021757,0.0,0.0,0.0,0.0,0.0,0.0,0.0,0.0,0.0,0.0,0.0,0.0,0.0,0.0,
1.2747,2.422886813090151,2.4314451496446994,2.459212150246802,0.0,0.0,0.0,2.437848037660551,0.0,0.0,0.0,0.0,0.0,0.0,0.0,0.0,0.0,0.0,0.0,0.0,0.0,0.0,
1.2902,2.4232538253361264,2.4318076798464907,2.459594716202886,0.0,0.0,0.0,2.4382187404618345,0.0,0.0,0.0,0.0,0.0,0.0,0.0,0.0,0.0,0.0,0.0,0.0,0.0,0.0,
1.3058,2.4236279748123097,2.432177255818372,2.459984729771552,0.0,0.0,0.0,2.4385966534674113,0.0,0.0,0.0,0.0,0.0,0.0,0.0,0.0,0.0,0.0,0.0,0.0,0.0,0.0,
1.3213,2.4240044756156736,2.432549149992516,2.46037720243603,0.0,0.0,0.0,2.4389769426814065,0.0,0.0,0.0,0.0,0.0,0.0,0.0,0.0,0.0,0.0,0.0,0.0,0.0,0.0,
1.3369,2.424388196960334,2.432928171835858,2.460777210289936,0.0,0.0,0.0,2.4393645263620427,0.0,0.0,0.0,0.0,0.0,0.0,0.0,0.0,0.0,0.0,0.0,0.0,0.0,0.0,
1.3524,2.4247742305460576,2.43330947298924,2.4611796370281276,0.0,0.0,0.0,2.4397544468544754,0.0,0.0,0.0,0.0,0.0,0.0,0.0,0.0,0.0,0.0,0.0,0.0,0.0,0.0,
1.368,2.4251675689146435,2.4336979846143807,2.4615896875328587,0.0,0.0,0.0,2.4401517470206273,0.0,0.0,0.0,0.0,0.0,0.0,0.0,0.0,0.0,0.0,0.0,0.0,0.0,0.0,
1.3835,2.4255631807943034,2.4340887370022015,2.4620021170956337,0.0,0.0,0.0,2.4405513449640464,0.0,0.0,0.0,0.0,0.0,0.0,0.0,0.0,0.0,0.0,0.0,0.0,0.0,0.0,
1.3991,2.4259661826465067,2.434486783584761,2.4624222600215595,0.0,0.0,0.0,2.4409584087509426,0.0,0.0,0.0,0.0,0.0,0.0,0.0,0.0,0.0,0.0,0.0,0.0,0.0,0.0,
1.4146,2.426371419636985,2.4348870327283985,2.4628447425659123,0.0,0.0,0.0,2.441367731643765,0.0,0.0,0.0,0.0,0.0,0.0,0.0,0.0,0.0,0.0,0.0,0.0,0.0,0.0,
1.4302,2.4267841327557926,2.435294660727533,2.4632750291092336,0.0,0.0,0.0,2.441784607530853,0.0,0.0,0.0,0.0,0.0,0.0,0.0,0.0,0.0,0.0,0.0,0.0,0.0,0.0,
1.4457,2.4271990429984895,2.4357044534330137,2.4637076162196125,0.0,0.0,0.0,2.4422037042170386,0.0,0.0,0.0,0.0,0.0,0.0,0.0,0.0,0.0,0.0,0.0,0.0,0.0,0.0,
1.4612,2.4276187927084294,2.4361190204578147,2.4641452590789,0.0,0.0,0.0,2.4426276907483815,0.0,0.0,0.0,0.0,0.0,0.0,0.0,0.0,0.0,0.0,0.0,0.0,0.0,0.0,
1.4768,2.428046149490772,2.436541094987556,2.464590843734599,0.0,0.0,0.0,2.443059362737642,0.0,0.0,0.0,0.0,0.0,0.0,0.0,0.0,0.0,0.0,0.0,0.0,0.0,0.0,
1.4923,2.4284756471106475,2.436965278154555,2.4650386711739327,0.0,0.0,0.0,2.443493198813045,0.0,0.0,0.0,0.0,0.0,0.0,0.0,0.0,0.0,0.0,0.0,0.0,0.0,0.0,
1.5079,2.4289128404543723,2.4373970559091593,2.4654945337313525,0.0,0.0,0.0,2.443934810031628,0.0,0.0,0.0,0.0,0.0,0.0,0.0,0.0,0.0,0.0,0.0,0.0,0.0,0.0,
1.5234,2.429352137523536,2.4378309053190335,2.465952600999695,0.0,0.0,0.0,2.4443785479474216,0.0,0.0,0.0,0.0,0.0,0.0,0.0,0.0,0.0,0.0,0.0,0.0,0.0,0.0,
1.539,2.4297992200009433,2.438272437401391,2.4664187978200767,0.0,0.0,0.0,2.4448301517408035,0.0,0.0,0.0,0.0,0.0,0.0,0.0,0.0,0.0,0.0,0.0,0.0,0.0,0.0,
1.5545,2.4302483694561703,2.4387160045093177,2.4668871616744736,0.0,0.0,0.0,2.4452838452133205,0.0,0.0,0.0,0.0,0.0,0.0,0.0,0.0,0.0,0.0,0.0,0.0,0.0,0.0,
1.5701,2.4307053950572133,2.4391673433963104,2.467363750649306,0.0,0.0,0.0,2.4457454963676097,0.0,0.0,0.0,0.0,0.0,0.0,0.0,0.0,0.0,0.0,0.0,0.0,0.0,0.0,
1.5856,2.4311644512551647,2.4396206810335705,2.467842469379811,0.0,0.0,0.0,2.4462092005561824,0.0,0.0,0.0,0.0,0.0,0.0,0.0,0.0,0.0,0.0,0.0,0.0,0.0,0.0,
1.6012,2.4316314754104504,2.440081880598151,2.4683295099563267,0.0,0.0,0.0,2.446680955321643,0.0,0.0,0.0,0.0,0.0,0.0,0.0,0.0,0.0,0.0,0.0,0.0,0.0,0.0,
1.6167,2.4321004941509474,2.440545042994353,2.4688186434117485,0.0,0.0,0.0,2.4471547268523497,0.0,0.0,0.0,0.0,0.0,0.0,0.0,0.0,0.0,0.0,0.0,0.0,0.0,0.0,
1.6322,2.432574499436334,2.4410131226646405,2.4693129903248003,0.0,0.0,0.0,2.4476335374752582,0.0,0.0,0.0,0.0,0.0,0.0,0.0,0.0,0.0,0.0,0.0,0.0,0.0,0.0,
1.6478,2.4330566123055473,2.441489201334401,2.4698158062338447,0.0,0.0,0.0,2.4481205399579307,0.0,0.0,0.0,0.0,0.0,0.0,0.0,0.0,0.0,0.0,0.0,0.0,0.0,0.0,
1.6633,2.433540666497408,2.441967189688698,2.4703206605248687,0.0,0.0,0.0,2.448609505570325,0.0,0.0,0.0,0.0,0.0,0.0,0.0,0.0,0.0,0.0,0.0,0.0,0.0,0.0,
1.6789,2.434032922862097,2.442453269884057,2.4708340835319627,0.0,0.0,0.0,2.4491067587593722,0.0,0.0,0.0,0.0,0.0,0.0,0.0,0.0,0.0,0.0,0.0,0.0,0.0,0.0,
1.6944,2.4345270854725958,2.442941224747898,2.4713495090625814,0.0,0.0,0.0,2.449605939761025,0.0,0.0,0.0,0.0,0.0,0.0,0.0,0.0,0.0,0.0,0.0,0.0,0.0,0.0,
1.71,2.4350295459959086,2.4434373654102353,2.4718736042710177,0.0,0.0,0.0,2.4501135052257204,0.0,0.0,0.0,0.0,0.0,0.0,0.0,0.0,0.0,0.0,0.0,0.0,0.0,0.0,
1.7255,2.4355338780681137,2.4439353460915205,2.472399666558902,0.0,0.0,0.0,2.4506229635728456,0.0,0.0,0.0,0.0,0.0,0.0,0.0,0.0,0.0,0.0,0.0,0.0,0.0,0.0,
1.7411,2.436046604967442,2.4444416076670206,2.4729345007536594,0.0,0.0,0.0,2.4511409044627075,0.0,0.0,0.0,0.0,0.0,0.0,0.0,0.0,0.0,0.0,0.0,0.0,0.0,0.0,
1.7566,2.4365611691022533,2.4449496749818413,2.4734712670024983,0.0,0.0,0.0,2.451660703695531,0.0,0.0,0.0,0.0,0.0,0.0,0.0,0.0,0.0,0.0,0.0,0.0,0.0,0.0,
1.7721,2.4370808566849043,2.445462792581596,2.4740133936489848,0.0,0.0,0.0,2.4521856809718283,0.0,0.0,0.0,0.0,0.0,0.0,0.0,0.0,0.0,0.0,0.0,0.0,0.0,0.0,
1.7877,2.437609086561013,2.445984335747469,2.4745644478114426,0.0,0.0,0.0,2.452719290039975,0.0,0.0,0.0,0.0,0.0,0.0,0.0,0.0,0.0,0.0,0.0,0.0,0.0,0.0,
1.8032,2.438139102984274,2.4465076339888405,2.475117382340214,0.0,0.0,0.0,2.4532547064377765,0.0,0.0,0.0,0.0,0.0,0.0,0.0,0.0,0.0,0.0,0.0,0.0,0.0,0.0,
1.8188,2.4386777616555237,2.4470394558381967,2.475679349897022,0.0,0.0,0.0,2.453798855796914,0.0,0.0,0.0,0.0,0.0,0.0,0.0,0.0,0.0,0.0,0.0,0.0,0.0,0.0,
1.8343,2.439218173536637,2.447572999424234,2.476243163861957,0.0,0.0,0.0,2.4543447789409427,0.0,0.0,0.0,0.0,0.0,0.0,0.0,0.0,0.0,0.0,0.0,0.0,0.0,0.0,
1.8499,2.4397673288814543,2.44811516588189,2.4768161177297427,0.0,0.0,0.0,2.454899537497696,0.0,0.0,0.0,0.0,0.0,0.0,0.0,0.0,0.0,0.0,0.0,0.0,0.0,0.0,
1.8654,2.44031820449748,2.4486590211213857,2.4773908844839516,0.0,0.0,0.0,2.455456036700939,0.0,0.0,0.0,0.0,0.0,0.0,0.0,0.0,0.0,0.0,0.0,0.0,0.0,0.0,
1.881,2.440877926080412,2.449211599743247,2.477974899407607,0.0,0.0,0.0,2.4560214750770886,0.0,0.0,0.0,0.0,0.0,0.0,0.0,0.0,0.0,0.0,0.0,0.0,0.0,0.0,
1.8965,2.441439335399524,2.449765834580732,2.4785606941383422,0.0,0.0,0.0,2.456588621372866,0.0,0.0,0.0,0.0,0.0,0.0,0.0,0.0,0.0,0.0,0.0,0.0,0.0,0.0,
1.9121,2.442009694503408,2.4503288945844806,2.4791558467266768,0.0,0.0,0.0,2.4571648119381884,0.0,0.0,0.0,0.0,0.0,0.0,0.0,0.0,0.0,0.0,0.0,0.0,0.0,0.0,
1.9276,2.4425817092174205,2.450893578631267,2.479752746491349,0.0,0.0,0.0,2.4577426781133456,0.0,0.0,0.0,0.0,0.0,0.0,0.0,0.0,0.0,0.0,0.0,0.0,0.0,0.0,
1.9431,2.443159036892695,2.4514634970027145,2.480355210283674,0.0,0.0,0.0,2.458325914726361,0.0,0.0,0.0,0.0,0.0,0.0,0.0,0.0,0.0,0.0,0.0,0.0,0.0,0.0,
1.9587,2.443745472434312,2.452042395494269,2.4809671990176634,0.0,0.0,0.0,2.458918355648748,0.0,0.0,0.0,0.0,0.0,0.0,0.0,0.0,0.0,0.0,0.0,0.0,0.0,0.0,
1.9742,2.4443335162265933,2.452622870570117,2.4815808868886027,0.0,0.0,0.0,2.459512424561771,0.0,0.0,0.0,0.0,0.0,0.0,0.0,0.0,0.0,0.0,0.0,0.0,0.0,0.0,
1.9898,2.444930775110925,2.4532124308493346,2.4822042130771544,0.0,0.0,0.0,2.460115806345805,0.0,0.0,0.0,0.0,0.0,0.0,0.0,0.0,0.0,0.0,0.0,0.0,0.0,0.0,
2.0053,2.4455296111672284,2.4538035365475483,2.4828292069225304,0.0,0.0,0.0,2.4607207848791024,0.0,0.0,0.0,0.0,0.0,0.0,0.0,0.0,0.0,0.0,0.0,0.0,0.0,0.0,
2.0209,2.4461377709568293,2.454403833902436,2.4834639539943195,0.0,0.0,0.0,2.4613351862845283,0.0,0.0,0.0,0.0,0.0,0.0,0.0,0.0,0.0,0.0,0.0,0.0,0.0,0.0,
