energies(eV),real_xx,real_yy,real_zz,real_xy,real_yz,real_xz,real_ave,imag_xx,imag_yy,imag_zz,imag_xy,imag_yz,imag_xz,imag_ave,absorption_xx,absorption_yy,absorption_zz,absorption_xy,absorption_yz,absorption_xz,absorption_ave,band_gap
0.0,3.8171081559301143,3.8171081559301143,3.6723338843415183,0.0,0.0,0.0,3.7688500654005828,0.0,0.0,0.0,0.0,0.0,0.0,0.0,0.0,0.0,0.0,0.0,0.0,0.0,0.0,2.1069
0.0139,3.8171200939097316,3.8171200939097316,3.67234551566255,0.0,0.0,0.0,3.768861901160671,0.0,0.0,0.0,0.0,0.0,0.0,0.0,0.0,0.0,0.0,0.0,0.0,0.0,0.0,
0.0278,3.8171559089800575,3.8171559089800575,3.672380410862446,0.0,0.0,0.0,3.7688974096075203,0.0,0.0,0.0,0.0,0.0,0.0,0.0,0.0,0.0,0.0,0.0,0.0,0.0,0.0,
0.0417,3.8172156045360137,3.8172156045360137,3.672438573651899,0.0,0.0,0.0,3.7689565942413084,0.0,0.0,0.0,0.0,0.0,0.0,0.0,0.0,0.0,0.0,0.0,0.0,0.0,0.0,
0.0556,3.817299186236989,3.817299186236989,3.672520010216978,0.0,0.0,0.0,3.7690394608969853,0.0,0.0,0.0,0.0,0.0,0.0,0.0,0.0,0.0,0.0,0.0,0.0,0.0,0.0,
0.0695,3.8174066620089055,3.8174066620089055,3.672624729221476,0.0,0.0,0.0,3.7691460177464293,0.0,0.0,0.0,0.0,0.0,0.0,0.0,0.0,0.0,0.0,0.0,0.0,0.0,0.0,
0.0834,3.817538042046887,3.817538042046887,3.672752741810195,0.0,0.0,0.0,3.769276275301323,0.0,0.0,0.0,0.0,0.0,0.0,0.0,0.0,0.0,0.0,0.0,0.0,0.0,0.0,
0.0973,3.817693338818732,3.817693338818732,3.6729040616130435,0.0,0.0,0.0,3.7694302464168357,0.0,0.0,0.0,0.0,0.0,0.0,0.0,0.0,0.0,0.0,0.0,0.0,0.0,0.0,
0.1112,3.8178725670692257,3.8178725670692257,3.6730787047503286,0.0,0.0,0.0,3.76960794629626,0.0,0.0,0.0,0.0,0.0,0.0,0.0,0.0,0.0,0.0,0.0,0.0,0.0,0.0,
0.1251,3.8180757438251423,3.8180757438251423,3.6732766898388416,0.0,0.0,0.0,3.7698093924963754,0.0,0.0,0.0,0.0,0.0,0.0,0.0,0.0,0.0,0.0,0.0,0.0,0.0,0.0,
0.139,3.8183028884011945,3.8183028884011945,3.6734980379988245,0.0,0.0,0.0,3.7700346049337377,0.0,0.0,0.0,0.0,0.0,0.0,0.0,0.0,0.0,0.0,0.0,0.0,0.0,0.0,
0.1529,3.818554022406558,3.818554022406558,3.6737427728620364,0.0,0.0,0.0,3.7702836058917177,0.0,0.0,0.0,0.0,0.0,0.0,0.0,0.0,0.0,0.0,0.0,0.0,0.0,0.0,
0.1668,3.8188291697524583,3.8188291697524583,3.6740109205808342,0.0,0.0,0.0,3.7705564200285835,0.0,0.0,0.0,0.0,0.0,0.0,0.0,0.0,0.0,0.0,0.0,0.0,0.0,0.0,
0.1807,3.8191283566602774,3.8191283566602774,3.674302509837956,0.0,0.0,0.0,3.7708530743861703,0.0,0.0,0.0,0.0,0.0,0.0,0.0,0.0,0.0,0.0,0.0,0.0,0.0,0.0,
0.1946,3.8194516116707344,3.8194516116707344,3.6746175718575853,0.0,0.0,0.0,3.7711735983996846,0.0,0.0,0.0,0.0,0.0,0.0,0.0,0.0,0.0,0.0,0.0,0.0,0.0,0.0,
0.2085,3.8197989656536984,3.8197989656536984,3.6749561404172333,0.0,0.0,0.0,3.7715180239082096,0.0,0.0,0.0,0.0,0.0,0.0,0.0,0.0,0.0,0.0,0.0,0.0,0.0,0.0,
0.2224,3.8201704518189485,3.8201704518189485,3.675318251860686,0.0,0.0,0.0,3.7718863851661943,0.0,0.0,0.0,0.0,0.0,0.0,0.0,0.0,0.0,0.0,0.0,0.0,0.0,0.0,
0.2363,3.820566105727681,3.820566105727681,3.6757039451119624,0.0,0.0,0.0,3.772278718855775,0.0,0.0,0.0,0.0,0.0,0.0,0.0,0.0,0.0,0.0,0.0,0.0,0.0,0.0,
0.2502,3.8209859653049625,3.8209859653049625,3.676113261690241,0.0,0.0,0.0,3.7726950641000556,0.0,0.0,0.0,0.0,0.0,0.0,0.0,0.0,0.0,0.0,0.0,0.0,0.0,0.0,
0.2641,3.821430070852933,3.821430070852933,3.6765462457259144,0.0,0.0,0.0,3.77313546247726,0.0,0.0,0.0,0.0,0.0,0.0,0.0,0.0,0.0,0.0,0.0,0.0,0.0,0.0,
0.278,3.821898465064992,3.821898465064992,3.6770029439776937,0.0,0.0,0.0,3.7735999580358928,0.0,0.0,0.0,0.0,0.0,0.0,0.0,0.0,0.0,0.0,0.0,0.0,0.0,0.0,
0.2919,3.8223911930407253,3.8223911930407253,3.6774834058505603,0.0,0.0,0.0,3.7740885973106706,0.0,0.0,0.0,0.0,0.0,0.0,0.0,0.0,0.0,0.0,0.0,0.0,0.0,0.0,
0.3058,3.8229083023018458,3.8229083023018458,3.6779876834152354,0.0,0.0,0.0,3.774601429339642,0.0,0.0,0.0,0.0,0.0,0.0,0.0,0.0,0.0,0.0,0.0,0.0,0.0,0.0,
0.3197,3.823449842809023,3.823449842809023,3.678515831428312,0.0,0.0,0.0,3.77513850568212,0.0,0.0,0.0,0.0,0.0,0.0,0.0,0.0,0.0,0.0,0.0,0.0,0.0,0.0,
0.3336,3.8240158669795656,3.8240158669795656,3.679067907353739,0.0,0.0,0.0,3.775699880437623,0.0,0.0,0.0,0.0,0.0,0.0,0.0,0.0,0.0,0.0,0.0,0.0,0.0,0.0,
0.3475,3.824606429706114,3.824606429706114,3.6796439713853664,0.0,0.0,0.0,3.7762856102658646,0.0,0.0,0.0,0.0,0.0,0.0,0.0,0.0,0.0,0.0,0.0,0.0,0.0,0.0,
0.3614,3.8252215883762366,3.8252215883762366,3.6802440864707844,0.0,0.0,0.0,3.7768957544077524,0.0,0.0,0.0,0.0,0.0,0.0,0.0,0.0,0.0,0.0,0.0,0.0,0.0,0.0,
0.3753,3.825861402893007,3.825861402893007,3.6808683183360835,0.0,0.0,0.0,3.777530374707366,0.0,0.0,0.0,0.0,0.0,0.0,0.0,0.0,0.0,0.0,0.0,0.0,0.0,0.0,
0.3892,3.8265259356966053,3.8265259356966053,3.6815167355120497,0.0,0.0,0.0,3.778189535635087,0.0,0.0,0.0,0.0,0.0,0.0,0.0,0.0,0.0,0.0,0.0,0.0,0.0,0.0,
0.4031,3.827215251786885,3.827215251786885,3.682189409361528,0.0,0.0,0.0,3.778873304311766,0.0,0.0,0.0,0.0,0.0,0.0,0.0,0.0,0.0,0.0,0.0,0.0,0.0,0.0,
0.4169,3.8279241919417,3.8279241919417,3.682881312612548,0.0,0.0,0.0,3.7795765654986493,0.0,0.0,0.0,0.0,0.0,0.0,0.0,0.0,0.0,0.0,0.0,0.0,0.0,0.0,
0.4308,3.828663100417498,3.828663100417498,3.683602549490277,0.0,0.0,0.0,3.7803095834417575,0.0,0.0,0.0,0.0,0.0,0.0,0.0,0.0,0.0,0.0,0.0,0.0,0.0,0.0,
0.4447,3.829427002245439,3.829427002245439,3.6843482738281113,0.0,0.0,0.0,3.7810674261063295,0.0,0.0,0.0,0.0,0.0,0.0,0.0,0.0,0.0,0.0,0.0,0.0,0.0,0.0,
0.4586,3.8302159728914145,3.8302159728914145,3.685118568594379,0.0,0.0,0.0,3.7818501714590695,0.0,0.0,0.0,0.0,0.0,0.0,0.0,0.0,0.0,0.0,0.0,0.0,0.0,0.0,
0.4725,3.831030090509557,3.831030090509557,3.685913519745208,0.0,0.0,0.0,3.7826579002547738,0.0,0.0,0.0,0.0,0.0,0.0,0.0,0.0,0.0,0.0,0.0,0.0,0.0,0.0,
0.4864,3.831869435971201,3.831869435971201,3.6867332162597792,0.0,0.0,0.0,3.783490696067394,0.0,0.0,0.0,0.0,0.0,0.0,0.0,0.0,0.0,0.0,0.0,0.0,0.0,0.0,
0.5003,3.8327340928951994,3.8327340928951994,3.687577750177008,0.0,0.0,0.0,3.784348645322469,0.0,0.0,0.0,0.0,0.0,0.0,0.0,0.0,0.0,0.0,0.0,0.0,0.0,0.0,
0.5142,3.83362414767931,3.83362414767931,3.6884472166337217,0.0,0.0,0.0,3.7852318373307803,0.0,0.0,0.0,0.0,0.0,0.0,0.0,0.0,0.0,0.0,0.0,0.0,0.0,0.0,
0.5281,3.834539689532897,3.834539689532897,3.6893417139042657,0.0,0.0,0.0,3.7861403643233533,0.0,0.0,0.0,0.0,0.0,0.0,0.0,0.0,0.0,0.0,0.0,0.0,0.0,0.0,
0.542,3.835480810510809,3.835480810510809,3.690261343441802,0.0,0.0,0.0,3.787074321487807,0.0,0.0,0.0,0.0,0.0,0.0,0.0,0.0,0.0,0.0,0.0,0.0,0.0,0.0,
0.5559,3.8364476055486323,3.8364476055486323,3.691206209921017,0.0,0.0,0.0,3.788033807006094,0.0,0.0,0.0,0.0,0.0,0.0,0.0,0.0,0.0,0.0,0.0,0.0,0.0,0.0,
0.5698,3.8374401724991567,3.8374401724991567,3.6921764212826087,0.0,0.0,0.0,3.7890189220936406,0.0,0.0,0.0,0.0,0.0,0.0,0.0,0.0,0.0,0.0,0.0,0.0,0.0,0.0,
0.5837,3.8384586121703865,3.8384586121703865,3.6931720887792454,0.0,0.0,0.0,3.790029771040006,0.0,0.0,0.0,0.0,0.0,0.0,0.0,0.0,0.0,0.0,0.0,0.0,0.0,0.0,
0.5976,3.839503028364698,3.839503028364698,3.694193327023569,0.0,0.0,0.0,3.7910664612509883,0.0,0.0,0.0,0.0,0.0,0.0,0.0,0.0,0.0,0.0,0.0,0.0,0.0,0.0,
0.6115,3.8405735279196764,3.8405735279196764,3.6952402540375813,0.0,0.0,0.0,3.7921291032923112,0.0,0.0,0.0,0.0,0.0,0.0,0.0,0.0,0.0,0.0,0.0,0.0,0.0,0.0,
0.6254,3.841670220750252,3.841670220750252,3.696312991304064,0.0,0.0,0.0,3.793217810934856,0.0,0.0,0.0,0.0,0.0,0.0,0.0,0.0,0.0,0.0,0.0,0.0,0.0,0.0,
0.6393,3.842793219892493,3.842793219892493,3.697411663819931,0.0,0.0,0.0,3.7943327012016392,0.0,0.0,0.0,0.0,0.0,0.0,0.0,0.0,0.0,0.0,0.0,0.0,0.0,0.0,
0.6532,3.8439426415488414,3.8439426415488414,3.6985364001513537,0.0,0.0,0.0,3.7954738944163453,0.0,0.0,0.0,0.0,0.0,0.0,0.0,0.0,0.0,0.0,0.0,0.0,0.0,0.0,
0.6671,3.845118605135039,3.845118605135039,3.6996873324908424,0.0,0.0,0.0,3.79664151425364,0.0,0.0,0.0,0.0,0.0,0.0,0.0,0.0,0.0,0.0,0.0,0.0,0.0,0.0,
0.681,3.8463212333287142,3.8463212333287142,3.7008645967166363,0.0,0.0,0.0,3.797835687791355,0.0,0.0,0.0,0.0,0.0,0.0,0.0,0.0,0.0,0.0,0.0,0.0,0.0,0.0,
0.6949,3.8475506521196525,3.8475506521196525,3.702068332453868,0.0,0.0,0.0,3.7990565455643908,0.0,0.0,0.0,0.0,0.0,0.0,0.0,0.0,0.0,0.0,0.0,0.0,0.0,0.0,
0.7088,3.8488069908618012,3.8488069908618012,3.7032986831381307,0.0,0.0,0.0,3.800304221620578,0.0,0.0,0.0,0.0,0.0,0.0,0.0,0.0,0.0,0.0,0.0,0.0,0.0,0.0,
0.7227,3.8500903823272625,3.8500903823272625,3.7045557960812383,0.0,0.0,0.0,3.801578853578588,0.0,0.0,0.0,0.0,0.0,0.0,0.0,0.0,0.0,0.0,0.0,0.0,0.0,0.0,
0.7366,3.851400962761865,3.851400962761865,3.705839822539292,0.0,0.0,0.0,3.802880582687674,0.0,0.0,0.0,0.0,0.0,0.0,0.0,0.0,0.0,0.0,0.0,0.0,0.0,0.0,
0.7505,3.852738871943011,3.852738871943011,3.7071509177830895,0.0,0.0,0.0,3.804209553889704,0.0,0.0,0.0,0.0,0.0,0.0,0.0,0.0,0.0,0.0,0.0,0.0,0.0,0.0,
0.7644,3.854104253239394,3.854104253239394,3.708489241171151,0.0,0.0,0.0,3.8055659158833133,0.0,0.0,0.0,0.0,0.0,0.0,0.0,0.0,0.0,0.0,0.0,0.0,0.0,0.0,
0.7783,3.855497253672618,3.855497253672618,3.709854956225144,0.0,0.0,0.0,3.806949821190127,0.0,0.0,0.0,0.0,0.0,0.0,0.0,0.0,0.0,0.0,0.0,0.0,0.0,0.0,
0.7922,3.856918023981364,3.856918023981364,3.7112482307081516,0.0,0.0,0.0,3.8083614262236267,0.0,0.0,0.0,0.0,0.0,0.0,0.0,0.0,0.0,0.0,0.0,0.0,0.0,0.0,
0.8061,3.85836671868741,3.85836671868741,3.7126692367054432,0.0,0.0,0.0,3.8098008913600876,0.0,0.0,0.0,0.0,0.0,0.0,0.0,0.0,0.0,0.0,0.0,0.0,0.0,0.0,
0.82,3.859843496164095,3.859843496164095,3.714118150708328,0.0,0.0,0.0,3.8112683810121726,0.0,0.0,0.0,0.0,0.0,0.0,0.0,0.0,0.0,0.0,0.0,0.0,0.0,0.0,
0.8339,3.861348518707244,3.861348518707244,3.71559515370072,0.0,0.0,0.0,3.8127640637050693,0.0,0.0,0.0,0.0,0.0,0.0,0.0,0.0,0.0,0.0,0.0,0.0,0.0,0.0,
0.8478,3.862881952608454,3.862881952608454,3.7171004312489986,0.0,0.0,0.0,3.814288112155302,0.0,0.0,0.0,0.0,0.0,0.0,0.0,0.0,0.0,0.0,0.0,0.0,0.0,0.0,
0.8617,3.8644439682309617,3.8644439682309617,3.7186341735947335,0.0,0.0,0.0,3.815840703352219,0.0,0.0,0.0,0.0,0.0,0.0,0.0,0.0,0.0,0.0,0.0,0.0,0.0,0.0,
0.8756,3.866034740088295,3.866034740088295,3.720196575751033,0.0,0.0,0.0,3.817422018642541,0.0,0.0,0.0,0.0,0.0,0.0,0.0,0.0,0.0,0.0,0.0,0.0,0.0,0.0,
0.8895,3.8676544469254854,3.8676544469254854,3.721787837601945,0.0,0.0,0.0,3.8190322438176385,0.0,0.0,0.0,0.0,0.0,0.0,0.0,0.0,0.0,0.0,0.0,0.0,0.0,0.0,
0.9034,3.8693032718032376,3.8693032718032376,3.723408164005648,0.0,0.0,0.0,3.820671569204041,0.0,0.0,0.0,0.0,0.0,0.0,0.0,0.0,0.0,0.0,0.0,0.0,0.0,0.0,
0.9173,3.870981402185212,3.870981402185212,3.7250577649010994,0.0,0.0,0.0,3.822340189757174,0.0,0.0,0.0,0.0,0.0,0.0,0.0,0.0,0.0,0.0,0.0,0.0,0.0,0.0,
0.9312,3.872689030028113,3.872689030028113,3.7267368554186566,0.0,0.0,0.0,3.8240383051582945,0.0,0.0,0.0,0.0,0.0,0.0,0.0,0.0,0.0,0.0,0.0,0.0,0.0,0.0,
0.9451,3.874426351875304,3.874426351875304,3.7284456559945864,0.0,0.0,0.0,3.8257661199150648,0.0,0.0,0.0,0.0,0.0,0.0,0.0,0.0,0.0,0.0,0.0,0.0,0.0,0.0,
0.959,3.8761935689535463,3.8761935689535463,3.730184392489612,0.0,0.0,0.0,3.8275238434655683,0.0,0.0,0.0,0.0,0.0,0.0,0.0,0.0,0.0,0.0,0.0,0.0,0.0,0.0,
0.9729,3.8779908872732776,3.8779908872732776,3.731953296311824,0.0,0.0,0.0,3.829311690286126,0.0,0.0,0.0,0.0,0.0,0.0,0.0,0.0,0.0,0.0,0.0,0.0,0.0,0.0,
0.9868,3.8798185177326796,3.8798185177326796,3.7337526045440277,0.0,0.0,0.0,3.831129880003129,0.0,0.0,0.0,0.0,0.0,0.0,0.0,0.0,0.0,0.0,0.0,0.0,0.0,0.0,
1.0007,3.8816766762252226,3.8816766762252226,3.735582560075643,0.0,0.0,0.0,3.832978637508696,0.0,0.0,0.0,0.0,0.0,0.0,0.0,0.0,0.0,0.0,0.0,0.0,0.0,0.0,
1.0146,3.8835655837514316,3.8835655837514316,3.7374434117395356,0.0,0.0,0.0,3.8348581930807994,0.0,0.0,0.0,0.0,0.0,0.0,0.0,0.0,0.0,0.0,0.0,0.0,0.0,0.0,
1.0285,3.885485466534637,3.885485466534637,3.7393354144537185,0.0,0.0,0.0,3.8367687825076637,0.0,0.0,0.0,0.0,0.0,0.0,0.0,0.0,0.0,0.0,0.0,0.0,0.0,0.0,
1.0424,3.887436556141005,3.887436556141005,3.741258829368471,0.0,0.0,0.0,3.838710647216827,0.0,0.0,0.0,0.0,0.0,0.0,0.0,0.0,0.0,0.0,0.0,0.0,0.0,0.0,
1.0563,3.8894190896040697,3.8894190896040697,3.7432139240186797,0.0,0.0,0.0,3.8406840344089397,0.0,0.0,0.0,0.0,0.0,0.0,0.0,0.0,0.0,0.0,0.0,0.0,0.0,0.0,
1.0702,3.891433309554009,3.891433309554009,3.7452009724821487,0.0,0.0,0.0,3.8426891971967216,0.0,0.0,0.0,0.0,0.0,0.0,0.0,0.0,0.0,0.0,0.0,0.0,0.0,0.0,
1.0841,3.8934794643516977,3.8934794643516977,3.7472202555435508,0.0,0.0,0.0,3.844726394748982,0.0,0.0,0.0,0.0,0.0,0.0,0.0,0.0,0.0,0.0,0.0,0.0,0.0,0.0,
1.098,3.8955578082279385,3.8955578082279385,3.7492720608647723,0.0,0.0,0.0,3.846795892440216,0.0,0.0,0.0,0.0,0.0,0.0,0.0,0.0,0.0,0.0,0.0,0.0,0.0,0.0,
1.1119,3.897668601428091,3.897668601428091,3.751356683161717,0.0,0.0,0.0,3.848897962005966,0.0,0.0,0.0,0.0,0.0,0.0,0.0,0.0,0.0,0.0,0.0,0.0,0.0,0.0,
1.1258,3.899812110362192,3.899812110362192,3.753474424387793,0.0,0.0,0.0,3.851032881704059,0.0,0.0,0.0,0.0,0.0,0.0,0.0,0.0,0.0,0.0,0.0,0.0,0.0,0.0,
1.1397,3.901988607761011,3.901988607761011,3.75562559392445,0.0,0.0,0.0,3.8532009364821573,0.0,0.0,0.0,0.0,0.0,0.0,0.0,0.0,0.0,0.0,0.0,0.0,0.0,0.0,
1.1536,3.90419837283837,3.90419837283837,3.7578105087793787,0.0,0.0,0.0,3.8554024181520394,0.0,0.0,0.0,0.0,0.0,0.0,0.0,0.0,0.0,0.0,0.0,0.0,0.0,0.0,
1.1675,3.906441691459658,3.906441691459658,3.760029493792063,0.0,0.0,0.0,3.85763762557046,0.0,0.0,0.0,0.0,0.0,0.0,0.0,0.0,0.0,0.0,0.0,0.0,0.0,0.0,
1.1814,3.9087188563174786,3.9087188563174786,3.76228288184764,0.0,0.0,0.0,3.8599068648275328,0.0,0.0,0.0,0.0,0.0,0.0,0.0,0.0,0.0,0.0,0.0,0.0,0.0,0.0,
1.1953,3.911030167114,3.911030167114,3.764571014099437,0.0,0.0,0.0,3.862210449442479,0.0,0.0,0.0,0.0,0.0,0.0,0.0,0.0,0.0,0.0,0.0,0.0,0.0,0.0,
1.2092,3.913375930751219,3.913375930751219,3.7668942402000423,0.0,0.0,0.0,3.8645487005674934,0.0,0.0,0.0,0.0,0.0,0.0,0.0,0.0,0.0,0.0,0.0,0.0,0.0,0.0,
1.223,3.915739210487214,3.915739210487214,3.769235822158379,0.0,0.0,0.0,3.8669047477109353,0.0,0.0,0.0,0.0,0.0,0.0,0.0,0.0,0.0,0.0,0.0,0.0,0.0,0.0,
1.2369,3.9181545767016663,3.9181545767016663,3.771630061095556,0.0,0.0,0.0,3.8693130714996293,0.0,0.0,0.0,0.0,0.0,0.0,0.0,0.0,0.0,0.0,0.0,0.0,0.0,0.0,
1.2508,3.92060535928207,3.92060535928207,3.774060493547562,0.0,0.0,0.0,3.8717570707039006,0.0,0.0,0.0,0.0,0.0,0.0,0.0,0.0,0.0,0.0,0.0,0.0,0.0,0.0,
1.2647,3.9230918959353067,3.9230918959353067,3.7765275056012446,0.0,0.0,0.0,3.874237099157286,0.0,0.0,0.0,0.0,0.0,0.0,0.0,0.0,0.0,0.0,0.0,0.0,0.0,0.0,
1.2786,3.925614532643369,3.925614532643369,3.7790314931468174,0.0,0.0,0.0,3.8767535194778517,0.0,0.0,0.0,0.0,0.0,0.0,0.0,0.0,0.0,0.0,0.0,0.0,0.0,0.0,
1.2925,3.9281736239077083,3.9281736239077083,3.7815728621725118,0.0,0.0,0.0,3.879306703329309,0.0,0.0,0.0,0.0,0.0,0.0,0.0,0.0,0.0,0.0,0.0,0.0,0.0,0.0,
1.3064,3.9307695330037724,3.9307695330037724,3.784152029072015,0.0,0.0,0.0,3.8818970316931867,0.0,0.0,0.0,0.0,0.0,0.0,0.0,0.0,0.0,0.0,0.0,0.0,0.0,0.0,
1.3203,3.933402632247561,3.933402632247561,3.7867694209648537,0.0,0.0,0.0,3.884524895153325,0.0,0.0,0.0,0.0,0.0,0.0,0.0,0.0,0.0,0.0,0.0,0.0,0.0,0.0,
1.3342,3.9360733032740978,3.9360733032740978,3.7894254760310373,0.0,0.0,0.0,3.887190694193078,0.0,0.0,0.0,0.0,0.0,0.0,0.0,0.0,0.0,0.0,0.0,0.0,0.0,0.0,
1.3481,3.9387819373285837,3.9387819373285837,3.7921206438603132,0.0,0.0,0.0,3.889894839505827,0.0,0.0,0.0,0.0,0.0,0.0,0.0,0.0,0.0,0.0,0.0,0.0,0.0,0.0,
1.362,3.9415289355715593,3.9415289355715593,3.7948553858169416,0.0,0.0,0.0,3.89263775232002,0.0,0.0,0.0,0.0,0.0,0.0,0.0,0.0,0.0,0.0,0.0,0.0,0.0,0.0,
1.3759,3.9443147093980766,3.9443147093980766,3.797630175420907,0.0,0.0,0.0,3.89541986473902,0.0,0.0,0.0,0.0,0.0,0.0,0.0,0.0,0.0,0.0,0.0,0.0,0.0,0.0,
1.3898,3.947139680772638,3.947139680772638,3.8004454987464484,0.0,0.0,0.0,3.8982416200972416,0.0,0.0,0.0,0.0,0.0,0.0,0.0,0.0,0.0,0.0,0.0,0.0,0.0,0.0,
1.4037,3.9500042825802195,3.9500042825802195,3.8033018548390785,0.0,0.0,0.0,3.9011034733331726,0.0,0.0,0.0,0.0,0.0,0.0,0.0,0.0,0.0,0.0,0.0,0.0,0.0,0.0,
1.4176,3.952908958994788,3.952908958994788,3.8061997561518695,0.0,0.0,0.0,3.904005891380482,0.0,0.0,0.0,0.0,0.0,0.0,0.0,0.0,0.0,0.0,0.0,0.0,0.0,0.0,
1.4315,3.955854165866366,3.955854165866366,3.809139729002361,0.0,0.0,0.0,3.9069493535783644,0.0,0.0,0.0,0.0,0.0,0.0,0.0,0.0,0.0,0.0,0.0,0.0,0.0,0.0,
1.4454,3.9588403711279683,3.9588403711279683,3.8121223140514595,0.0,0.0,0.0,3.9099343521024656,0.0,0.0,0.0,0.0,0.0,0.0,0.0,0.0,0.0,0.0,0.0,0.0,0.0,0.0,
1.4593,3.961868055223443,3.961868055223443,3.8151480668052673,0.0,0.0,0.0,3.9129613924173845,0.0,0.0,0.0,0.0,0.0,0.0,0.0,0.0,0.0,0.0,0.0,0.0,0.0,0.0,
1.4732,3.964937711558218,3.964937711558218,3.8182175581418325,0.0,0.0,0.0,3.916030993752756,0.0,0.0,0.0,0.0,0.0,0.0,0.0,0.0,0.0,0.0,0.0,0.0,0.0,0.0,
1.4871,3.9680498469742047,3.9680498469742047,3.8213313748637585,0.0,0.0,0.0,3.9191436896040557,0.0,0.0,0.0,0.0,0.0,0.0,0.0,0.0,0.0,0.0,0.0,0.0,0.0,0.0,
1.501,3.9712049822505513,3.9712049822505513,3.824490120279091,0.0,0.0,0.0,3.9223000282600644,0.0,0.0,0.0,0.0,0.0,0.0,0.0,0.0,0.0,0.0,0.0,0.0,0.0,0.0,
1.5149,3.9744036526324176,3.9744036526324176,3.8276944148115652,0.0,0.0,0.0,3.9255005733588,0.0,0.0,0.0,0.0,0.0,0.0,0.0,0.0,0.0,0.0,0.0,0.0,0.0,0.0,
1.5288,3.977646408389948,3.977646408389948,3.830944896642864,0.0,0.0,0.0,3.9287459044742534,0.0,0.0,0.0,0.0,0.0,0.0,0.0,0.0,0.0,0.0,0.0,0.0,0.0,0.0,
1.5427,3.9809338154091742,3.9809338154091742,3.834242222388524,0.0,0.0,0.0,3.932036617735624,0.0,0.0,0.0,0.0,0.0,0.0,0.0,0.0,0.0,0.0,0.0,0.0,0.0,0.0,
1.5566,3.9842664558181777,3.9842664558181777,3.8375870678103152,0.0,0.0,0.0,3.9353733264822233,0.0,0.0,0.0,0.0,0.0,0.0,0.0,0.0,0.0,0.0,0.0,0.0,0.0,0.0,
1.5705,3.9876449286507833,3.9876449286507833,3.8409801285672773,0.0,0.0,0.0,3.9387566619562815,0.0,0.0,0.0,0.0,0.0,0.0,0.0,0.0,0.0,0.0,0.0,0.0,0.0,0.0,
1.5844,3.991069850551117,3.991069850551117,3.8444221210084764,0.0,0.0,0.0,3.9421872740369035,0.0,0.0,0.0,0.0,0.0,0.0,0.0,0.0,0.0,0.0,0.0,0.0,0.0,0.0,
1.5983,3.994541856522329,3.994541856522329,3.847913783010403,0.0,0.0,0.0,3.9456658320183533,0.0,0.0,0.0,0.0,0.0,0.0,0.0,0.0,0.0,0.0,0.0,0.0,0.0,0.0,
1.6122,3.998061600723509,3.998061600723509,3.8514558748626424,0.0,0.0,0.0,3.9491930254365535,0.0,0.0,0.0,0.0,0.0,0.0,0.0,0.0,0.0,0.0,0.0,0.0,0.0,0.0,
1.6261,4.001629757318687,4.001629757318687,3.855049180205073,0.0,0.0,0.0,3.9527695649474826,0.0,0.0,0.0,0.0,0.0,0.0,0.0,0.0,0.0,0.0,0.0,0.0,0.0,0.0,
1.64,4.005247021383223,4.005247021383223,3.858694507021334,0.0,0.0,0.0,3.956396183262593,0.0,0.0,0.0,0.0,0.0,0.0,0.0,0.0,0.0,0.0,0.0,0.0,0.0,0.0,
1.6539,4.008914109872176,4.008914109872176,3.8623926886925495,0.0,0.0,0.0,3.960073636145634,0.0,0.0,0.0,0.0,0.0,0.0,0.0,0.0,0.0,0.0,0.0,0.0,0.0,0.0,
1.6678,4.012631762657131,4.012631762657131,3.8661445851165004,0.0,0.0,0.0,3.963802703476921,0.0,0.0,0.0,0.0,0.0,0.0,0.0,0.0,0.0,0.0,0.0,0.0,0.0,0.0,
1.6817,4.016400743637968,4.016400743637968,3.869951083898068,0.0,0.0,0.0,3.9675841903913347,0.0,0.0,0.0,0.0,0.0,0.0,0.0,0.0,0.0,0.0,0.0,0.0,0.0,0.0,
1.6956,4.020221841937114,4.020221841937114,3.8738131016168014,0.0,0.0,0.0,3.9714189284970103,0.0,0.0,0.0,0.0,0.0,0.0,0.0,0.0,0.0,0.0,0.0,0.0,0.0,0.0,
1.7095,4.024095873184653,4.024095873184653,3.8777315851788976,0.0,0.0,0.0,3.9753077771827345,0.0,0.0,0.0,0.0,0.0,0.0,0.0,0.0,0.0,0.0,0.0,0.0,0.0,0.0,
1.7234,4.028023680904276,4.028023680904276,3.8817075132609964,0.0,0.0,0.0,3.979251625023183,0.0,0.0,0.0,0.0,0.0,0.0,0.0,0.0,0.0,0.0,0.0,0.0,0.0,0.0,
1.7373,4.032006138010602,4.032006138010602,3.8857418978552474,0.0,0.0,0.0,3.9832513912921503,0.0,0.0,0.0,0.0,0.0,0.0,0.0,0.0,0.0,0.0,0.0,0.0,0.0,0.0,
1.7512,4.0360441484310545,4.0360441484310545,3.8898357859246975,0.0,0.0,0.0,3.9873080275956023,0.0,0.0,0.0,0.0,0.0,0.0,0.0,0.0,0.0,0.0,0.0,0.0,0.0,0.0,
1.7651,4.040138648865833,4.040138648865833,3.8939902611811115,0.0,0.0,0.0,3.991422519637592,0.0,0.0,0.0,0.0,0.0,0.0,0.0,0.0,0.0,0.0,0.0,0.0,0.0,0.0,
1.779,4.044290610703468,4.044290610703468,3.8982064459973342,0.0,0.0,0.0,3.995595889134757,0.0,0.0,0.0,0.0,0.0,0.0,0.0,0.0,0.0,0.0,0.0,0.0,0.0,0.0,
1.7929,4.048501042110553,4.048501042110553,3.902485503469404,0.0,0.0,0.0,3.9998291958968366,0.0,0.0,0.0,0.0,0.0,0.0,0.0,0.0,0.0,0.0,0.0,0.0,0.0,0.0,
1.8068,4.052770990317895,4.052770990317895,3.9068286396448078,0.0,0.0,0.0,4.004123540093532,0.0,0.0,0.0,0.0,0.0,0.0,0.0,0.0,0.0,0.0,0.0,0.0,0.0,0.0,
1.8207,4.0571015441293605,4.0571015441293605,3.9112371059367743,0.0,0.0,0.0,4.008480064731832,0.0,0.0,0.0,0.0,0.0,0.0,0.0,0.0,0.0,0.0,0.0,0.0,0.0,0.0,
