energies(eV),real_xx,real_yy,real_zz,real_xy,real_yz,real_xz,real_ave,imag_xx,imag_yy,imag_zz,imag_xy,imag_yz,imag_xz,imag_ave,absorption_xx,absorption_yy,absorption_zz,absorption_xy,absorption_yz,absorption_xz,absorption_ave,band_gap
0.0,2.8537714720245577,2.8189613480567433,2.781855776810489,0.0,0.0,0.0,2.8181961989639297,0.0,0.0,0.0,0.0,0.0,0.0,0.0,0.0,0.0,0.0,0.0,0.0,0.0,0.0,6.0745000000000005
0.0182,2.853775840125433,2.818965588650939,2.7818598687002005,0.0,0.0,0.0,2.8182004324921905,0.0,0.0,0.0,0.0,0.0,0.0,0.0,0.0,0.0,0.0,0.0,0.0,0.0,0.0,
0.0365,2.853789040738226,2.8189784039296555,2.7818722345830293,0.0,0.0,0.0,2.81821322641697,0.0,0.0,0.0,0.0,0.0,0.0,0.0,0.0,0.0,0.0,0.0,0.0,0.0,0.0,
0.0547,2.853810930118833,2.818999654336743,2.781892739785281,0.0,0.0,0.0,2.818234441413619,0.0,0.0,0.0,0.0,0.0,0.0,0.0,0.0,0.0,0.0,0.0,0.0,0.0,0.0,
0.073,2.8538417496915267,2.8190295742354667,2.781921610432576,0.0,0.0,0.0,2.81826431145319,0.0,0.0,0.0,0.0,0.0,0.0,0.0,0.0,0.0,0.0,0.0,0.0,0.0,0.0,
0.0912,2.8538811638560224,2.819067837803449,2.781958532102176,0.0,0.0,0.0,2.818302511253883,0.0,0.0,0.0,0.0,0.0,0.0,0.0,0.0,0.0,0.0,0.0,0.0,0.0,0.0,
0.1094,2.853929318588438,2.819114586731484,2.782003641482062,0.0,0.0,0.0,2.818349182267328,0.0,0.0,0.0,0.0,0.0,0.0,0.0,0.0,0.0,0.0,0.0,0.0,0.0,0.0,
0.1277,2.853986552581924,2.819170149794967,2.7820572557746335,0.0,0.0,0.0,2.818404652717175,0.0,0.0,0.0,0.0,0.0,0.0,0.0,0.0,0.0,0.0,0.0,0.0,0.0,0.0,
0.1459,2.854052242605339,2.8192339219228235,2.7821187910812712,0.0,0.0,0.0,2.8184683185364783,0.0,0.0,0.0,0.0,0.0,0.0,0.0,0.0,0.0,0.0,0.0,0.0,0.0,0.0,
0.1641,2.854126680009321,2.819306185919766,2.782188520231383,0.0,0.0,0.0,2.8185404620534897,0.0,0.0,0.0,0.0,0.0,0.0,0.0,0.0,0.0,0.0,0.0,0.0,0.0,0.0,
0.1824,2.8542103490122135,2.8193874118190463,2.7822668967044795,0.0,0.0,0.0,2.8186215525119134,0.0,0.0,0.0,0.0,0.0,0.0,0.0,0.0,0.0,0.0,0.0,0.0,0.0,0.0,
0.2006,2.854302338529595,2.819476715088329,2.7823530669256495,0.0,0.0,0.0,2.818710706847858,0.0,0.0,0.0,0.0,0.0,0.0,0.0,0.0,0.0,0.0,0.0,0.0,0.0,0.0,
0.2189,2.85440366314557,2.8195750806270476,2.7824479811604306,0.0,0.0,0.0,2.8188089083110164,0.0,0.0,0.0,0.0,0.0,0.0,0.0,0.0,0.0,0.0,0.0,0.0,0.0,0.0,
0.2371,2.8545132195233833,2.8196814372580477,2.7825506057279874,0.0,0.0,0.0,2.8189150875031395,0.0,0.0,0.0,0.0,0.0,0.0,0.0,0.0,0.0,0.0,0.0,0.0,0.0,0.0,
0.2553,2.8546315416566648,2.819796303313531,2.782661440680072,0.0,0.0,0.0,2.8190297618834226,0.0,0.0,0.0,0.0,0.0,0.0,0.0,0.0,0.0,0.0,0.0,0.0,0.0,0.0,
0.2736,2.8547593568134393,2.8199203847427725,2.7827811670845133,0.0,0.0,0.0,2.8191536362135747,0.0,0.0,0.0,0.0,0.0,0.0,0.0,0.0,0.0,0.0,0.0,0.0,0.0,0.0,
0.2918,2.8548952732034643,2.820052330333805,2.7829084810436084,0.0,0.0,0.0,2.8192853615269597,0.0,0.0,0.0,0.0,0.0,0.0,0.0,0.0,0.0,0.0,0.0,0.0,0.0,0.0,
0.3101,2.8550407899052677,2.8201935952847488,2.7830447865548864,0.0,0.0,0.0,2.819426390581634,0.0,0.0,0.0,0.0,0.0,0.0,0.0,0.0,0.0,0.0,0.0,0.0,0.0,0.0,
0.3283,2.8551943223798855,2.820342641264501,2.783188599167673,0.0,0.0,0.0,2.81957518760402,0.0,0.0,0.0,0.0,0.0,0.0,0.0,0.0,0.0,0.0,0.0,0.0,0.0,0.0,
0.3465,2.8553566478076045,2.820500222651858,2.7833406466448105,0.0,0.0,0.0,2.819732505701424,0.0,0.0,0.0,0.0,0.0,0.0,0.0,0.0,0.0,0.0,0.0,0.0,0.0,0.0,
0.3648,2.8555287372450184,2.820667282017701,2.783501838306748,0.0,0.0,0.0,2.8198992858564886,0.0,0.0,0.0,0.0,0.0,0.0,0.0,0.0,0.0,0.0,0.0,0.0,0.0,0.0,
0.383,2.855708716811482,2.8208420001472927,2.783670418685996,0.0,0.0,0.0,2.8200737118815904,0.0,0.0,0.0,0.0,0.0,0.0,0.0,0.0,0.0,0.0,0.0,0.0,0.0,0.0,
0.4013,2.855898571594558,2.8210263039841204,2.7838482468745593,0.0,0.0,0.0,2.8202577074844126,0.0,0.0,0.0,0.0,0.0,0.0,0.0,0.0,0.0,0.0,0.0,0.0,0.0,0.0,
0.4195,2.8560962342753777,2.8212181865354395,2.7840333862310223,0.0,0.0,0.0,2.8204492690139467,0.0,0.0,0.0,0.0,0.0,0.0,0.0,0.0,0.0,0.0,0.0,0.0,0.0,0.0,
0.4377,2.856302726013131,2.8214186389831672,2.7842267929414515,0.0,0.0,0.0,2.82064938597925,0.0,0.0,0.0,0.0,0.0,0.0,0.0,0.0,0.0,0.0,0.0,0.0,0.0,0.0,
0.456,2.8565192626424167,2.8216288414645003,2.784429605468398,0.0,0.0,0.0,2.8208592365251053,0.0,0.0,0.0,0.0,0.0,0.0,0.0,0.0,0.0,0.0,0.0,0.0,0.0,0.0,
0.4742,2.8567434863235306,2.821846504976421,2.7846396150918813,0.0,0.0,0.0,2.8210765354639444,0.0,0.0,0.0,0.0,0.0,0.0,0.0,0.0,0.0,0.0,0.0,0.0,0.0,0.0,
0.4924,2.8569765650338916,2.822072763193228,2.78485791543713,0.0,0.0,0.0,2.8213024145547494,0.0,0.0,0.0,0.0,0.0,0.0,0.0,0.0,0.0,0.0,0.0,0.0,0.0,0.0,
0.5107,2.857219862001128,2.822308939293484,2.7850857829229363,0.0,0.0,0.0,2.821538194739183,0.0,0.0,0.0,0.0,0.0,0.0,0.0,0.0,0.0,0.0,0.0,0.0,0.0,0.0,
0.5289,2.8574707280165663,2.822552461453563,2.7853207359871313,0.0,0.0,0.0,2.8217813084857535,0.0,0.0,0.0,0.0,0.0,0.0,0.0,0.0,0.0,0.0,0.0,0.0,0.0,0.0,
0.5472,2.8577319300657975,2.8228060154986063,2.785565365721141,0.0,0.0,0.0,2.8220344370951818,0.0,0.0,0.0,0.0,0.0,0.0,0.0,0.0,0.0,0.0,0.0,0.0,0.0,0.0,
0.5654,2.858000623992008,2.82306684038432,2.7858170080295728,0.0,0.0,0.0,2.8222948241353003,0.0,0.0,0.0,0.0,0.0,0.0,0.0,0.0,0.0,0.0,0.0,0.0,0.0,0.0,
0.5836,2.8582782235424844,2.8233363082979617,2.786076986570352,0.0,0.0,0.0,2.8225638394702663,0.0,0.0,0.0,0.0,0.0,0.0,0.0,0.0,0.0,0.0,0.0,0.0,0.0,0.0,
0.6019,2.8585663388346454,2.823615982000539,2.7863468088019463,0.0,0.0,0.0,2.8228430432123766,0.0,0.0,0.0,0.0,0.0,0.0,0.0,0.0,0.0,0.0,0.0,0.0,0.0,0.0,
0.6201,2.858861832690479,2.8239028160486814,2.7866235362997553,0.0,0.0,0.0,2.823129395012972,0.0,0.0,0.0,0.0,0.0,0.0,0.0,0.0,0.0,0.0,0.0,0.0,0.0,0.0,
0.6384,2.8591679643802097,2.824199974005622,2.786910220892188,0.0,0.0,0.0,2.8234260530926734,0.0,0.0,0.0,0.0,0.0,0.0,0.0,0.0,0.0,0.0,0.0,0.0,0.0,0.0,
0.6566,2.8594814005749507,2.824504220058398,2.787203740538996,0.0,0.0,0.0,2.8237297870574487,0.0,0.0,0.0,0.0,0.0,0.0,0.0,0.0,0.0,0.0,0.0,0.0,0.0,0.0,
0.6748,2.8598038022442394,2.8248171662936006,2.787505650235453,0.0,0.0,0.0,2.8240422062577646,0.0,0.0,0.0,0.0,0.0,0.0,0.0,0.0,0.0,0.0,0.0,0.0,0.0,0.0,
0.6931,2.860137028052489,2.825140616636487,2.787817689968267,0.0,0.0,0.0,2.824365111552414,0.0,0.0,0.0,0.0,0.0,0.0,0.0,0.0,0.0,0.0,0.0,0.0,0.0,0.0,
0.7113,2.860477449695342,2.825471049008301,2.788136461609575,0.0,0.0,0.0,2.8246949867710724,0.0,0.0,0.0,0.0,0.0,0.0,0.0,0.0,0.0,0.0,0.0,0.0,0.0,0.0,
0.7295,2.8608268772267467,2.825810220151212,2.788463659629514,0.0,0.0,0.0,2.8250335856691575,0.0,0.0,0.0,0.0,0.0,0.0,0.0,0.0,0.0,0.0,0.0,0.0,0.0,0.0,
0.7478,2.8611873192900665,2.8261600795000676,2.788801164293508,0.0,0.0,0.0,2.825382854361214,0.0,0.0,0.0,0.0,0.0,0.0,0.0,0.0,0.0,0.0,0.0,0.0,0.0,0.0,
0.766,2.8615548512860225,2.826516817450126,2.789145300199199,0.0,0.0,0.0,2.8257389896451155,0.0,0.0,0.0,0.0,0.0,0.0,0.0,0.0,0.0,0.0,0.0,0.0,0.0,0.0,
0.7843,2.8619335271838646,2.8268843686680283,2.7894998626791905,0.0,0.0,0.0,2.8261059195103613,0.0,0.0,0.0,0.0,0.0,0.0,0.0,0.0,0.0,0.0,0.0,0.0,0.0,0.0,
0.8025,2.8623192238843282,2.8272587309359025,2.789860990602544,0.0,0.0,0.0,2.8264796484742583,0.0,0.0,0.0,0.0,0.0,0.0,0.0,0.0,0.0,0.0,0.0,0.0,0.0,0.0,
0.8207,2.8627140015329546,2.827641903633628,2.7902306123530654,0.0,0.0,0.0,2.8268621725065493,0.0,0.0,0.0,0.0,0.0,0.0,0.0,0.0,0.0,0.0,0.0,0.0,0.0,0.0,
0.839,2.863120120526275,2.8280360804198694,2.7906108436024875,0.0,0.0,0.0,2.827255681516211,0.0,0.0,0.0,0.0,0.0,0.0,0.0,0.0,0.0,0.0,0.0,0.0,0.0,0.0,
0.8572,2.86353315901964,2.828436969210632,2.7909975437419474,0.0,0.0,0.0,2.827655890657406,0.0,0.0,0.0,0.0,0.0,0.0,0.0,0.0,0.0,0.0,0.0,0.0,0.0,0.0,
0.8755,2.863957673034265,2.8288489917341115,2.7913949776150275,0.0,0.0,0.0,2.828067214127801,0.0,0.0,0.0,0.0,0.0,0.0,0.0,0.0,0.0,0.0,0.0,0.0,0.0,0.0,
0.8937,2.864389040484397,2.829267661630584,2.7917988173190365,0.0,0.0,0.0,2.828485173144672,0.0,0.0,0.0,0.0,0.0,0.0,0.0,0.0,0.0,0.0,0.0,0.0,0.0,0.0,
0.9119,2.86482957375111,2.8296952229632857,2.792211227075363,0.0,0.0,0.0,2.8289120079299193,0.0,0.0,0.0,0.0,0.0,0.0,0.0,0.0,0.0,0.0,0.0,0.0,0.0,0.0,
0.9302,2.8652817873452237,2.830134115867331,2.79263456008018,0.0,0.0,0.0,2.829350154430911,0.0,0.0,0.0,0.0,0.0,0.0,0.0,0.0,0.0,0.0,0.0,0.0,0.0,0.0,
0.9484,2.8657407576652556,2.8305795614718257,2.793064206462991,0.0,0.0,0.0,2.829794841866691,0.0,0.0,0.0,0.0,0.0,0.0,0.0,0.0,0.0,0.0,0.0,0.0,0.0,0.0,
0.9666,2.8662089495219885,2.831033951687452,2.7935024729218916,0.0,0.0,0.0,2.8302484580437777,0.0,0.0,0.0,0.0,0.0,0.0,0.0,0.0,0.0,0.0,0.0,0.0,0.0,0.0,
0.9849,2.8666890310895194,2.8314998756737597,2.7939518562368053,0.0,0.0,0.0,2.830713587666695,0.0,0.0,0.0,0.0,0.0,0.0,0.0,0.0,0.0,0.0,0.0,0.0,0.0,0.0,
1.0031,2.8671757754319738,2.8319722603126487,2.7944074629356157,0.0,0.0,0.0,2.8311851662267458,0.0,0.0,0.0,0.0,0.0,0.0,0.0,0.0,0.0,0.0,0.0,0.0,0.0,0.0,
1.0214,2.8676745518108477,2.832456316129932,2.794874318011334,0.0,0.0,0.0,2.831668395317371,0.0,0.0,0.0,0.0,0.0,0.0,0.0,0.0,0.0,0.0,0.0,0.0,0.0,0.0,
1.0396,2.8681799298113644,2.8329467726410873,2.795347337789307,0.0,0.0,0.0,2.83215801341392,0.0,0.0,0.0,0.0,0.0,0.0,0.0,0.0,0.0,0.0,0.0,0.0,0.0,0.0,
1.0578,2.8686946304904746,2.8334462702657275,2.795829068401628,0.0,0.0,0.0,2.832656656385943,0.0,0.0,0.0,0.0,0.0,0.0,0.0,0.0,0.0,0.0,0.0,0.0,0.0,0.0,
1.0761,2.8692215805077543,2.8339576488085596,2.7963222480709637,0.0,0.0,0.0,2.833167159129092,0.0,0.0,0.0,0.0,0.0,0.0,0.0,0.0,0.0,0.0,0.0,0.0,0.0,0.0,
1.0943,2.869755042813239,2.834475340387549,2.7968215065569493,0.0,0.0,0.0,2.8336839632525788,0.0,0.0,0.0,0.0,0.0,0.0,0.0,0.0,0.0,0.0,0.0,0.0,0.0,0.0,
1.1126,2.870300902191493,2.8350050554418216,2.797332350448734,0.0,0.0,0.0,2.8342127693606827,0.0,0.0,0.0,0.0,0.0,0.0,0.0,0.0,0.0,0.0,0.0,0.0,0.0,0.0,
1.1308,2.870853215797009,2.8355410265121304,2.7978492172237885,0.0,0.0,0.0,2.8347478198443095,0.0,0.0,0.0,0.0,0.0,0.0,0.0,0.0,0.0,0.0,0.0,0.0,0.0,0.0,
1.149,2.8714149638159383,2.8360861452760924,2.798374895031488,0.0,0.0,0.0,2.835292001374506,0.0,0.0,0.0,0.0,0.0,0.0,0.0,0.0,0.0,0.0,0.0,0.0,0.0,0.0,
1.1673,2.871989334511105,2.836643505155969,2.7989123663295317,0.0,0.0,0.0,2.835848401998869,0.0,0.0,0.0,0.0,0.0,0.0,0.0,0.0,0.0,0.0,0.0,0.0,0.0,0.0,
1.1855,2.872570074755849,2.837207037816241,2.799455778757928,0.0,0.0,0.0,2.836410963776673,0.0,0.0,0.0,0.0,0.0,0.0,0.0,0.0,0.0,0.0,0.0,0.0,0.0,0.0,
1.2038,2.8731635910862647,2.837782959548621,2.8000111260832043,0.0,0.0,0.0,2.836985892239363,0.0,0.0,0.0,0.0,0.0,0.0,0.0,0.0,0.0,0.0,0.0,0.0,0.0,0.0,
1.222,2.87376342202928,2.838365000006796,2.8005723613748383,0.0,0.0,0.0,2.8375669278036377,0.0,0.0,0.0,0.0,0.0,0.0,0.0,0.0,0.0,0.0,0.0,0.0,0.0,0.0,
1.2402,2.8743728100841492,2.8389563051614255,2.8011425176502334,0.0,0.0,0.0,2.8381572109652695,0.0,0.0,0.0,0.0,0.0,0.0,0.0,0.0,0.0,0.0,0.0,0.0,0.0,0.0,
1.2585,2.874995208543811,2.8395602253183494,2.801724824669011,0.0,0.0,0.0,2.838760086177057,0.0,0.0,0.0,0.0,0.0,0.0,0.0,0.0,0.0,0.0,0.0,0.0,0.0,0.0,
1.2767,2.875623841651101,2.840170185436599,2.802312942073409,0.0,0.0,0.0,2.83936898972037,0.0,0.0,0.0,0.0,0.0,0.0,0.0,0.0,0.0,0.0,0.0,0.0,0.0,0.0,
1.2949,2.876262110892177,2.8407894855856,2.802910051230266,0.0,0.0,0.0,2.8399872159026813,0.0,0.0,0.0,0.0,0.0,0.0,0.0,0.0,0.0,0.0,0.0,0.0,0.0,0.0,
1.3132,2.8769136302968503,2.841421631838028,2.8035195318152963,0.0,0.0,0.0,2.840618264650059,0.0,0.0,0.0,0.0,0.0,0.0,0.0,0.0,0.0,0.0,0.0,0.0,0.0,0.0,
1.3314,2.877571307246263,2.8420597420001212,2.804134747733313,0.0,0.0,0.0,2.8412552656598993,0.0,0.0,0.0,0.0,0.0,0.0,0.0,0.0,0.0,0.0,0.0,0.0,0.0,0.0,
1.3497,2.878242397453448,2.8427108554280744,2.8047624850998387,0.0,0.0,0.0,2.8419052459937872,0.0,0.0,0.0,0.0,0.0,0.0,0.0,0.0,0.0,0.0,0.0,0.0,0.0,0.0,
1.3679,2.8789195953642013,2.843367883541122,2.805395909136415,0.0,0.0,0.0,2.8425611293472457,0.0,0.0,0.0,0.0,0.0,0.0,0.0,0.0,0.0,0.0,0.0,0.0,0.0,0.0,
1.3861,2.879606570524329,2.8440343861774373,2.8060384512181384,0.0,0.0,0.0,2.8432264693066345,0.0,0.0,0.0,0.0,0.0,0.0,0.0,0.0,0.0,0.0,0.0,0.0,0.0,0.0,
1.4044,2.8803072081487846,2.8447141321565814,2.8066937438249173,0.0,0.0,0.0,2.843905028043428,0.0,0.0,0.0,0.0,0.0,0.0,0.0,0.0,0.0,0.0,0.0,0.0,0.0,0.0,
1.4226,2.8810138812192783,2.84539972135729,2.807354652318816,0.0,0.0,0.0,2.8445894182984617,0.0,0.0,0.0,0.0,0.0,0.0,0.0,0.0,0.0,0.0,0.0,0.0,0.0,0.0,
1.4409,2.881734386317727,2.84609871720735,2.8080284670995006,0.0,0.0,0.0,2.8452871902081927,0.0,0.0,0.0,0.0,0.0,0.0,0.0,0.0,0.0,0.0,0.0,0.0,0.0,0.0,
1.4591,2.8824608802892904,2.8468035101470917,2.8087078519798014,0.0,0.0,0.0,2.8459907474720616,0.0,0.0,0.0,0.0,0.0,0.0,0.0,0.0,0.0,0.0,0.0,0.0,0.0,0.0,
1.4773,2.8831973047595723,2.8475179236120347,2.8093964919347716,0.0,0.0,0.0,2.8467039067687927,0.0,0.0,0.0,0.0,0.0,0.0,0.0,0.0,0.0,0.0,0.0,0.0,0.0,0.0,
1.4956,2.8839478204177142,2.8482459932525055,2.8100982760783433,0.0,0.0,0.0,2.8474306965828546,0.0,0.0,0.0,0.0,0.0,0.0,0.0,0.0,0.0,0.0,0.0,0.0,0.0,0.0,
1.5138,2.88470425764797,2.848979793206136,2.8108055638921874,0.0,0.0,0.0,2.8481632049154313,0.0,0.0,0.0,0.0,0.0,0.0,0.0,0.0,0.0,0.0,0.0,0.0,0.0,0.0,
1.532,2.8854707233360397,2.8497233069816232,2.811522194305471,0.0,0.0,0.0,2.8489054082077114,0.0,0.0,0.0,0.0,0.0,0.0,0.0,0.0,0.0,0.0,0.0,0.0,0.0,0.0,
1.5503,2.8862515456011577,2.850480732368867,2.812252212324168,0.0,0.0,0.0,2.8496614967647305,0.0,0.0,0.0,0.0,0.0,0.0,0.0,0.0,0.0,0.0,0.0,0.0,0.0,0.0,
1.5685,2.887038225173222,2.851243824160239,2.812987670243225,0.0,0.0,0.0,2.850423239858895,0.0,0.0,0.0,0.0,0.0,0.0,0.0,0.0,0.0,0.0,0.0,0.0,0.0,0.0,
1.5868,2.8878394419767837,2.8520210013922043,2.8137366813483604,0.0,0.0,0.0,2.8511990415724497,0.0,0.0,0.0,0.0,0.0,0.0,0.0,0.0,0.0,0.0,0.0,0.0,0.0,0.0,
1.605,2.8886464749198035,2.8528038040020807,2.8144910913012744,0.0,0.0,0.0,2.851980456741053,0.0,0.0,0.0,0.0,0.0,0.0,0.0,0.0,0.0,0.0,0.0,0.0,0.0,0.0,
1.6232,2.889463710125243,2.853596485909083,2.8152549990179923,0.0,0.0,0.0,2.8527717316841064,0.0,0.0,0.0,0.0,0.0,0.0,0.0,0.0,0.0,0.0,0.0,0.0,0.0,0.0,
1.6415,2.8902957588002054,2.854403518978947,2.8160327129275338,0.0,0.0,0.0,2.8535773302355616,0.0,0.0,0.0,0.0,0.0,0.0,0.0,0.0,0.0,0.0,0.0,0.0,0.0,0.0,
1.6597,2.8911335645334413,2.8552161184084417,2.8168157664431175,0.0,0.0,0.0,2.8543884831283335,0.0,0.0,0.0,0.0,0.0,0.0,0.0,0.0,0.0,0.0,0.0,0.0,0.0,0.0,
1.678,2.8919863718321936,2.8560432498821706,2.817612798303565,0.0,0.0,0.0,2.8552141400059767,0.0,0.0,0.0,0.0,0.0,0.0,0.0,0.0,0.0,0.0,0.0,0.0,0.0,0.0,
1.6962,2.8928448985372937,2.856875910003425,2.818415131782716,0.0,0.0,0.0,2.856045313441145,0.0,0.0,0.0,0.0,0.0,0.0,0.0,0.0,0.0,0.0,0.0,0.0,0.0,0.0,
1.7144,2.8937138149627444,2.857718627814548,2.819227130197744,0.0,0.0,0.0,2.8568865243250117,0.0,0.0,0.0,0.0,0.0,0.0,0.0,0.0,0.0,0.0,0.0,0.0,0.0,0.0,
1.7327,2.8945980206602395,2.8585761542564194,2.8200533700813004,0.0,0.0,0.0,2.8577425149993196,0.0,0.0,0.0,0.0,0.0,0.0,0.0,0.0,0.0,0.0,0.0,0.0,0.0,0.0,
1.7509,2.895487892043399,2.8594391553768572,2.8208848570067993,0.0,0.0,0.0,2.858603968142352,0.0,0.0,0.0,0.0,0.0,0.0,0.0,0.0,0.0,0.0,0.0,0.0,0.0,0.0,
1.7692,2.89639324866638,2.860317153463072,2.821730764489586,0.0,0.0,0.0,2.859480388873012,0.0,0.0,0.0,0.0,0.0,0.0,0.0,0.0,0.0,0.0,0.0,0.0,0.0,0.0,
1.7874,2.8973042369659043,2.861200591944347,2.82258188419103,0.0,0.0,0.0,2.860362237700427,0.0,0.0,0.0,0.0,0.0,0.0,0.0,0.0,0.0,0.0,0.0,0.0,0.0,0.0,
1.8056,2.898225816791703,2.862094280068262,2.8234428485866103,0.0,0.0,0.0,2.8612543151488588,0.0,0.0,0.0,0.0,0.0,0.0,0.0,0.0,0.0,0.0,0.0,0.0,0.0,0.0,
1.8239,2.8991631817035017,2.8630032532339875,2.824318507349073,0.0,0.0,0.0,2.862161647428854,0.0,0.0,0.0,0.0,0.0,0.0,0.0,0.0,0.0,0.0,0.0,0.0,0.0,0.0,
1.8421,2.900106130137191,2.8639176180602037,2.8251993285784183,0.0,0.0,0.0,2.863074358925271,0.0,0.0,0.0,0.0,0.0,0.0,0.0,0.0,0.0,0.0,0.0,0.0,0.0,0.0,
1.8603,2.9010597983349324,2.8648423544550745,2.8260901086173082,0.0,0.0,0.0,2.8639974204691048,0.0,0.0,0.0,0.0,0.0,0.0,0.0,0.0,0.0,0.0,0.0,0.0,0.0,0.0,
1.8786,2.902029559091101,2.8657826711801895,2.826995863533658,0.0,0.0,0.0,2.8649360312683165,0.0,0.0,0.0,0.0,0.0,0.0,0.0,0.0,0.0,0.0,0.0,0.0,0.0,0.0,
1.8968,2.903004858664713,2.8667283340714182,2.8279067341463033,0.0,0.0,0.0,2.8658799756274784,0.0,0.0,0.0,0.0,0.0,0.0,0.0,0.0,0.0,0.0,0.0,0.0,0.0,0.0,
1.9151,2.9039964603432584,2.867689778469539,2.8288327706560557,0.0,0.0,0.0,2.8668396698229515,0.0,0.0,0.0,0.0,0.0,0.0,0.0,0.0,0.0,0.0,0.0,0.0,0.0,0.0,
1.9333,2.9049935729738485,2.868656540520016,2.8297638933471907,0.0,0.0,0.0,2.8678046689470187,0.0,0.0,0.0,0.0,0.0,0.0,0.0,0.0,0.0,0.0,0.0,0.0,0.0,0.0,
1.9515,2.9060016317503115,2.8696338892831568,2.8307051760874216,0.0,0.0,0.0,2.8687802323736302,0.0,0.0,0.0,0.0,0.0,0.0,0.0,0.0,0.0,0.0,0.0,0.0,0.0,0.0,
1.9698,2.9070263134368135,2.870627327440708,2.8316619169283443,0.0,0.0,0.0,2.8697718526019553,0.0,0.0,0.0,0.0,0.0,0.0,0.0,0.0,0.0,0.0,0.0,0.0,0.0,0.0,
1.988,2.908056467333556,2.871626043348094,2.8326237023148764,0.0,0.0,0.0,2.8707687376655087,0.0,0.0,0.0,0.0,0.0,0.0,0.0,0.0,0.0,0.0,0.0,0.0,0.0,0.0,
2.0063,2.9091034628540906,2.8726410584849598,2.833601144851835,0.0,0.0,0.0,2.871781888730295,0.0,0.0,0.0,0.0,0.0,0.0,0.0,0.0,0.0,0.0,0.0,0.0,0.0,0.0,
2.0245,2.91015590679325,2.8736613266748945,2.8345836059201774,0.0,0.0,0.0,2.8728002797961074,0.0,0.0,0.0,0.0,0.0,0.0,0.0,0.0,0.0,0.0,0.0,0.0,0.0,0.0,
2.0427,2.9112195397596317,2.8746924122669872,2.835576442645458,0.0,0.0,0.0,2.8738294648906924,0.0,0.0,0.0,0.0,0.0,0.0,0.0,0.0,0.0,0.0,0.0,0.0,0.0,0.0,
2.061,2.9123003493171415,2.875740118345149,2.8365852411148476,0.0,0.0,0.0,2.874875236259046,0.0,0.0,0.0,0.0,0.0,0.0,0.0,0.0,0.0,0.0,0.0,0.0,0.0,0.0,
2.0792,2.9133865748094765,2.876793043432078,2.8375990218457376,0.0,0.0,0.0,2.875926213362431,0.0,0.0,0.0,0.0,0.0,0.0,0.0,0.0,0.0,0.0,0.0,0.0,0.0,0.0,
2.0974,2.9144841433244224,2.877856932114348,2.8386233147772435,0.0,0.0,0.0,2.876988130072005,0.0,0.0,0.0,0.0,0.0,0.0,0.0,0.0,0.0,0.0,0.0,0.0,0.0,0.0,
2.1157,2.9155992323198587,2.8789377709544075,2.83966388183621,0.0,0.0,0.0,2.8780669617034924,0.0,0.0,0.0,0.0,0.0,0.0,0.0,0.0,0.0,0.0,0.0,0.0,0.0,0.0,
2.1339,2.9167197086783645,2.88002379841563,2.8407093982293254,0.0,0.0,0.0,2.8791509684411065,0.0,0.0,0.0,0.0,0.0,0.0,0.0,0.0,0.0,0.0,0.0,0.0,0.0,0.0,
2.1522,2.9178579401175897,2.88112700085334,2.841771401669403,0.0,0.0,0.0,2.8802521142134445,0.0,0.0,0.0,0.0,0.0,0.0,0.0,0.0,0.0,0.0,0.0,0.0,0.0,0.0,
2.1704,2.919001542094976,2.8822353737272994,2.8428383343815815,0.0,0.0,0.0,2.8813584167346193,0.0,0.0,0.0,0.0,0.0,0.0,0.0,0.0,0.0,0.0,0.0,0.0,0.0,0.0,
2.1886,2.9201567584538752,2.8833549676715036,2.8439160196020845,0.0,0.0,0.0,2.8824759152424875,0.0,0.0,0.0,0.0,0.0,0.0,0.0,0.0,0.0,0.0,0.0,0.0,0.0,0.0,
2.2069,2.9213300894260708,2.884492081004845,2.8450105178814162,0.0,0.0,0.0,2.8836108961041105,0.0,0.0,0.0,0.0,0.0,0.0,0.0,0.0,0.0,0.0,0.0,0.0,0.0,0.0,
2.2251,2.922508769182709,2.885634340750057,2.8461099183096827,0.0,0.0,0.0,2.8847510094141495,0.0,0.0,0.0,0.0,0.0,0.0,0.0,0.0,0.0,0.0,0.0,0.0,0.0,0.0,
2.2434,2.9237058089283066,2.8867943548511774,2.847226354091087,0.0,0.0,0.0,2.8859088392901904,0.0,0.0,0.0,0.0,0.0,0.0,0.0,0.0,0.0,0.0,0.0,0.0,0.0,0.0,
2.2616,2.92490818531594,2.8879595015451356,2.8483476759363313,0.0,0.0,0.0,2.8870717875991354,0.0,0.0,0.0,0.0,0.0,0.0,0.0,0.0,0.0,0.0,0.0,0.0,0.0,0.0,
2.2798,2.9261224667064774,2.889136144870247,2.84948000723525,0.0,0.0,0.0,2.888246206270658,0.0,0.0,0.0,0.0,0.0,0.0,0.0,0.0,0.0,0.0,0.0,0.0,0.0,0.0,
2.2981,2.927355484296071,2.890330902661103,2.8506297143884334,0.0,0.0,0.0,2.8894387004485353,0.0,0.0,0.0,0.0,0.0,0.0,0.0,0.0,0.0,0.0,0.0,0.0,0.0,0.0,
2.3163,2.9285938240044027,2.8915307757552053,2.851784286608754,0.0,0.0,0.0,2.8906362954561207,0.0,0.0,0.0,0.0,0.0,0.0,0.0,0.0,0.0,0.0,0.0,0.0,0.0,0.0,
2.3345,2.9298442527860313,2.892742319910476,2.852950030800235,0.0,0.0,0.0,2.891845534498914,0.0,0.0,0.0,0.0,0.0,0.0,0.0,0.0,0.0,0.0,0.0,0.0,0.0,0.0,
2.3528,2.9311138045150225,2.8939723485502085,2.8541335004812964,0.0,0.0,0.0,2.8930732178488423,0.0,0.0,0.0,0.0,0.0,0.0,0.0,0.0,0.0,0.0,0.0,0.0,0.0,0.0,
2.371,2.93238866839631,2.895207479441436,2.8553218180793034,0.0,0.0,0.0,2.8943059886390166,0.0,0.0,0.0,0.0,0.0,0.0,0.0,0.0,0.0,0.0,0.0,0.0,0.0,0.0,
