energies(eV),real_xx,real_yy,real_zz,real_xy,real_yz,real_xz,real_ave,imag_xx,imag_yy,imag_zz,imag_xy,imag_yz,imag_xz,imag_ave,absorption_xx,absorption_yy,absorption_zz,absorption_xy,absorption_yz,absorption_xz,absorption_ave,band_gap
0.0,3.250080240202744,3.261825159928901,3.0966401272406916,0.0,0.0,-0.001720853357090272,3.2028485091241126,0.0,0.0,0.0,0.0,0.0,0.0,0.0,0.0,0.0,0.0,0.0,0.0,0.0,0.0,3.1477
0.0137,3.250087924727037,3.2618329063393596,3.096647065378266,0.0,0.0,-0.0017208779018590312,3.202855965481554,0.0,0.0,0.0,0.0,0.0,0.0,0.0,0.0,0.0,0.0,0.0,0.0,57.60220672069079,0.0,
0.0275,3.250111203623801,3.261856372708294,3.096668083230211,0.0,0.0,-0.001720952256181925,3.2028785531874355,0.0,0.0,0.0,0.0,0.0,0.0,0.0,0.0,0.0,0.0,0.0,0.0,115.6273653916848,0.0,
0.0412,3.250149741150249,3.2618952205862937,3.0967028776661207,0.0,0.0,-0.001721075348627567,3.2029159464675545,0.0,0.0,0.0,0.0,0.0,0.0,0.0,0.0,0.0,0.0,0.0,0.0,173.23701163760416,0.0,
0.0549,3.2502036526054203,3.261949566196401,3.096751552789877,0.0,0.0,-0.001721247549047013,3.2029682571972327,0.0,0.0,0.0,0.0,0.0,0.0,0.0,0.0,0.0,0.0,0.0,0.0,230.85407085539373,0.0,
0.0686,3.2502729417756777,3.262019413349022,3.096814112025148,0.0,0.0,-0.0017214688717426777,3.2030354890499493,0.0,0.0,0.0,0.0,0.0,0.0,0.0,0.0,0.0,0.0,0.0,0.0,288.48100881298,0.0,
0.0824,3.2503582881350175,3.2621054469814488,3.096891168856503,0.0,0.0,-0.0017217414899910433,3.203118301324323,0.0,0.0,0.0,0.0,0.0,0.0,0.0,0.0,0.0,0.0,0.0,0.0,346.54106808819586,0.0,
0.0961,3.2504584607695306,3.2622064262574266,3.0969816119344413,0.0,0.0,-0.001722061475423395,3.2032154996538,0.0,0.0,0.0,0.0,0.0,0.0,0.0,0.0,0.0,0.0,0.0,0.0,404.19528083902003,0.0,
0.1098,3.250574029024884,3.2623229250954613,3.097085955314484,0.0,0.0,-0.0017224306507497324,3.203327636478276,0.0,0.0,0.0,0.0,0.0,0.0,0.0,0.0,0.0,0.0,0.0,0.0,461.8667922939514,0.0,
0.1235,3.250705001027596,3.262454951673714,3.097204206344803,0.0,0.0,-0.001722849046648129,3.2034547196820378,0.0,0.0,0.0,0.0,0.0,0.0,0.0,0.0,0.0,0.0,0.0,0.0,519.5580718757453,0.0,
0.1373,3.2508525111818214,3.2626036495141597,3.097337389260576,0.0,0.0,-0.001723320292575212,3.2035978499855187,0.0,0.0,0.0,0.0,0.0,0.0,0.0,0.0,0.0,0.0,0.0,0.0,577.6929447290121,0.0,
0.151,3.2510144320291983,3.2627668740114655,3.097483583251295,0.0,0.0,-0.0017238375980081968,3.2037549630973197,0.0,0.0,0.0,0.0,0.0,0.0,0.0,0.0,0.0,0.0,0.0,0.0,635.4313637739859,0.0,
0.1647,3.2511917876232412,3.262945657445049,3.097643712922131,0.0,0.0,-0.001724404240977212,3.2039270526634738,0.0,0.0,0.0,0.0,0.0,0.0,0.0,0.0,0.0,0.0,0.0,0.0,693.1969859071144,0.0,
0.1784,3.2513845904615852,3.2631400123917853,3.0978177895735355,0.0,0.0,-0.0017250202686106184,3.204114130808969,0.0,0.0,0.0,0.0,0.0,0.0,0.0,0.0,0.0,0.0,0.0,0.0,750.9922868723395,0.0,
0.1922,3.251594431186014,3.263351542274043,3.098007249373584,0.0,0.0,-0.001725690771430033,3.2043177409445467,0.0,0.0,0.0,0.0,0.0,0.0,0.0,0.0,0.0,0.0,0.0,0.0,809.2419669534746,0.0,
0.2059,3.2518182834161697,3.2635771963245555,3.098209359900819,0.0,0.0,-0.0017264060877346466,3.2045349465471813,0.0,0.0,0.0,0.0,0.0,0.0,0.0,0.0,0.0,0.0,0.0,0.0,867.1043229037491,0.0,
0.2196,3.2520576271014145,3.263818466379088,3.0984254573842103,0.0,0.0,-0.0017271709552982406,3.204767183621571,0.0,0.0,0.0,0.0,0.0,0.0,0.0,0.0,0.0,0.0,0.0,0.0,925.0038156820149,0.0,
0.2333,3.2523124791581695,3.2640753694610947,3.0986555571195504,0.0,0.0,-0.0017279854378139115,3.2050144685796043,0.0,0.0,0.0,0.0,0.0,0.0,0.0,0.0,0.0,0.0,0.0,0.0,982.9429300336269,0.0,
0.2471,3.2525848883060156,3.2643499707448007,3.098901508871496,0.0,0.0,-0.0017288560937291566,3.2052787893074375,0.0,0.0,0.0,0.0,0.0,0.0,0.0,0.0,0.0,0.0,0.0,0.0,1041.347534906416,0.0,
0.2608,3.2528709258519166,3.264638309888816,3.0991597655418017,0.0,0.0,-0.0017297703773119036,3.205556333760845,0.0,0.0,0.0,0.0,0.0,0.0,0.0,0.0,0.0,0.0,0.0,0.0,1099.3736921782975,0.0,
0.2745,3.2531725293606315,3.2649423400154154,3.099432076537854,0.0,0.0,-0.0017307344924758505,3.2058489819713003,0.0,0.0,0.0,0.0,0.0,0.0,0.0,0.0,0.0,0.0,0.0,0.0,1157.4469601417725,0.0,
0.2882,3.2534897202321797,3.2652620826595133,3.0997184612092816,0.0,0.0,-0.0017317485196329755,3.206156754700325,0.0,0.0,0.0,0.0,0.0,0.0,0.0,0.0,0.0,0.0,0.0,0.0,1215.5698352432544,0.0,
0.302,3.2538250076439366,3.2656000671421705,3.100021185069234,0.0,0.0,-0.0017328204940101075,3.206482086618447,0.0,0.0,0.0,0.0,0.0,0.0,0.0,0.0,0.0,0.0,0.0,0.0,1274.1696498929086,0.0,
0.3157,3.2541735561738676,3.2659514191032635,3.1003358823492455,0.0,0.0,-0.0017339349691295237,3.206820285875459,0.0,0.0,0.0,0.0,0.0,0.0,0.0,0.0,0.0,0.0,0.0,0.0,1332.3996499808286,0.0,
0.3294,3.2545377632598873,3.266318555223281,3.1006647176764406,0.0,0.0,-0.0017350996234289544,3.20717367871987,0.0,0.0,0.0,0.0,0.0,0.0,0.0,0.0,0.0,0.0,0.0,0.0,1390.6867856015363,0.0,
0.3431,3.2549176548681036,3.2667015016314918,3.101007714528785,0.0,0.0,-0.0017363145542330979,3.2075422903427935,0.0,0.0,0.0,0.0,0.0,0.0,0.0,0.0,0.0,0.0,0.0,0.0,1449.033567626864,0.0,
0.3569,3.255316203563225,3.267103254743205,3.101367556816479,0.0,0.0,-0.0017375892844146302,3.20792900504097,0.0,0.0,0.0,0.0,0.0,0.0,0.0,0.0,0.0,0.0,0.0,0.0,1507.86908832442,0.0,
0.3706,3.255727661735388,3.267518020686188,3.10173905516493,0.0,0.0,-0.0017389054461339995,3.208328245862169,0.0,0.0,0.0,0.0,0.0,0.0,0.0,0.0,0.0,0.0,0.0,0.0,1566.3431934492296,0.0,
0.3843,3.2561548895007286,3.267948682521568,3.102124791957108,0.0,0.0,-0.0017402722027446123,3.2087427879931347,0.0,0.0,0.0,0.0,0.0,0.0,0.0,0.0,0.0,0.0,0.0,0.0,1624.8845208858052,0.0,
0.398,3.256597917492519,3.268395271074131,3.1025247948904258,0.0,0.0,-0.0017416896687169438,3.2091726611523588,0.0,0.0,0.0,0.0,0.0,0.0,0.0,0.0,0.0,0.0,0.0,0.0,1683.4955986852183,0.0,
0.4118,3.257060185153353,3.2688612533656634,3.1029421694279917,0.0,0.0,-0.0017431688674748897,3.209621202649003,0.0,0.0,0.0,0.0,0.0,0.0,0.0,0.0,0.0,0.0,0.0,0.0,1742.6075772907468,0.0,
0.4255,3.257535026163668,3.269339909448547,3.103370896691969,0.0,0.0,-0.0017446884852484474,3.2100819441013946,0.0,0.0,0.0,0.0,0.0,0.0,0.0,0.0,0.0,0.0,0.0,0.0,1801.366314502768,0.0,
0.4392,3.25802576668159,3.2698345921489294,3.103813979862313,0.0,0.0,-0.0017462591827299805,3.2105581128976106,0.0,0.0,0.0,0.0,0.0,0.0,0.0,0.0,0.0,0.0,0.0,0.0,1860.2024338283793,0.0,
0.4529,3.258532442127812,3.2703453371078206,3.1042714509643536,0.0,0.0,-0.0017478810918079876,3.2110497433999954,0.0,0.0,0.0,0.0,0.0,0.0,0.0,0.0,0.0,0.0,0.0,0.0,1919.1184832855527,0.0,
0.4667,3.259058962888723,3.2708760860441957,3.104746840690066,0.0,0.0,-0.0017495667514312056,3.2115606298743278,0.0,0.0,0.0,0.0,0.0,0.0,0.0,0.0,0.0,0.0,0.0,0.0,1978.5479720637784,0.0,
0.4804,3.2595977363251385,3.271419185277195,3.1052332937774785,0.0,0.0,-0.0017512918733188236,3.212083405126604,0.0,0.0,0.0,0.0,0.0,0.0,0.0,0.0,0.0,0.0,0.0,0.0,2037.6321778714678,0.0,
0.4941,3.2601525585732545,3.271978461358183,3.1057342377620363,0.0,0.0,-0.0017530686299856442,3.212621752564491,0.0,0.0,0.0,0.0,0.0,0.0,0.0,0.0,0.0,0.0,0.0,0.0,2096.80400984352,0.0,
0.5078,3.2607234699818175,3.272553954885319,3.106249709123824,0.0,0.0,-0.0017548971710488756,3.2131757113303205,0.0,0.0,0.0,0.0,0.0,0.0,0.0,0.0,0.0,0.0,0.0,0.0,2156.066038789749,0.0,
0.5216,3.261314856538992,3.273150086961031,3.1067836679946623,0.0,0.0,-0.0017567915680584462,3.213749537164895,0.0,0.0,0.0,0.0,0.0,0.0,0.0,0.0,0.0,0.0,0.0,0.0,2215.8544358016534,0.0,
0.5353,3.2619181905585735,3.2737582613891445,3.107328414837354,0.0,0.0,-0.0017587245255614333,3.214334955595024,0.0,0.0,0.0,0.0,0.0,0.0,0.0,0.0,0.0,0.0,0.0,0.0,2275.305301385799,0.0,
0.549,3.2625377426793123,3.2743827829982957,3.107887805633247,0.0,0.0,-0.0017607097444716233,3.214936110436952,0.0,0.0,0.0,0.0,0.0,0.0,0.0,0.0,0.0,0.0,0.0,0.0,2334.854132813921,0.0,
0.5627,3.2631735583403847,3.2750236975064455,3.1084618814634513,0.0,0.0,-0.0017627473924836084,3.215553045770094,0.0,0.0,0.0,0.0,0.0,0.0,0.0,0.0,0.0,0.0,0.0,0.0,2394.5035265526813,0.0,
0.5765,3.2638305044010236,3.2756859107006275,3.1090550366631784,0.0,0.0,-0.0017648530929657074,3.21619048392161,0.0,0.0,0.0,0.0,0.0,0.0,0.0,0.0,0.0,0.0,0.0,0.0,2454.6926216728916,0.0,
0.5902,3.2644991082488968,3.2763598739288193,3.10965871848786,0.0,0.0,-0.0017669965064724654,3.216839233555192,0.0,0.0,0.0,0.0,0.0,0.0,0.0,0.0,0.0,0.0,0.0,0.0,2514.551738731968,0.0,
0.6039,3.2651841201573792,3.2770503754597184,3.1102772160040137,0.0,0.0,-0.0017691928810236554,3.217503903873704,0.0,0.0,0.0,0.0,0.0,0.0,0.0,0.0,0.0,0.0,0.0,0.0,2574.5192684861577,0.0,
0.6177,3.2658907716995857,3.277762688679121,3.110915252869848,0.0,0.0,-0.0017714590184933897,3.2181895710828514,0.0,0.0,0.0,0.0,0.0,0.0,0.0,0.0,0.0,0.0,0.0,0.0,2635.0367803309578,0.0,
0.6314,3.266608873934176,3.2784865429106205,3.1115636295332014,0.0,0.0,-0.0017737622683178266,3.2188863487926658,0.0,0.0,0.0,0.0,0.0,0.0,0.0,0.0,0.0,0.0,0.0,0.0,2695.229857557929,0.0,
0.6451,3.2673435408275147,3.2792270929943004,3.1122269634604134,0.0,0.0,-0.0017761190531434745,3.2195991990940764,0.0,0.0,0.0,0.0,0.0,0.0,0.0,0.0,0.0,0.0,0.0,0.0,2755.53926481241,0.0,
0.6588,3.2680948271903616,3.2799843940724718,3.112905304202066,0.0,0.0,-0.001778529573257031,3.2203281751549664,0.0,0.0,0.0,0.0,0.0,0.0,0.0,0.0,0.0,0.0,0.0,0.0,2815.967650493264,0.0,
0.6726,3.268868456231073,3.2807642150437113,3.113603819350021,0.0,0.0,-0.0017810122212734826,3.2210788302082682,0.0,0.0,0.0,0.0,0.0,0.0,0.0,0.0,0.0,0.0,0.0,0.0,2876.9600958078836,0.0,
0.6863,3.269653273896314,3.281555312465557,3.1143124378943368,0.0,0.0,-0.0017835312279041843,3.2218403414187358,0.0,0.0,0.0,0.0,0.0,0.0,0.0,0.0,0.0,0.0,0.0,0.0,2937.635333405704,0.0,
0.7,3.270454884299425,3.282363335193243,3.115036219889184,0.0,0.0,-0.001786104600900753,3.222618146460617,0.0,0.0,0.0,0.0,0.0,0.0,0.0,0.0,0.0,0.0,0.0,0.0,2998.437563765604,0.0,
0.7137,3.271273347912256,3.2831883440608536,3.115775220000352,0.0,0.0,-0.0017887325597701078,3.2234123039911537,0.0,0.0,0.0,0.0,0.0,0.0,0.0,0.0,0.0,0.0,0.0,0.0,3059.369469035053,0.0,
0.7275,3.272114886653322,3.284036610596495,3.116535056148375,0.0,0.0,-0.0017914351132034538,3.2242288511327306,0.0,0.0,0.0,0.0,0.0,0.0,0.0,0.0,0.0,0.0,0.0,0.0,3120.879958108977,0.0,
0.7412,3.2729673680926905,3.284895905246084,3.11730477387322,0.0,0.0,-0.0017941733244504028,3.225056015737332,0.0,0.0,0.0,0.0,0.0,0.0,0.0,0.0,0.0,0.0,0.0,0.0,3182.0802912221934,0.0,
0.7549,3.273836893414251,3.2857723778443204,3.11808988207508,0.0,0.0,-0.0017969668111562469,3.225899717777884,0.0,0.0,0.0,0.0,0.0,0.0,0.0,0.0,0.0,0.0,0.0,0.0,3243.4184195937037,0.0,
0.7686,3.274723529009493,3.2866660951762485,3.1188904407676237,0.0,0.0,-0.0017998158125245426,3.226760021651122,0.0,0.0,0.0,0.0,0.0,0.0,0.0,0.0,0.0,0.0,0.0,0.0,3304.897062133158,0.0,
0.7824,3.275634003293572,3.287583839231088,3.1197125252376234,0.0,0.0,-0.0018027419809757968,3.227643455920761,0.0,0.0,0.0,0.0,0.0,0.0,0.0,0.0,0.0,0.0,0.0,0.0,3366.96927550985,0.0,
0.7961,3.2765551908679993,3.288512379663192,3.120544284383417,0.0,0.0,-0.0018057031590290788,3.228537284971536,0.0,0.0,0.0,0.0,0.0,0.0,0.0,0.0,0.0,0.0,0.0,0.0,3428.738217540442,0.0,
0.8098,3.277493697615946,3.289458374959917,3.121391682846115,0.0,0.0,-0.0018087206013140315,3.229447918473993,0.0,0.0,0.0,0.0,0.0,0.0,0.0,0.0,0.0,0.0,0.0,0.0,3490.6559092104553,0.0,
0.8235,3.278449596138165,3.290421898147285,3.122254786247967,0.0,0.0,-0.001811794567234515,3.2303754268444727,0.0,0.0,0.0,0.0,0.0,0.0,0.0,0.0,0.0,0.0,0.0,0.0,3552.7251092348297,0.0,
0.8373,3.27943012987946,3.2914102502577425,3.123140134953649,0.0,0.0,-0.0018149483829652277,3.2313268383636173,0.0,0.0,0.0,0.0,0.0,0.0,0.0,0.0,0.0,0.0,0.0,0.0,3615.403346703299,0.0,
0.851,3.280421164492161,3.2924091840780676,3.124034966773545,0.0,0.0,-0.0018181366123748398,3.2322884384479242,0.0,0.0,0.0,0.0,0.0,0.0,0.0,0.0,0.0,0.0,0.0,0.0,3677.785038061323,0.0,
0.8647,3.28142981892722,3.293425875164698,3.1249457096526774,0.0,0.0,-0.0018213821765226926,3.2332671345815314,0.0,0.0,0.0,0.0,0.0,0.0,0.0,0.0,0.0,0.0,0.0,0.0,3740.3265975524873,0.0,
0.8784,3.282456172318022,3.2944604031087246,3.12587243511269,0.0,0.0,-0.0018246853555391397,3.2342630035131457,0.0,0.0,0.0,0.0,0.0,0.0,0.0,0.0,0.0,0.0,0.0,0.0,3803.03082675946,0.0,
0.8922,3.283507992458185,3.295520597357723,3.126822157017712,0.0,0.0,-0.0018280711818051592,3.2352835822778734,0.0,0.0,0.0,0.0,0.0,0.0,0.0,0.0,0.0,0.0,0.0,0.0,3866.360056744487,0.0,
0.9059,3.284570118612941,3.296591176289989,3.1277811863272973,0.0,0.0,-0.0018314908778420322,3.236314160410076,0.0,0.0,0.0,0.0,0.0,0.0,0.0,0.0,0.0,0.0,0.0,0.0,3929.399313951261,0.0,
0.9196,3.2856501919475893,3.297679841729587,3.1287564225559126,0.0,0.0,-0.001834969062992717,3.2373621520776967,0.0,0.0,0.0,0.0,0.0,0.0,0.0,0.0,0.0,0.0,0.0,0.0,3992.6097341819323,0.0,
0.9333,3.2867482984891057,3.298786680194081,3.1297479434489257,0.0,0.0,-0.001838506038656427,3.238427640710704,0.0,0.0,0.0,0.0,0.0,0.0,0.0,0.0,0.0,0.0,0.0,0.0,4055.9941649539005,0.0,
0.9471,3.2878727405291692,3.29992005975211,3.13076324554058,0.0,0.0,-0.0018421285783561286,3.23951868194062,0.0,0.0,0.0,0.0,0.0,0.0,0.0,0.0,0.0,0.0,0.0,0.0,4120.02007410356,0.0,
0.9608,3.2890073119740184,3.3010636452910167,3.1317876957913966,0.0,0.0,-0.0018457844956584412,3.2406195510188103,0.0,0.0,0.0,0.0,0.0,0.0,0.0,0.0,0.0,0.0,0.0,0.0,4183.762439027993,0.0,
0.9745,3.290160186171638,3.3022256749264245,3.1328286742923104,0.0,0.0,-0.0018495001425073944,3.2417381784634576,0.0,0.0,0.0,0.0,0.0,0.0,0.0,0.0,0.0,0.0,0.0,0.0,4247.687450537971,0.0,
0.9882,3.2913314564444556,3.3034062425049444,3.1338862653735355,0.0,0.0,-0.0018532758421214142,3.2428746547743117,0.0,0.0,0.0,0.0,0.0,0.0,0.0,0.0,0.0,0.0,0.0,0.0,4311.798005136753,0.0,
1.002,3.2925299706111653,3.304614265805605,3.134968458203627,0.0,0.0,-0.0018571401466395386,3.244037564873466,0.0,0.0,0.0,0.0,0.0,0.0,0.0,0.0,0.0,0.0,0.0,0.0,4376.567047821767,0.0,
1.0157,3.2937384566279575,3.3058323355155053,3.1360596571338317,0.0,0.0,-0.001861037388019049,3.245210149759098,0.0,0.0,0.0,0.0,0.0,0.0,0.0,0.0,0.0,0.0,0.0,0.0,4441.058836743496,0.0,
1.0294,3.294965630863701,3.3070692369395243,3.1371677326234604,0.0,0.0,-0.001864995687639633,3.2464008668088957,0.0,0.0,0.0,0.0,0.0,0.0,0.0,0.0,0.0,0.0,0.0,0.0,4505.744956653767,0.0,
1.0431,3.2962115943839922,3.308325071701544,3.138292775989443,0.0,0.0,-0.0018690153910860354,3.2476098140249934,0.0,0.0,0.0,0.0,0.0,0.0,0.0,0.0,0.0,0.0,0.0,0.0,4570.628356048731,0.0,
1.0569,3.2974857524977668,3.3096093193187874,3.1394432798416783,0.0,0.0,-0.0018731268691793658,3.248846117219411,0.0,0.0,0.0,0.0,0.0,0.0,0.0,0.0,0.0,0.0,0.0,0.0,4636.187803384469,0.0,
1.0706,3.2987697449064686,3.310903473846988,3.1406026657647343,0.0,0.0,-0.001877270894423574,3.250091961506064,0.0,0.0,0.0,0.0,0.0,0.0,0.0,0.0,0.0,0.0,0.0,0.0,4701.476155466129,0.0,
1.0843,3.3000728427620243,3.312216879606049,3.1417793052116374,0.0,0.0,-0.0018814773970371734,3.25135634252657,0.0,0.0,0.0,0.0,0.0,0.0,0.0,0.0,0.0,0.0,0.0,0.0,4766.970735723011,0.0,
1.098,3.301395155371604,3.3135496464959355,3.1429732969330515,0.0,0.0,-0.0018857467455015032,3.252639366266864,0.0,0.0,0.0,0.0,0.0,0.0,0.0,0.0,0.0,0.0,0.0,0.0,4832.674547570585,0.0,
1.1118,3.3027466584937617,3.3149118288000006,3.1441936486852065,0.0,0.0,-0.0018901111720247606,3.25395071199299,0.0,0.0,0.0,0.0,0.0,0.0,0.0,0.0,0.0,0.0,0.0,0.0,4899.072535438021,0.0,
1.1255,3.304107879451221,3.3162837996842467,3.1454227774868984,0.0,0.0,-0.0018945078064824766,3.2552714855407885,0.0,0.0,0.0,0.0,0.0,0.0,0.0,0.0,0.0,0.0,0.0,0.0,4965.205460049854,0.0,
1.1392,3.3054886569256694,3.317675475297638,3.146669567297565,0.0,0.0,-0.0018989684299498852,3.256611233173624,0.0,0.0,0.0,0.0,0.0,0.0,0.0,0.0,0.0,0.0,0.0,0.0,5031.556734356538,0.0,
1.1529,3.3068891090208226,3.3190869743718334,3.1479341247991446,0.0,0.0,-0.0019034934342997928,3.257970069397267,0.0,0.0,0.0,0.0,0.0,0.0,0.0,0.0,0.0,0.0,0.0,0.0,5098.12941948955,0.0,
1.1667,3.308319795968951,3.3205289400528413,3.149225985558552,0.0,0.0,-0.0019081169585125845,3.2593582405267814,0.0,0.0,0.0,0.0,0.0,0.0,0.0,0.0,0.0,0.0,0.0,0.0,5165.414994865084,0.0,
1.1804,3.3097601066539766,3.3219805984142243,3.1505265384829015,0.0,0.0,-0.0019127724011873612,3.2607557478503675,0.0,0.0,0.0,0.0,0.0,0.0,0.0,0.0,0.0,0.0,0.0,0.0,5232.441417026975,0.0,
1.1941,3.3112204610857985,3.32345245130396,3.1518451924986057,0.0,0.0,-0.001917493438927587,3.2621727016294546,0.0,0.0,0.0,0.0,0.0,0.0,0.0,0.0,0.0,0.0,0.0,0.0,5299.698545676149,0.0,
1.2079,3.3127118680135323,3.3249555937287907,3.1531918882053676,0.0,0.0,-0.001922315673101132,3.2636197833158973,0.0,0.0,0.0,0.0,0.0,0.0,0.0,0.0,0.0,0.0,0.0,0.0,5367.683004305909,0.0,
1.2216,3.314212843617934,3.3264683724661914,3.1545472263755983,0.0,0.0,-0.0019271696405523415,3.2650761474865746,0.0,0.0,0.0,0.0,0.0,0.0,0.0,0.0,0.0,0.0,0.0,0.0,5435.412666952538,0.0,
1.2353,3.315734253908588,3.328001738693289,3.155921018692935,0.0,0.0,-0.001932090471348846,3.2665523370982705,0.0,0.0,0.0,0.0,0.0,0.0,0.0,0.0,0.0,0.0,0.0,0.0,5503.382469934049,0.0,
1.249,3.3172762339190665,3.32955582813391,3.1573133870940913,0.0,0.0,-0.0019370785993073933,3.268048483049023,0.0,0.0,0.0,0.0,0.0,0.0,0.0,0.0,0.0,0.0,0.0,0.0,5571.595581517229,0.0,
1.2628,3.318850404219801,3.331142352141753,3.1587348246784397,0.0,0.0,-0.0019421716185410952,3.2695758603466647,0.0,0.0,0.0,0.0,0.0,0.0,0.0,0.0,0.0,0.0,0.0,0.0,5640.55580497895,0.0,
1.2765,3.320434091875301,3.3327384594545224,3.1601648583272555,0.0,0.0,-0.0019472961658647428,3.271112469885693,0.0,0.0,0.0,0.0,0.0,0.0,0.0,0.0,0.0,0.0,0.0,0.0,5709.266936397262,0.0,
1.2902,3.322038771141133,3.334355714001024,3.161613848991959,0.0,0.0,-0.0019524893515304562,3.272669444711372,0.0,0.0,0.0,0.0,0.0,0.0,0.0,0.0,0.0,0.0,0.0,0.0,5778.231000229073,0.0,
1.3039,3.323664587726306,3.3359942622163348,3.163081928221531,0.0,0.0,-0.0019577516337095395,3.274246926054724,0.0,0.0,0.0,0.0,0.0,0.0,0.0,0.0,0.0,0.0,0.0,0.0,5847.451228892696,0.0,
1.3177,3.3253237913990814,3.337666449261394,3.1645801572970784,0.0,0.0,-0.001963122652112343,3.2758567993191847,0.0,0.0,0.0,0.0,0.0,0.0,0.0,0.0,0.0,0.0,0.0,0.0,5917.43898345185,0.0,
1.3314,3.326992488006449,3.3393481935670306,3.1660869602165356,0.0,0.0,-0.001968525039153266,3.277475880596672,0.0,0.0,0.0,0.0,0.0,0.0,0.0,0.0,0.0,0.0,0.0,0.0,5987.183233632366,0.0,
1.3451,3.3286827771585124,3.3410516890046495,3.16761326263915,0.0,0.0,-0.0019739979373267964,3.2791159096007707,0.0,0.0,0.0,0.0,0.0,0.0,0.0,0.0,0.0,0.0,0.0,0.0,6057.19346791671,0.0,
1.3588,3.330394816077756,3.342777093558798,3.1691592064745238,0.0,0.0,-0.0019795418292504726,3.2807770387036927,0.0,0.0,0.0,0.0,0.0,0.0,0.0,0.0,0.0,0.0,0.0,0.0,6127.472984446183,0.0,
1.3726,3.3321415025104084,3.3445374050654437,3.170736438129473,0.0,0.0,-0.0019851984557685376,3.282471781901775,0.0,0.0,0.0,0.0,0.0,0.0,0.0,0.0,0.0,0.0,0.0,0.0,6198.541087192539,0.0,
1.3863,3.3338976864797227,3.34630727686773,3.172322247470008,0.0,0.0,-0.0019908863346083834,3.284175736939154,0.0,0.0,0.0,0.0,0.0,0.0,0.0,0.0,0.0,0.0,0.0,0.0,6269.371155343098,0.0,
1.4,3.3356761114438918,3.3480995513598586,3.1739281415484144,0.0,0.0,-0.0019966466952164802,3.2859012681173883,0.0,0.0,0.0,0.0,0.0,0.0,0.0,0.0,0.0,0.0,0.0,0.0,6340.480524281423,0.0,
1.4137,3.3374769470775125,3.34991439901421,3.175554273472128,0.0,0.0,-0.0020024800445238218,3.287648539854617,0.0,0.0,0.0,0.0,0.0,0.0,0.0,0.0,0.0,0.0,0.0,0.0,6411.87255879524,0.0,
1.4275,3.339313759406601,3.3517654907352377,3.177212893084461,0.0,0.0,-0.0020084302826600476,3.289430714408766,0.0,0.0,0.0,0.0,0.0,0.0,0.0,0.0,0.0,0.0,0.0,0.0,6484.07489796383,0.0,
1.4412,3.3411601053244104,3.353626177288949,3.1788801224402783,0.0,0.0,-0.0020144116963980887,3.291222135017879,0.0,0.0,0.0,0.0,0.0,0.0,0.0,0.0,0.0,0.0,0.0,0.0,6556.044549972702,0.0,
1.4549,3.3430293921320655,3.355509969677577,3.1805680680186614,0.0,0.0,-0.002020467659425969,3.293035809942768,0.0,0.0,0.0,0.0,0.0,0.0,0.0,0.0,0.0,0.0,0.0,0.0,6628.307086926465,0.0,
1.4686,3.344921803009579,3.3574170519141333,3.1822768950630613,0.0,0.0,-0.0020265987025529335,3.2948719166622578,0.0,0.0,0.0,0.0,0.0,0.0,0.0,0.0,0.0,0.0,0.0,0.0,6700.865940320106,0.0,
