energies(eV),real_xx,real_yy,real_zz,real_xy,real_yz,real_xz,real_ave,imag_xx,imag_yy,imag_zz,imag_xy,imag_yz,imag_xz,imag_ave,absorption_xx,absorption_yy,absorption_zz,absorption_xy,absorption_yz,absorption_xz,absorption_ave,band_gap
0.0,2.363960901982094,2.3031438145538767,2.29564365977766,0.0,0.0,0.0,2.320916125437877,0.0,0.0,0.0,0.0,0.0,0.0,0.0,0.0,0.0,0.0,0.0,0.0,0.0,0.0,7.627599999999999
0.0218,2.363964107645412,2.3031468547625975,2.2956465127839705,0.0,0.0,0.0,2.3209191583973268,0.0,0.0,0.0,0.0,0.0,0.0,0.0,0.0,0.0,0.0,0.0,0.0,0.0,0.0,
0.0436,2.3639737247539228,2.303155975502883,2.295655071900728,0.0,0.0,0.0,2.320928257385845,0.0,0.0,0.0,0.0,0.0,0.0,0.0,0.0,0.0,0.0,0.0,0.0,0.0,0.0,
0.0654,2.3639897536632546,2.3031711771171306,2.2956693374214114,0.0,0.0,0.0,2.3209434227339325,0.0,0.0,0.0,0.0,0.0,0.0,0.0,0.0,0.0,0.0,0.0,0.0,0.0,0.0,
0.0872,2.3640121949661816,2.3031924601760583,2.2956893098352076,0.0,0.0,0.0,2.3209646549924825,0.0,0.0,0.0,0.0,0.0,0.0,0.0,0.0,0.0,0.0,0.0,0.0,0.0,0.0,
0.109,2.3640410494926565,2.3032198254787084,2.2957149898270206,0.0,0.0,0.0,2.3209919549327953,0.0,0.0,0.0,0.0,0.0,0.0,0.0,0.0,0.0,0.0,0.0,0.0,0.0,0.0,
0.1309,2.3640764948745923,2.3032534415047516,2.2957465354157343,0.0,0.0,0.0,2.3210254905983594,0.0,0.0,0.0,0.0,0.0,0.0,0.0,0.0,0.0,0.0,0.0,0.0,0.0,0.0,
0.1527,2.364118208720052,2.3032930025199594,2.2957836595949552,0.0,0.0,0.0,2.321064956944989,0.0,0.0,0.0,0.0,0.0,0.0,0.0,0.0,0.0,0.0,0.0,0.0,0.0,0.0,
0.1745,2.3641663397107964,2.303338649554681,2.2958264945884306,0.0,0.0,0.0,2.3211104946179693,0.0,0.0,0.0,0.0,0.0,0.0,0.0,0.0,0.0,0.0,0.0,0.0,0.0,0.0,
0.1963,2.36422088962781,2.303390384323642,2.2958750418658154,0.0,0.0,0.0,2.3211621052724225,0.0,0.0,0.0,0.0,0.0,0.0,0.0,0.0,0.0,0.0,0.0,0.0,0.0,0.0,
0.2181,2.3642818604899865,2.3034482087706634,2.2959293030930192,0.0,0.0,0.0,2.321219790784556,0.0,0.0,0.0,0.0,0.0,0.0,0.0,0.0,0.0,0.0,0.0,0.0,0.0,0.0,
0.2399,2.36434925455435,2.303512125068832,2.2959892801324,0.0,0.0,0.0,2.321283553251861,0.0,0.0,0.0,0.0,0.0,0.0,0.0,0.0,0.0,0.0,0.0,0.0,0.0,0.0,
0.2617,2.364423074316275,2.3035821356207715,2.2960549750429458,0.0,0.0,0.0,2.3213533949933307,0.0,0.0,0.0,0.0,0.0,0.0,0.0,0.0,0.0,0.0,0.0,0.0,0.0,0.0,
0.2835,2.3645033225097594,2.303658243058874,2.2961263900804774,0.0,0.0,0.0,2.3214293185497037,0.0,0.0,0.0,0.0,0.0,0.0,0.0,0.0,0.0,0.0,0.0,0.0,0.0,0.0,
0.3053,2.3645900021077457,2.3037404502456518,2.296203527697861,0.0,0.0,0.0,2.321511326683753,0.0,0.0,0.0,0.0,0.0,0.0,0.0,0.0,0.0,0.0,0.0,0.0,0.0,0.0,
0.3271,2.364683116322408,2.3038287602739937,2.2962863905452666,0.0,0.0,0.0,2.321599422380556,0.0,0.0,0.0,0.0,0.0,0.0,0.0,0.0,0.0,0.0,0.0,0.0,0.0,0.0,
0.349,2.364783140106913,2.3039236236439447,2.29637540105351,0.0,0.0,0.0,2.321694054934789,0.0,0.0,0.0,0.0,0.0,0.0,0.0,0.0,0.0,0.0,0.0,0.0,0.0,0.0,
0.3708,2.3648891637084786,2.3040241775922774,2.2964697493989252,0.0,0.0,0.0,2.3217943635665605,0.0,0.0,0.0,0.0,0.0,0.0,0.0,0.0,0.0,0.0,0.0,0.0,0.0,0.0,
0.3926,2.365001633020932,2.304130845064787,2.2965698321267936,0.0,0.0,0.0,2.321900770070837,0.0,0.0,0.0,0.0,0.0,0.0,0.0,0.0,0.0,0.0,0.0,0.0,0.0,0.0,
0.4144,2.365120552218321,2.30424363008076,2.2966756526802294,0.0,0.0,0.0,2.3220132783264367,0.0,0.0,0.0,0.0,0.0,0.0,0.0,0.0,0.0,0.0,0.0,0.0,0.0,0.0,
0.4362,2.365245925715876,2.304362536891886,2.2967872147011983,0.0,0.0,0.0,2.32213189243632,0.0,0.0,0.0,0.0,0.0,0.0,0.0,0.0,0.0,0.0,0.0,0.0,0.0,0.0,
0.458,2.365377758170594,2.3044875699827028,2.2969045220308653,0.0,0.0,0.0,2.322256616728054,0.0,0.0,0.0,0.0,0.0,0.0,0.0,0.0,0.0,0.0,0.0,0.0,0.0,0.0,
0.4798,2.3655160544816924,2.3046187340711333,2.2970275787099306,0.0,0.0,0.0,2.322387455754252,0.0,0.0,0.0,0.0,0.0,0.0,0.0,0.0,0.0,0.0,0.0,0.0,0.0,0.0,
0.5016,2.3656608197911457,2.3047560341089834,2.2971563889790994,0.0,0.0,0.0,2.322524414293076,0.0,0.0,0.0,0.0,0.0,0.0,0.0,0.0,0.0,0.0,0.0,0.0,0.0,0.0,
0.5234,2.3658120594842558,2.304899475282509,2.297290957279479,0.0,0.0,0.0,2.322667497348748,0.0,0.0,0.0,0.0,0.0,0.0,0.0,0.0,0.0,0.0,0.0,0.0,0.0,0.0,
0.5452,2.3659697791902268,2.3050490630130067,2.297431288253021,0.0,0.0,0.0,2.3228167101520847,0.0,0.0,0.0,0.0,0.0,0.0,0.0,0.0,0.0,0.0,0.0,0.0,0.0,0.0,
0.5671,2.3661347529729078,2.3052055315451296,2.2975780702161797,0.0,0.0,0.0,2.3229727849114057,0.0,0.0,0.0,0.0,0.0,0.0,0.0,0.0,0.0,0.0,0.0,0.0,0.0,0.0,
0.5889,2.366305480365288,2.3053674578587957,2.2977299677592398,0.0,0.0,0.0,2.3231343019944415,0.0,0.0,0.0,0.0,0.0,0.0,0.0,0.0,0.0,0.0,0.0,0.0,0.0,0.0,
0.6107,2.3664827061576226,2.3055355484383897,2.297887643135745,0.0,0.0,0.0,2.3233019659105856,0.0,0.0,0.0,0.0,0.0,0.0,0.0,0.0,0.0,0.0,0.0,0.0,0.0,0.0,
0.6325,2.3666664369622876,2.305709809652793,2.29805110179682,0.0,0.0,0.0,2.3234757828039667,0.0,0.0,0.0,0.0,0.0,0.0,0.0,0.0,0.0,0.0,0.0,0.0,0.0,0.0,
0.6543,2.3668566796389037,2.305890248109221,2.2982203493970372,0.0,0.0,0.0,2.3236557590483873,0.0,0.0,0.0,0.0,0.0,0.0,0.0,0.0,0.0,0.0,0.0,0.0,0.0,0.0,
0.6761,2.36705344129508,2.306076870653987,2.2983953917948905,0.0,0.0,0.0,2.323841901247986,0.0,0.0,0.0,0.0,0.0,0.0,0.0,0.0,0.0,0.0,0.0,0.0,0.0,0.0,
0.6979,2.3672567292872175,2.3062696843732806,2.2985762350534467,0.0,0.0,0.0,2.324034216237982,0.0,0.0,0.0,0.0,0.0,0.0,0.0,0.0,0.0,0.0,0.0,0.0,0.0,0.0,
0.7197,2.3674665512212734,2.3064686965939614,2.298762885440931,0.0,0.0,0.0,2.3242327110853886,0.0,0.0,0.0,0.0,0.0,0.0,0.0,0.0,0.0,0.0,0.0,0.0,0.0,0.0,
0.7415,2.367682914953652,2.3066739148843896,2.298955349431374,0.0,0.0,0.0,2.3244373930898052,0.0,0.0,0.0,0.0,0.0,0.0,0.0,0.0,0.0,0.0,0.0,0.0,0.0,0.0,
0.7633,2.3679058285920194,2.3068853470552715,2.299153633705264,0.0,0.0,0.0,2.324648269784185,0.0,0.0,0.0,0.0,0.0,0.0,0.0,0.0,0.0,0.0,0.0,0.0,0.0,0.0,
0.7852,2.36813636824369,2.307104013922551,2.2993586948784843,0.0,0.0,0.0,2.324866359014908,0.0,0.0,0.0,0.0,0.0,0.0,0.0,0.0,0.0,0.0,0.0,0.0,0.0,0.0,
0.807,2.3683724371701897,2.307327926858971,2.2995686673693365,0.0,0.0,0.0,2.325089677132832,0.0,0.0,0.0,0.0,0.0,0.0,0.0,0.0,0.0,0.0,0.0,0.0,0.0,0.0,
0.8288,2.368615081883686,2.307558078610924,2.2997844814647186,0.0,0.0,0.0,2.3253192139864427,0.0,0.0,0.0,0.0,0.0,0.0,0.0,0.0,0.0,0.0,0.0,0.0,0.0,0.0,
0.8506,2.3688643115073758,2.3077944779688604,2.300006144678906,0.0,0.0,0.0,2.325554978051714,0.0,0.0,0.0,0.0,0.0,0.0,0.0,0.0,0.0,0.0,0.0,0.0,0.0,0.0,
0.8724,2.369120135420455,2.3080371339703287,2.300233664736254,0.0,0.0,0.0,2.3257969780423458,0.0,0.0,0.0,0.0,0.0,0.0,0.0,0.0,0.0,0.0,0.0,0.0,0.0,0.0,
0.8942,2.3693825632592107,2.3082860559009735,2.3004670495719592,0.0,0.0,0.0,2.3260452229107145,0.0,0.0,0.0,0.0,0.0,0.0,0.0,0.0,0.0,0.0,0.0,0.0,0.0,0.0,
0.916,2.3696516049180767,2.308541253295634,2.3007063073329004,0.0,0.0,0.0,2.3262997218488706,0.0,0.0,0.0,0.0,0.0,0.0,0.0,0.0,0.0,0.0,0.0,0.0,0.0,0.0,
0.9378,2.369927270550721,2.3088027359394436,2.3009514463784786,0.0,0.0,0.0,2.3265604842895478,0.0,0.0,0.0,0.0,0.0,0.0,0.0,0.0,0.0,0.0,0.0,0.0,0.0,0.0,
0.9596,2.3702095705711965,2.3090705138689156,2.3012024752814044,0.0,0.0,0.0,2.326827519907172,0.0,0.0,0.0,0.0,0.0,0.0,0.0,0.0,0.0,0.0,0.0,0.0,0.0,0.0,
0.9814,2.370498515655076,2.309344597373152,2.301459402828706,0.0,0.0,0.0,2.327100838618978,0.0,0.0,0.0,0.0,0.0,0.0,0.0,0.0,0.0,0.0,0.0,0.0,0.0,0.0,
1.0033,2.3707954880621855,2.309626297801268,2.30172345731442,0.0,0.0,0.0,2.327381747725958,0.0,0.0,0.0,0.0,0.0,0.0,0.0,0.0,0.0,0.0,0.0,0.0,0.0,0.0,
1.0251,2.3710977869614838,2.309913053386307,2.3019922365360452,0.0,0.0,0.0,2.327667692294612,0.0,0.0,0.0,0.0,0.0,0.0,0.0,0.0,0.0,0.0,0.0,0.0,0.0,0.0,
1.0469,2.371406764585426,2.31020614699206,2.3022669421013884,0.0,0.0,0.0,2.3279599512262914,0.0,0.0,0.0,0.0,0.0,0.0,0.0,0.0,0.0,0.0,0.0,0.0,0.0,0.0,
1.0687,2.3717224326691966,2.3105055899312004,2.3025475836646647,0.0,0.0,0.0,2.328258535421687,0.0,0.0,0.0,0.0,0.0,0.0,0.0,0.0,0.0,0.0,0.0,0.0,0.0,0.0,
1.0905,2.372044803215779,2.310811393775246,2.302834171099124,0.0,0.0,0.0,2.3285634560300497,0.0,0.0,0.0,0.0,0.0,0.0,0.0,0.0,0.0,0.0,0.0,0.0,0.0,0.0,
1.1123,2.3723738884973367,2.3111235703558624,2.3031267144980285,0.0,0.0,0.0,2.3288747244504093,0.0,0.0,0.0,0.0,0.0,0.0,0.0,0.0,0.0,0.0,0.0,0.0,0.0,0.0,
1.1341,2.3727097010565803,2.3114421317662597,2.30342522417571,0.0,0.0,0.0,2.32919235233285,0.0,0.0,0.0,0.0,0.0,0.0,0.0,0.0,0.0,0.0,0.0,0.0,0.0,0.0,
1.1559,2.3730522537081926,2.3117670903625993,2.303729710668672,0.0,0.0,0.0,2.3295163515798216,0.0,0.0,0.0,0.0,0.0,0.0,0.0,0.0,0.0,0.0,0.0,0.0,0.0,0.0,
1.1777,2.3734015595402678,2.312098458765451,2.304040184736645,0.0,0.0,0.0,2.3298467343474547,0.0,0.0,0.0,0.0,0.0,0.0,0.0,0.0,0.0,0.0,0.0,0.0,0.0,0.0,
1.1995,2.373757631915807,2.3124362498612507,2.3043566573637335,0.0,0.0,0.0,2.3301835130469306,0.0,0.0,0.0,0.0,0.0,0.0,0.0,0.0,0.0,0.0,0.0,0.0,0.0,0.0,
1.2214,2.374122164579071,2.312782070675916,2.3046806329012357,0.0,0.0,0.0,2.330528289385408,0.0,0.0,0.0,0.0,0.0,0.0,0.0,0.0,0.0,0.0,0.0,0.0,0.0,0.0,
1.2432,2.3744918424359387,2.3131327765032568,2.3050091641490402,0.0,0.0,0.0,2.3308779276960787,0.0,0.0,0.0,0.0,0.0,0.0,0.0,0.0,0.0,0.0,0.0,0.0,0.0,0.0,
1.265,2.374868328655875,2.31348994535693,2.305343728320179,0.0,0.0,0.0,2.3312340007776613,0.0,0.0,0.0,0.0,0.0,0.0,0.0,0.0,0.0,0.0,0.0,0.0,0.0,0.0,
1.2868,2.3752516377183426,2.3138535912036735,2.30568433730902,0.0,0.0,0.0,2.331596522077012,0.0,0.0,0.0,0.0,0.0,0.0,0.0,0.0,0.0,0.0,0.0,0.0,0.0,0.0,
1.3086,2.375641784385673,2.314223728284018,2.306031003240358,0.0,0.0,0.0,2.3319655053033497,0.0,0.0,0.0,0.0,0.0,0.0,0.0,0.0,0.0,0.0,0.0,0.0,0.0,0.0,
1.3304,2.376038783704752,2.314600371114021,2.306383738470638,0.0,0.0,0.0,2.3323409644298034,0.0,0.0,0.0,0.0,0.0,0.0,0.0,0.0,0.0,0.0,0.0,0.0,0.0,0.0,
1.3522,2.3764426510087637,2.314983534486955,2.306742555589288,0.0,0.0,0.0,2.3327229136950023,0.0,0.0,0.0,0.0,0.0,0.0,0.0,0.0,0.0,0.0,0.0,0.0,0.0,0.0,
1.374,2.376853401918924,2.3153732334751154,2.3071074674200145,0.0,0.0,0.0,2.3331113676046846,0.0,0.0,0.0,0.0,0.0,0.0,0.0,0.0,0.0,0.0,0.0,0.0,0.0,0.0,
1.3958,2.3772710523463334,2.315769483431595,2.307478487022223,0.0,0.0,0.0,2.333506340933384,0.0,0.0,0.0,0.0,0.0,0.0,0.0,0.0,0.0,0.0,0.0,0.0,0.0,0.0,
1.4176,2.3776956184938287,2.316172299992167,2.307855627692379,0.0,0.0,0.0,2.333907848726125,0.0,0.0,0.0,0.0,0.0,0.0,0.0,0.0,0.0,0.0,0.0,0.0,0.0,0.0,
1.4395,2.3781291122063495,2.316583592246177,2.308240675264742,0.0,0.0,0.0,2.3343177932390895,0.0,0.0,0.0,0.0,0.0,0.0,0.0,0.0,0.0,0.0,0.0,0.0,0.0,0.0,
1.4613,2.378567591494063,2.3169996203694128,2.3086301271512406,0.0,0.0,0.0,2.3347324463382386,0.0,0.0,0.0,0.0,0.0,0.0,0.0,0.0,0.0,0.0,0.0,0.0,0.0,0.0,
1.4831,2.379013036958683,2.3174222637952493,2.3090257414966695,0.0,0.0,0.0,2.3351536807502007,0.0,0.0,0.0,0.0,0.0,0.0,0.0,0.0,0.0,0.0,0.0,0.0,0.0,0.0,
1.5049,2.379465465990472,2.3178515393106034,2.309427532561337,0.0,0.0,0.0,2.335581512620804,0.0,0.0,0.0,0.0,0.0,0.0,0.0,0.0,0.0,0.0,0.0,0.0,0.0,0.0,
1.5267,2.3799248962812305,2.3182874639948476,2.309835514850031,0.0,0.0,0.0,2.33601595837537,0.0,0.0,0.0,0.0,0.0,0.0,0.0,0.0,0.0,0.0,0.0,0.0,0.0,0.0,
1.5485,2.380391345826361,2.318730055221921,2.310249703113585,0.0,0.0,0.0,2.3364570347206226,0.0,0.0,0.0,0.0,0.0,0.0,0.0,0.0,0.0,0.0,0.0,0.0,0.0,0.0,
1.5703,2.3808648329270268,2.3191793306624184,2.310670112350429,0.0,0.0,0.0,2.3369047586466247,0.0,0.0,0.0,0.0,0.0,0.0,0.0,0.0,0.0,0.0,0.0,0.0,0.0,0.0,
1.5921,2.381345376192294,2.3196353082857897,2.3110967578082615,0.0,0.0,0.0,2.337359147428782,0.0,0.0,0.0,0.0,0.0,0.0,0.0,0.0,0.0,0.0,0.0,0.0,0.0,0.0,
1.6139,2.381832994541307,2.320098006362524,2.3115296549857103,0.0,0.0,0.0,2.337820218629847,0.0,0.0,0.0,0.0,0.0,0.0,0.0,0.0,0.0,0.0,0.0,0.0,0.0,0.0,
1.6357,2.382327707205609,2.3205674434664187,2.311968819633976,0.0,0.0,0.0,2.338287990102001,0.0,0.0,0.0,0.0,0.0,0.0,0.0,0.0,0.0,0.0,0.0,0.0,0.0,0.0,
1.6576,2.382831852109426,2.321045838457958,2.3124163256013297,0.0,0.0,0.0,2.338764672056238,0.0,0.0,0.0,0.0,0.0,0.0,0.0,0.0,0.0,0.0,0.0,0.0,0.0,0.0,
1.6794,2.3833408451296263,2.3215288416945814,2.3128681023997277,0.0,0.0,0.0,2.339245929741312,0.0,0.0,0.0,0.0,0.0,0.0,0.0,0.0,0.0,0.0,0.0,0.0,0.0,0.0,
1.7012,2.3838569921503643,2.322018641612938,2.3133261955320292,0.0,0.0,0.0,2.339733943098444,0.0,0.0,0.0,0.0,0.0,0.0,0.0,0.0,0.0,0.0,0.0,0.0,0.0,0.0,
1.723,2.384380313677466,2.322515258024893,2.313790621778618,0.0,0.0,0.0,2.340228731160326,0.0,0.0,0.0,0.0,0.0,0.0,0.0,0.0,0.0,0.0,0.0,0.0,0.0,0.0,
1.7448,2.3849108305410858,2.323018711057569,2.3142613981814546,0.0,0.0,0.0,2.3407303132600368,0.0,0.0,0.0,0.0,0.0,0.0,0.0,0.0,0.0,0.0,0.0,0.0,0.0,0.0,
1.7666,2.385448563898178,2.3235290211558848,2.3147385420459416,0.0,0.0,0.0,2.341238709033335,0.0,0.0,0.0,0.0,0.0,0.0,0.0,0.0,0.0,0.0,0.0,0.0,0.0,0.0,
1.7884,2.3859935352350625,2.324046209085095,2.3152220709428626,0.0,0.0,0.0,2.341753938421007,0.0,0.0,0.0,0.0,0.0,0.0,0.0,0.0,0.0,0.0,0.0,0.0,0.0,0.0,
1.8102,2.3865457663700544,2.3245702959334507,2.315712002710329,0.0,0.0,0.0,2.342276021671278,0.0,0.0,0.0,0.0,0.0,0.0,0.0,0.0,0.0,0.0,0.0,0.0,0.0,0.0,
1.832,2.3871052794561507,2.3251013031148426,2.3162083554557835,0.0,0.0,0.0,2.342804979342259,0.0,0.0,0.0,0.0,0.0,0.0,0.0,0.0,0.0,0.0,0.0,0.0,0.0,0.0,
1.8538,2.387672096983708,2.3256392523715457,2.316711147557994,0.0,0.0,0.0,2.3433408323044156,0.0,0.0,0.0,0.0,0.0,0.0,0.0,0.0,0.0,0.0,0.0,0.0,0.0,0.0,
1.8757,2.3882488923932694,2.3261866814602294,2.3172227485878083,0.0,0.0,0.0,2.343886107480436,0.0,0.0,0.0,0.0,0.0,0.0,0.0,0.0,0.0,0.0,0.0,0.0,0.0,0.0,
1.8975,2.3888304214097555,2.32673861352241,2.317738505390495,0.0,0.0,0.0,2.3444358467742203,0.0,0.0,0.0,0.0,0.0,0.0,0.0,0.0,0.0,0.0,0.0,0.0,0.0,0.0,
1.9193,2.3894193244996016,2.327297554990099,2.3182607584240644,0.0,0.0,0.0,2.344992545971255,0.0,0.0,0.0,0.0,0.0,0.0,0.0,0.0,0.0,0.0,0.0,0.0,0.0,0.0,
1.9411,2.3900156255324103,2.3278635289489364,2.3187895271750683,0.0,0.0,0.0,2.3455562272188053,0.0,0.0,0.0,0.0,0.0,0.0,0.0,0.0,0.0,0.0,0.0,0.0,0.0,0.0,
1.9629,2.3906193487295067,2.32843655882732,2.319324831412132,0.0,0.0,0.0,2.346126912989653,0.0,0.0,0.0,0.0,0.0,0.0,0.0,0.0,0.0,0.0,0.0,0.0,0.0,0.0,
1.9847,2.39123051866697,2.3290166683994924,2.319866691188201,0.0,0.0,0.0,2.346704626084888,0.0,0.0,0.0,0.0,0.0,0.0,0.0,0.0,0.0,0.0,0.0,0.0,0.0,0.0,
2.0065,2.391849160278695,2.329603881788626,2.320415126842878,0.0,0.0,0.0,2.347289389636733,0.0,0.0,0.0,0.0,0.0,0.0,0.0,0.0,0.0,0.0,0.0,0.0,0.0,0.0,
2.0283,2.392475298859537,2.330198223469953,2.3209701590047134,0.0,0.0,0.0,2.3478812271114013,0.0,0.0,0.0,0.0,0.0,0.0,0.0,0.0,0.0,0.0,0.0,0.0,0.0,0.0,
2.0501,2.393108960068507,2.3307997182740268,2.3215318085936083,0.0,0.0,0.0,2.3484801623120473,0.0,0.0,0.0,0.0,0.0,0.0,0.0,0.0,0.0,0.0,0.0,0.0,0.0,0.0,
2.0719,2.3937501699320043,2.331408391389953,2.3221000968232266,0.0,0.0,0.0,2.349086219381728,0.0,0.0,0.0,0.0,0.0,0.0,0.0,0.0,0.0,0.0,0.0,0.0,0.0,0.0,
2.0938,2.394401948419488,2.3320271101306647,2.3226776979604584,0.0,0.0,0.0,2.3497022521702036,0.0,0.0,0.0,0.0,0.0,0.0,0.0,0.0,0.0,0.0,0.0,0.0,0.0,0.0,
2.1156,2.3950583700904877,2.332650250112996,2.3232593590018196,0.0,0.0,0.0,2.350322659735101,0.0,0.0,0.0,0.0,0.0,0.0,0.0,0.0,0.0,0.0,0.0,0.0,0.0,0.0,
2.1374,2.3957224208584114,2.3332806462809232,2.3238477242144358,0.0,0.0,0.0,2.3509502637845903,0.0,0.0,0.0,0.0,0.0,0.0,0.0,0.0,0.0,0.0,0.0,0.0,0.0,0.0,
2.1592,2.3963941282546735,2.3339183252934363,2.3244428160134536,0.0,0.0,0.0,2.3515850898538546,0.0,0.0,0.0,0.0,0.0,0.0,0.0,0.0,0.0,0.0,0.0,0.0,0.0,0.0,
2.181,2.3970735201952627,2.334563314185371,2.3250446571205594,0.0,0.0,0.0,2.352227163833731,0.0,0.0,0.0,0.0,0.0,0.0,0.0,0.0,0.0,0.0,0.0,0.0,0.0,0.0,
2.2028,2.397760624984301,2.335215640371074,2.325653270566626,0.0,0.0,0.0,2.3528765119740007,0.0,0.0,0.0,0.0,0.0,0.0,0.0,0.0,0.0,0.0,0.0,0.0,0.0,0.0,
2.2246,2.3984554713177513,2.33587533164805,2.3262686796944463,0.0,0.0,0.0,2.3535331608867494,0.0,0.0,0.0,0.0,0.0,0.0,0.0,0.0,0.0,0.0,0.0,0.0,0.0,0.0,
2.2464,2.3991580882871575,2.3365424162008184,2.326890908161498,0.0,0.0,0.0,2.354197137549825,0.0,0.0,0.0,0.0,0.0,0.0,0.0,0.0,0.0,0.0,0.0,0.0,0.0,0.0,
2.2682,2.3998685053834468,2.337216922604692,2.3275199799428137,0.0,0.0,0.0,2.3548684693103175,0.0,0.0,0.0,0.0,0.0,0.0,0.0,0.0,0.0,0.0,0.0,0.0,0.0,0.0,
2.29,2.4005867525007947,2.3378988798297398,2.3281559193337724,0.0,0.0,0.0,2.355547183888102,0.0,0.0,0.0,0.0,0.0,0.0,0.0,0.0,0.0,0.0,0.0,0.0,0.0,0.0,
2.3119,2.401316208866736,2.338591497082442,2.3288017156406378,0.0,0.0,0.0,2.3562364738632717,0.0,0.0,0.0,0.0,0.0,0.0,0.0,0.0,0.0,0.0,0.0,0.0,0.0,0.0,
2.3337,2.4020502436103515,2.3392884789774806,2.3294514962214077,0.0,0.0,0.0,2.356930072936413,0.0,0.0,0.0,0.0,0.0,0.0,0.0,0.0,0.0,0.0,0.0,0.0,0.0,0.0,
2.3555,2.4027922006605973,2.339993001151803,2.330108219366462,0.0,0.0,0.0,2.357631140392954,0.0,0.0,0.0,0.0,0.0,0.0,0.0,0.0,0.0,0.0,0.0,0.0,0.0,0.0,
2.3773,2.4035421115667392,2.3407050941968546,2.3307719106839615,0.0,0.0,0.0,2.3583397054825186,0.0,0.0,0.0,0.0,0.0,0.0,0.0,0.0,0.0,0.0,0.0,0.0,0.0,0.0,
2.3991,2.4043000083017114,2.341424789119471,2.331442596117559,0.0,0.0,0.0,2.359055797846247,0.0,0.0,0.0,0.0,0.0,0.0,0.0,0.0,0.0,0.0,0.0,0.0,0.0,0.0,
2.4209,2.4050659232664438,2.342152117346241,2.3321203019495647,0.0,0.0,0.0,2.35977944752075,0.0,0.0,0.0,0.0,0.0,0.0,0.0,0.0,0.0,0.0,0.0,0.0,0.0,0.0,
2.4427,2.405839889294219,2.3428871107279363,2.3328050548042096,0.0,0.0,0.0,2.360510684942122,0.0,0.0,0.0,0.0,0.0,0.0,0.0,0.0,0.0,0.0,0.0,0.0,0.0,0.0,
2.4645,2.4066219396551576,2.3436298015440373,2.3334968816509214,0.0,0.0,0.0,2.361249540950039,0.0,0.0,0.0,0.0,0.0,0.0,0.0,0.0,0.0,0.0,0.0,0.0,0.0,0.0,
2.4863,2.4074121080607176,2.344380222507323,2.334195809807591,0.0,0.0,0.0,2.361996046791877,0.0,0.0,0.0,0.0,0.0,0.0,0.0,0.0,0.0,0.0,0.0,0.0,0.0,0.0,
2.5081,2.4082104286683212,2.3451384067685224,2.334901866944075,0.0,0.0,0.0,2.362750234126973,0.0,0.0,0.0,0.0,0.0,0.0,0.0,0.0,0.0,0.0,0.0,0.0,0.0,0.0,
2.53,2.409020654578385,2.3459079196131825,2.335618369244111,0.0,0.0,0.0,2.363515647811893,0.0,0.0,0.0,0.0,0.0,0.0,0.0,0.0,0.0,0.0,0.0,0.0,0.0,0.0,
2.5518,2.4098354216662408,2.346681767699069,2.3363388018012285,0.0,0.0,0.0,2.3642853303888463,0.0,0.0,0.0,0.0,0.0,0.0,0.0,0.0,0.0,0.0,0.0,0.0,0.0,0.0,
2.5736,2.4106584463155243,2.3474634813702497,2.337066448626734,0.0,0.0,0.0,2.3650627921041694,0.0,0.0,0.0,0.0,0.0,0.0,0.0,0.0,0.0,0.0,0.0,0.0,0.0,0.0,
2.5954,2.411489764517407,2.3482530955799255,2.337801338834931,0.0,0.0,0.0,2.3658480663107544,0.0,0.0,0.0,0.0,0.0,0.0,0.0,0.0,0.0,0.0,0.0,0.0,0.0,0.0,
2.6172,2.412329412733313,2.3490506457439944,2.3385435019099536,0.0,0.0,0.0,2.3666411867957535,0.0,0.0,0.0,0.0,0.0,0.0,0.0,0.0,0.0,0.0,0.0,0.0,0.0,0.0,
2.639,2.413177427900097,2.349856167746202,2.339292967709459,0.0,0.0,0.0,2.3674421877852527,0.0,0.0,0.0,0.0,0.0,0.0,0.0,0.0,0.0,0.0,0.0,0.0,0.0,0.0,
2.6608,2.4140338474352063,2.3506696979434976,2.3400497664684643,0.0,0.0,0.0,2.368251103949056,0.0,0.0,0.0,0.0,0.0,0.0,0.0,0.0,0.0,0.0,0.0,0.0,0.0,0.0,
2.6826,2.414898709241996,2.351491273171374,2.340813928803256,0.0,0.0,0.0,2.369067970405542,0.0,0.0,0.0,0.0,0.0,0.0,0.0,0.0,0.0,0.0,0.0,0.0,0.0,0.0,
2.7044,2.4157720517151473,2.352320930749423,2.341585485715316,0.0,0.0,0.0,2.3698928227266287,0.0,0.0,0.0,0.0,0.0,0.0,0.0,0.0,0.0,0.0,0.0,0.0,0.0,0.0,
2.7262,2.4166539137461127,2.353158708486867,2.342364468595342,0.0,0.0,0.0,2.370725696942774,0.0,0.0,0.0,0.0,0.0,0.0,0.0,0.0,0.0,0.0,0.0,0.0,0.0,0.0,
2.748,2.417544334728736,2.3540046446882963,2.343150909227313,0.0,0.0,0.0,2.371566629548115,0.0,0.0,0.0,0.0,0.0,0.0,0.0,0.0,0.0,0.0,0.0,0.0,0.0,0.0,
2.7699,2.418447498383755,2.354862715150554,2.343948498983592,0.0,0.0,0.0,2.3724195708393,0.0,0.0,0.0,0.0,0.0,0.0,0.0,0.0,0.0,0.0,0.0,0.0,0.0,0.0,
2.7917,2.419355197212852,2.3557251230780794,2.344749986648181,0.0,0.0,0.0,2.373276768979704,0.0,0.0,0.0,0.0,0.0,0.0,0.0,0.0,0.0,0.0,0.0,0.0,0.0,0.0,
2.8135,2.420271576435753,2.3565958075978655,2.3455590299706937,0.0,0.0,0.0,2.3741421380014374,0.0,0.0,0.0,0.0,0.0,0.0,0.0,0.0,0.0,0.0,0.0,0.0,0.0,0.0,
2.8353,2.421196677516095,2.3574748090573383,2.346375662352475,0.0,0.0,0.0,2.3750157163086363,0.0,0.0,0.0,0.0,0.0,0.0,0.0,0.0,0.0,0.0,0.0,0.0,0.0,0.0,
