energies(eV),real_xx,real_yy,real_zz,real_xy,real_yz,real_xz,real_ave,imag_xx,imag_yy,imag_zz,imag_xy,imag_yz,imag_xz,imag_ave,absorption_xx,absorption_yy,absorption_zz,absorption_xy,absorption_yz,absorption_xz,absorption_ave,band_gap
0.0,3.0941816730676006,3.3663183744162364,3.2791105960489153,0.0,0.0,0.0,3.2465368811775845,0.0,0.0,0.0,0.0,0.0,0.0,0.0,0.0,0.0,0.0,0.0,0.0,0.0,0.0,4.8295
0.0146,3.094186157576133,3.3663247906256326,3.279116188502903,0.0,0.0,0.0,3.2465423789015566,0.0,0.0,0.0,0.0,0.0,0.0,0.0,0.0,0.0,0.0,0.0,0.0,0.0,0.0,
0.0291,3.0941994886048745,3.3663438640930132,3.2791328131475406,0.0,0.0,0.0,3.2465587219484764,0.0,0.0,0.0,0.0,0.0,0.0,0.0,0.0,0.0,0.0,0.0,0.0,0.0,0.0,
0.0437,3.094221850501833,3.3663758588828814,3.2791607000088625,0.0,0.0,0.0,3.2465861364645257,0.0,0.0,0.0,0.0,0.0,0.0,0.0,0.0,0.0,0.0,0.0,0.0,0.0,0.0,
0.0583,3.0942531828360855,3.366420689048422,3.2791997739473686,0.0,0.0,0.0,3.2466245486106255,0.0,0.0,0.0,0.0,0.0,0.0,0.0,0.0,0.0,0.0,0.0,0.0,0.0,0.0,
0.0728,3.094293180144272,3.3664779182407782,3.279249654329937,0.0,0.0,0.0,3.2466735842383287,0.0,0.0,0.0,0.0,0.0,0.0,0.0,0.0,0.0,0.0,0.0,0.0,0.0,0.0,
0.0874,3.094342395529137,3.366548338776146,3.2793110313244185,0.0,0.0,0.0,3.2467339218765674,0.0,0.0,0.0,0.0,0.0,0.0,0.0,0.0,0.0,0.0,0.0,0.0,0.0,0.0,
0.102,3.094400585613329,3.3666316035620145,3.279383601906343,0.0,0.0,0.0,3.2468052636938953,0.0,0.0,0.0,0.0,0.0,0.0,0.0,0.0,0.0,0.0,0.0,0.0,0.0,0.0,
0.1165,3.0944672618709133,3.3667270148626023,3.279466757380424,0.0,0.0,0.0,3.2468870113713133,0.0,0.0,0.0,0.0,0.0,0.0,0.0,0.0,0.0,0.0,0.0,0.0,0.0,0.0,
0.1311,3.094543346335501,3.3668358936138536,3.2795616483258105,0.0,0.0,0.0,3.246980296091722,0.0,0.0,0.0,0.0,0.0,0.0,0.0,0.0,0.0,0.0,0.0,0.0,0.0,0.0,
0.1457,3.094628412607285,3.366957631421177,3.279667743717654,0.0,0.0,0.0,3.247084595915372,0.0,0.0,0.0,0.0,0.0,0.0,0.0,0.0,0.0,0.0,0.0,0.0,0.0,0.0,
0.1602,3.0947217889442706,3.367091268844018,3.2797842065646345,0.0,0.0,0.0,3.2471990881176414,0.0,0.0,0.0,0.0,0.0,0.0,0.0,0.0,0.0,0.0,0.0,0.0,0.0,0.0,
0.1748,3.094824766604592,3.3672386560522654,3.279912648306787,0.0,0.0,0.0,3.2473253569878815,0.0,0.0,0.0,0.0,0.0,0.0,0.0,0.0,0.0,0.0,0.0,0.0,0.0,0.0,
0.1894,3.094936736032659,3.367398923074023,3.280052309715961,0.0,0.0,0.0,3.247462656274214,0.0,0.0,0.0,0.0,0.0,0.0,0.0,0.0,0.0,0.0,0.0,0.0,0.0,0.0,
0.2039,3.095056842059206,3.3675708483269955,3.2802021251832976,0.0,0.0,0.0,3.247609938523166,0.0,0.0,0.0,0.0,0.0,0.0,0.0,0.0,0.0,0.0,0.0,0.0,0.0,0.0,
0.2185,3.095186745578521,3.367756812076021,3.2803641676397723,0.0,0.0,0.0,3.2477692417647717,0.0,0.0,0.0,0.0,0.0,0.0,0.0,0.0,0.0,0.0,0.0,0.0,0.0,0.0,
0.2331,3.0953256536882083,3.3679556823777026,3.2805374493635213,0.0,0.0,0.0,3.2479395951431442,0.0,0.0,0.0,0.0,0.0,0.0,0.0,0.0,0.0,0.0,0.0,0.0,0.0,0.0,
0.2476,3.0954725275229125,3.368165974951083,3.2807206757183907,0.0,0.0,0.0,3.248119726064129,0.0,0.0,0.0,0.0,0.0,0.0,0.0,0.0,0.0,0.0,0.0,0.0,0.0,0.0,
0.2622,3.0956293981428566,3.3683906012651685,3.280916381937741,0.0,0.0,0.0,3.2483121271152555,0.0,0.0,0.0,0.0,0.0,0.0,0.0,0.0,0.0,0.0,0.0,0.0,0.0,0.0,
0.2768,3.0957952890501743,3.3686281668911504,3.281123351427513,0.0,0.0,0.0,3.2485156024562793,0.0,0.0,0.0,0.0,0.0,0.0,0.0,0.0,0.0,0.0,0.0,0.0,0.0,0.0,
0.2913,3.0959689773564243,3.368876924171925,3.2813400600260083,0.0,0.0,0.0,3.2487286538514524,0.0,0.0,0.0,0.0,0.0,0.0,0.0,0.0,0.0,0.0,0.0,0.0,0.0,0.0,
0.3059,3.0961528649364065,3.3691403171395966,3.2815695062626946,0.0,0.0,0.0,3.2489542294462326,0.0,0.0,0.0,0.0,0.0,0.0,0.0,0.0,0.0,0.0,0.0,0.0,0.0,0.0,
0.3205,3.0963457913901946,3.3694166882457544,3.2818102442044546,0.0,0.0,0.0,3.249190907946801,0.0,0.0,0.0,0.0,0.0,0.0,0.0,0.0,0.0,0.0,0.0,0.0,0.0,0.0,
0.335,3.096546349420867,3.3697040256579887,3.282060519576557,0.0,0.0,0.0,3.249436964885138,0.0,0.0,0.0,0.0,0.0,0.0,0.0,0.0,0.0,0.0,0.0,0.0,0.0,0.0,
0.3496,3.096757312485851,3.3700063075821842,3.2823237953817967,0.0,0.0,0.0,3.249695805149944,0.0,0.0,0.0,0.0,0.0,0.0,0.0,0.0,0.0,0.0,0.0,0.0,0.0,0.0,
0.3642,3.096977335918281,3.3703216125949846,3.282598395792187,0.0,0.0,0.0,3.249965781435151,0.0,0.0,0.0,0.0,0.0,0.0,0.0,0.0,0.0,0.0,0.0,0.0,0.0,0.0,
0.3787,3.097204827568701,3.3706476637667255,3.282882335742679,0.0,0.0,0.0,3.2502449423593682,0.0,0.0,0.0,0.0,0.0,0.0,0.0,0.0,0.0,0.0,0.0,0.0,0.0,0.0,
0.3933,3.0974429333653424,3.37098897534193,3.2831795440714306,0.0,0.0,0.0,3.250537150926234,0.0,0.0,0.0,0.0,0.0,0.0,0.0,0.0,0.0,0.0,0.0,0.0,0.0,0.0,
0.4079,3.097690123950944,3.3713433611445325,3.283488114410252,0.0,0.0,0.0,3.250840533168576,0.0,0.0,0.0,0.0,0.0,0.0,0.0,0.0,0.0,0.0,0.0,0.0,0.0,0.0,
0.4224,3.097944621820331,3.371708278101727,3.283805830135719,0.0,0.0,0.0,3.251152910019259,0.0,0.0,0.0,0.0,0.0,0.0,0.0,0.0,0.0,0.0,0.0,0.0,0.0,0.0,
0.437,3.0982099463816852,3.3720887786182785,3.2841370874700893,0.0,0.0,0.0,3.2514786041566843,0.0,0.0,0.0,0.0,0.0,0.0,0.0,0.0,0.0,0.0,0.0,0.0,0.0,0.0,
0.4516,3.098484383104952,3.3724824107642646,3.2844797487691686,0.0,0.0,0.0,3.251815514212795,0.0,0.0,0.0,0.0,0.0,0.0,0.0,0.0,0.0,0.0,0.0,0.0,0.0,0.0,
0.4661,3.098765968566375,3.3728863641522047,3.284831364991665,0.0,0.0,0.0,3.2521612325700815,0.0,0.0,0.0,0.0,0.0,0.0,0.0,0.0,0.0,0.0,0.0,0.0,0.0,0.0,
0.4807,3.099058596785298,3.373306231728798,3.2851968014809807,0.0,0.0,0.0,3.2525205433316917,0.0,0.0,0.0,0.0,0.0,0.0,0.0,0.0,0.0,0.0,0.0,0.0,0.0,0.0,
0.4952,3.0993582694743895,3.373736283568323,3.2855710680894274,0.0,0.0,0.0,3.25288854037738,0.0,0.0,0.0,0.0,0.0,0.0,0.0,0.0,0.0,0.0,0.0,0.0,0.0,0.0,
0.5098,3.099669130796075,3.374182474017155,3.285959343607374,0.0,0.0,0.0,3.2532703161402012,0.0,0.0,0.0,0.0,0.0,0.0,0.0,0.0,0.0,0.0,0.0,0.0,0.0,0.0,
0.5244,3.09998915650738,3.374641905861873,3.286359103225356,0.0,0.0,0.0,3.2536633885315367,0.0,0.0,0.0,0.0,0.0,0.0,0.0,0.0,0.0,0.0,0.0,0.0,0.0,0.0,
0.5389,3.100316072048784,3.3751113204472114,3.286767508555751,0.0,0.0,0.0,3.2540649670172486,0.0,0.0,0.0,0.0,0.0,0.0,0.0,0.0,0.0,0.0,0.0,0.0,0.0,0.0,
0.5535,3.100654398352233,3.3755972172160584,3.287190210828271,0.0,0.0,0.0,3.254480608798854,0.0,0.0,0.0,0.0,0.0,0.0,0.0,0.0,0.0,0.0,0.0,0.0,0.0,0.0,
0.5681,3.1010019244239504,3.376096429917031,3.287624451547652,0.0,0.0,0.0,3.2549076019628775,0.0,0.0,0.0,0.0,0.0,0.0,0.0,0.0,0.0,0.0,0.0,0.0,0.0,0.0,
0.5826,3.1013561879897695,3.3766054288304295,3.2880671571613362,0.0,0.0,0.0,3.255342924660512,0.0,0.0,0.0,0.0,0.0,0.0,0.0,0.0,0.0,0.0,0.0,0.0,0.0,0.0,
0.5972,3.1017220882133243,3.377131261588757,3.288524453588825,0.0,0.0,0.0,3.2557926011303024,0.0,0.0,0.0,0.0,0.0,0.0,0.0,0.0,0.0,0.0,0.0,0.0,0.0,0.0,
0.6118,3.1020972266470235,3.377670491435094,3.2889933475738786,0.0,0.0,0.0,3.2562536885519986,0.0,0.0,0.0,0.0,0.0,0.0,0.0,0.0,0.0,0.0,0.0,0.0,0.0,0.0,
0.6263,3.1024789525156415,3.378219315937892,3.2894705291942037,0.0,0.0,0.0,3.256722932549246,0.0,0.0,0.0,0.0,0.0,0.0,0.0,0.0,0.0,0.0,0.0,0.0,0.0,0.0,
0.6409,3.1028725448032595,3.3787853342872634,3.2899626015069927,0.0,0.0,0.0,3.2572068268658385,0.0,0.0,0.0,0.0,0.0,0.0,0.0,0.0,0.0,0.0,0.0,0.0,0.0,0.0,
0.6555,3.1032754168438728,3.379364837621443,3.29046633532448,0.0,0.0,0.0,3.2577021965965987,0.0,0.0,0.0,0.0,0.0,0.0,0.0,0.0,0.0,0.0,0.0,0.0,0.0,0.0,
0.67,3.103684728512112,3.379953749014581,3.2909781830525584,0.0,0.0,0.0,3.2582055535264174,0.0,0.0,0.0,0.0,0.0,0.0,0.0,0.0,0.0,0.0,0.0,0.0,0.0,0.0,
0.6846,3.1041061403295216,3.3805602228624836,3.2915052275344108,0.0,0.0,0.0,3.2587238635754723,0.0,0.0,0.0,0.0,0.0,0.0,0.0,0.0,0.0,0.0,0.0,0.0,0.0,0.0,
0.6992,3.104536876584742,3.3811802764651744,3.29204400238348,0.0,0.0,0.0,3.2592537184777988,0.0,0.0,0.0,0.0,0.0,0.0,0.0,0.0,0.0,0.0,0.0,0.0,0.0,0.0,
0.7137,3.104973906889692,3.3818095564824127,3.292590720932891,0.0,0.0,0.0,3.2597913947683317,0.0,0.0,0.0,0.0,0.0,0.0,0.0,0.0,0.0,0.0,0.0,0.0,0.0,0.0,
0.7283,3.1054232751503905,3.3824567764493865,3.2931529486638356,0.0,0.0,0.0,3.260344333421204,0.0,0.0,0.0,0.0,0.0,0.0,0.0,0.0,0.0,0.0,0.0,0.0,0.0,0.0,
0.7429,3.10588201571994,3.3831176779579817,3.293726980625487,0.0,0.0,0.0,3.2609088914344695,0.0,0.0,0.0,0.0,0.0,0.0,0.0,0.0,0.0,0.0,0.0,0.0,0.0,0.0,
0.7574,3.1063469069707335,3.383787629192964,3.294308789576599,0.0,0.0,0.0,3.261481108580099,0.0,0.0,0.0,0.0,0.0,0.0,0.0,0.0,0.0,0.0,0.0,0.0,0.0,0.0,
0.772,3.106824378171975,3.3844759070542785,3.2949064266958117,0.0,0.0,0.0,3.262068903974022,0.0,0.0,0.0,0.0,0.0,0.0,0.0,0.0,0.0,0.0,0.0,0.0,0.0,0.0,
0.7866,3.107311272787106,3.385177975416373,3.2955159470025186,0.0,0.0,0.0,3.262668398401999,0.0,0.0,0.0,0.0,0.0,0.0,0.0,0.0,0.0,0.0,0.0,0.0,0.0,0.0,
0.8011,3.107804176906827,3.3858889217849395,3.29613308107719,0.0,0.0,0.0,3.2632753932563188,0.0,0.0,0.0,0.0,0.0,0.0,0.0,0.0,0.0,0.0,0.0,0.0,0.0,0.0,
0.8157,3.1083099072759968,3.38661859094822,3.2967663690664533,0.0,0.0,0.0,3.26389828909689,0.0,0.0,0.0,0.0,0.0,0.0,0.0,0.0,0.0,0.0,0.0,0.0,0.0,0.0,
0.8303,3.108825115449404,3.3873621669116285,3.297411624392812,0.0,0.0,0.0,3.264532968917948,0.0,0.0,0.0,0.0,0.0,0.0,0.0,0.0,0.0,0.0,0.0,0.0,0.0,0.0,
0.8448,3.1093461941274882,3.388114454150821,3.2980643337500584,0.0,0.0,0.0,3.265174994009456,0.0,0.0,0.0,0.0,0.0,0.0,0.0,0.0,0.0,0.0,0.0,0.0,0.0,0.0,
0.8594,3.109880349779245,3.388885870171189,3.2987335297387435,0.0,0.0,0.0,3.2658332498963927,0.0,0.0,0.0,0.0,0.0,0.0,0.0,0.0,0.0,0.0,0.0,0.0,0.0,0.0,
0.874,3.1104240409657677,3.389671316811971,3.2994147825137334,0.0,0.0,0.0,3.2665033800971575,0.0,0.0,0.0,0.0,0.0,0.0,0.0,0.0,0.0,0.0,0.0,0.0,0.0,0.0,
0.8885,3.1109734658212846,3.3904653130174482,3.3001033330672427,0.0,0.0,0.0,3.2671807039686587,0.0,0.0,0.0,0.0,0.0,0.0,0.0,0.0,0.0,0.0,0.0,0.0,0.0,0.0,
0.9031,3.111536222925594,3.3912788541518526,3.300808710159557,0.0,0.0,0.0,3.2678745957456683,0.0,0.0,0.0,0.0,0.0,0.0,0.0,0.0,0.0,0.0,0.0,0.0,0.0,0.0,
0.9177,3.1121085766940744,3.3921065574421156,3.3015262389014253,0.0,0.0,0.0,3.2685804576792052,0.0,0.0,0.0,0.0,0.0,0.0,0.0,0.0,0.0,0.0,0.0,0.0,0.0,0.0,
0.9322,3.1126865294501913,3.3929426536456044,3.3022509126597948,0.0,0.0,0.0,3.269293365251863,0.0,0.0,0.0,0.0,0.0,0.0,0.0,0.0,0.0,0.0,0.0,0.0,0.0,0.0,
0.9468,3.113278074411837,3.3937987214481096,3.302992760285148,0.0,0.0,0.0,3.270023185381698,0.0,0.0,0.0,0.0,0.0,0.0,0.0,0.0,0.0,0.0,0.0,0.0,0.0,0.0,
0.9614,3.113879280628504,3.394669090865484,3.3037468599596975,0.0,0.0,0.0,3.2707650771512284,0.0,0.0,0.0,0.0,0.0,0.0,0.0,0.0,0.0,0.0,0.0,0.0,0.0,0.0,
0.9759,3.1144859532984923,3.395547701654257,3.304507955390331,0.0,0.0,0.0,3.2715138701143602,0.0,0.0,0.0,0.0,0.0,0.0,0.0,0.0,0.0,0.0,0.0,0.0,0.0,0.0,
0.9905,3.1151064829483643,3.396446721614411,3.305286579677834,0.0,0.0,0.0,3.2722799280802026,0.0,0.0,0.0,0.0,0.0,0.0,0.0,0.0,0.0,0.0,0.0,0.0,0.0,0.0,
1.0051,3.1157367419721753,3.3973601907952133,3.3060775620812937,0.0,0.0,0.0,3.2730581649495605,0.0,0.0,0.0,0.0,0.0,0.0,0.0,0.0,0.0,0.0,0.0,0.0,0.0,0.0,
1.0196,3.116372337057435,3.3982817549757893,3.3068753944988014,0.0,0.0,0.0,3.2738431621773416,0.0,0.0,0.0,0.0,0.0,0.0,0.0,0.0,0.0,0.0,0.0,0.0,0.0,0.0,
1.0342,3.1170220588560777,3.399224177202087,3.30769111867696,0.0,0.0,0.0,3.2746457849117085,0.0,0.0,0.0,0.0,0.0,0.0,0.0,0.0,0.0,0.0,0.0,0.0,0.0,0.0,
1.0488,3.117681581746392,3.4001812046404227,3.3085193128442887,0.0,0.0,0.0,3.2754606997437015,0.0,0.0,0.0,0.0,0.0,0.0,0.0,0.0,0.0,0.0,0.0,0.0,0.0,0.0,
1.0633,3.1183463124470006,3.401146185948502,3.309354214824838,0.0,0.0,0.0,3.2762822377401135,0.0,0.0,0.0,0.0,0.0,0.0,0.0,0.0,0.0,0.0,0.0,0.0,0.0,0.0,
1.0779,3.1190254447007626,3.4021324858994078,3.3102073796475393,0.0,0.0,0.0,3.2771217700825694,0.0,0.0,0.0,0.0,0.0,0.0,0.0,0.0,0.0,0.0,0.0,0.0,0.0,0.0,
1.0925,3.119714453437985,3.403133555694508,3.311073132287456,0.0,0.0,0.0,3.27797371380665,0.0,0.0,0.0,0.0,0.0,0.0,0.0,0.0,0.0,0.0,0.0,0.0,0.0,0.0,
1.107,3.120408543876021,3.4041424435538086,3.311945454109842,0.0,0.0,0.0,3.278832147179891,0.0,0.0,0.0,0.0,0.0,0.0,0.0,0.0,0.0,0.0,0.0,0.0,0.0,0.0,
1.1216,3.121117315966538,3.405173122818718,3.312836418309859,0.0,0.0,0.0,3.2797089523650382,0.0,0.0,0.0,0.0,0.0,0.0,0.0,0.0,0.0,0.0,0.0,0.0,0.0,0.0,
1.1362,3.1218360436860064,3.406218745473408,3.313740094267844,0.0,0.0,0.0,3.280598294475753,0.0,0.0,0.0,0.0,0.0,0.0,0.0,0.0,0.0,0.0,0.0,0.0,0.0,0.0,
1.1507,3.122559729142522,3.4072720558060183,3.314650204382892,0.0,0.0,0.0,3.2814939964438103,0.0,0.0,0.0,0.0,0.0,0.0,0.0,0.0,0.0,0.0,0.0,0.0,0.0,0.0,
1.1653,3.1232983817698625,3.4083476429390838,3.3155793451542404,0.0,0.0,0.0,3.2824084566210625,0.0,0.0,0.0,0.0,0.0,0.0,0.0,0.0,0.0,0.0,0.0,0.0,0.0,0.0,
1.1799,3.1240470730096956,3.4094383562117208,3.3165213279047845,0.0,0.0,0.0,3.2833355857087336,0.0,0.0,0.0,0.0,0.0,0.0,0.0,0.0,0.0,0.0,0.0,0.0,0.0,0.0,
1.1944,3.1248006001756172,3.4105366323027706,3.317469613434257,0.0,0.0,0.0,3.2842689486375485,0.0,0.0,0.0,0.0,0.0,0.0,0.0,0.0,0.0,0.0,0.0,0.0,0.0,0.0,
1.209,3.1255693856156808,3.411657683712499,3.3184373269447227,0.0,0.0,0.0,3.2852214654243013,0.0,0.0,0.0,0.0,0.0,0.0,0.0,0.0,0.0,0.0,0.0,0.0,0.0,0.0,
1.2236,3.1263482965792546,3.4127940535259507,3.3194180191144222,0.0,0.0,0.0,3.286186789739876,0.0,0.0,0.0,0.0,0.0,0.0,0.0,0.0,0.0,0.0,0.0,0.0,0.0,0.0,
1.2381,3.1271319238207984,3.413937866945798,3.320404886380943,0.0,0.0,0.0,3.2871582257158463,0.0,0.0,0.0,0.0,0.0,0.0,0.0,0.0,0.0,0.0,0.0,0.0,0.0,0.0,
1.2527,3.1279311061978405,3.415104967843556,3.321411588316507,0.0,0.0,0.0,3.288149220785968,0.0,0.0,0.0,0.0,0.0,0.0,0.0,0.0,0.0,0.0,0.0,0.0,0.0,0.0,
1.2673,3.128740505031212,3.416287589254263,3.3224314122393364,0.0,0.0,0.0,3.289153168841604,0.0,0.0,0.0,0.0,0.0,0.0,0.0,0.0,0.0,0.0,0.0,0.0,0.0,0.0,
1.2818,3.129554502670799,3.417477540841551,3.323457287328992,0.0,0.0,0.0,3.290163110280447,0.0,0.0,0.0,0.0,0.0,0.0,0.0,0.0,0.0,0.0,0.0,0.0,0.0,0.0,
1.2964,3.1303843582453013,3.418691306252645,3.324503413471599,0.0,0.0,0.0,3.2911930259898483,0.0,0.0,0.0,0.0,0.0,0.0,0.0,0.0,0.0,0.0,0.0,0.0,0.0,0.0,
1.311,3.131224525330619,3.4199208044833505,3.325562811778294,0.0,0.0,0.0,3.2922360471974215,0.0,0.0,0.0,0.0,0.0,0.0,0.0,0.0,0.0,0.0,0.0,0.0,0.0,0.0,
1.3255,3.1320691759435637,3.421157525392583,3.3266281411375846,0.0,0.0,0.0,3.293284947491244,0.0,0.0,0.0,0.0,0.0,0.0,0.0,0.0,0.0,0.0,0.0,0.0,0.0,0.0,
1.3401,3.132929993416563,3.4224186012335926,3.327714147978085,0.0,0.0,0.0,3.294354247542747,0.0,0.0,0.0,0.0,0.0,0.0,0.0,0.0,0.0,0.0,0.0,0.0,0.0,0.0,
1.3547,3.1338012216819826,3.42369563277367,3.3288135842212765,0.0,0.0,0.0,3.29543681289231,0.0,0.0,0.0,0.0,0.0,0.0,0.0,0.0,0.0,0.0,0.0,0.0,0.0,0.0,
1.3692,3.1346768204098843,3.4249797855913497,3.329918835290204,0.0,0.0,0.0,3.296525147097146,0.0,0.0,0.0,0.0,0.0,0.0,0.0,0.0,0.0,0.0,0.0,0.0,0.0,0.0,
1.3838,3.135568901244372,3.4262888498177824,3.3310452006784965,0.0,0.0,0.0,3.297634317246884,0.0,0.0,0.0,0.0,0.0,0.0,0.0,0.0,0.0,0.0,0.0,0.0,0.0,0.0,
1.3984,3.136471496491274,3.4276141035954897,3.3321851599956203,0.0,0.0,0.0,3.2987569200274613,0.0,0.0,0.0,0.0,0.0,0.0,0.0,0.0,0.0,0.0,0.0,0.0,0.0,0.0,
1.4129,3.1373783513729894,3.4289463835289355,3.3333308218790982,0.0,0.0,0.0,3.299885185593675,0.0,0.0,0.0,0.0,0.0,0.0,0.0,0.0,0.0,0.0,0.0,0.0,0.0,0.0,
1.4275,3.13830201013311,3.4303041473578078,3.334498045713286,0.0,0.0,0.0,3.301034734401401,0.0,0.0,0.0,0.0,0.0,0.0,0.0,0.0,0.0,0.0,0.0,0.0,0.0,0.0,
1.442,3.139229855982077,3.4316688775809916,3.3356708996039033,0.0,0.0,0.0,3.302189877722324,0.0,0.0,0.0,0.0,0.0,0.0,0.0,0.0,0.0,0.0,0.0,0.0,0.0,0.0,
1.4566,3.1401747237023714,3.433059482132565,3.336865619708837,0.0,0.0,0.0,3.3033666085145907,0.0,0.0,0.0,0.0,0.0,0.0,0.0,0.0,0.0,0.0,0.0,0.0,0.0,0.0,
1.4712,3.1411302884114427,3.4344666913445194,3.338074224665877,0.0,0.0,0.0,3.3045570681406136,0.0,0.0,0.0,0.0,0.0,0.0,0.0,0.0,0.0,0.0,0.0,0.0,0.0,0.0,
1.4857,3.142089933172864,3.43588078274235,3.339288354231374,0.0,0.0,0.0,3.3057530233821963,0.0,0.0,0.0,0.0,0.0,0.0,0.0,0.0,0.0,0.0,0.0,0.0,0.0,0.0,
1.5003,3.1430669329247944,3.4373213491465213,3.3405248165262327,0.0,0.0,0.0,3.3069710328658495,0.0,0.0,0.0,0.0,0.0,0.0,0.0,0.0,0.0,0.0,0.0,0.0,0.0,0.0,
1.5149,3.144054745443002,3.4387787854729153,3.341775348836305,0.0,0.0,0.0,3.3082029599174074,0.0,0.0,0.0,0.0,0.0,0.0,0.0,0.0,0.0,0.0,0.0,0.0,0.0,0.0,
1.5294,3.145046533297768,3.4402430266311756,3.3430313045323947,0.0,0.0,0.0,3.309440288153779,0.0,0.0,0.0,0.0,0.0,0.0,0.0,0.0,0.0,0.0,0.0,0.0,0.0,0.0,
1.544,3.146056016375193,3.4417343613726903,3.344310071383759,0.0,0.0,0.0,3.3107001497105473,0.0,0.0,0.0,0.0,0.0,0.0,0.0,0.0,0.0,0.0,0.0,0.0,0.0,0.0,
1.5586,3.1470764327980203,3.4432428439730867,3.3456031016509185,0.0,0.0,0.0,3.3119741261406745,0.0,0.0,0.0,0.0,0.0,0.0,0.0,0.0,0.0,0.0,0.0,0.0,0.0,0.0,
1.5731,3.148100722201262,3.444758061159037,3.3469014584222836,0.0,0.0,0.0,3.313253413927528,0.0,0.0,0.0,0.0,0.0,0.0,0.0,0.0,0.0,0.0,0.0,0.0,0.0,0.0,
1.5877,3.1491430544106556,3.4463010091880535,3.348223117144165,0.0,0.0,0.0,3.3145557269142913,0.0,0.0,0.0,0.0,0.0,0.0,0.0,0.0,0.0,0.0,0.0,0.0,0.0,0.0,
1.6023,3.150196445489028,3.447861396224563,3.3495592412161637,0.0,0.0,0.0,3.3158723609765848,0.0,0.0,0.0,0.0,0.0,0.0,0.0,0.0,0.0,0.0,0.0,0.0,0.0,0.0,
1.6168,3.1512536095949115,3.449428454983849,3.3509005993772774,0.0,0.0,0.0,3.3171942213186796,0.0,0.0,0.0,0.0,0.0,0.0,0.0,0.0,0.0,0.0,0.0,0.0,0.0,0.0,
1.6314,3.152329171690665,3.451023901358233,3.352265763135322,0.0,0.0,0.0,3.3185396120614072,0.0,0.0,0.0,0.0,0.0,0.0,0.0,0.0,0.0,0.0,0.0,0.0,0.0,0.0,
1.646,3.1534159232741237,3.452637091673074,3.3536456030255404,0.0,0.0,0.0,3.3198995393242465,0.0,0.0,0.0,0.0,0.0,0.0,0.0,0.0,0.0,0.0,0.0,0.0,0.0,0.0,
1.6605,3.1545063503837683,3.4542568985316517,3.3550305891940897,0.0,0.0,0.0,3.3212646127031697,0.0,0.0,0.0,0.0,0.0,0.0,0.0,0.0,0.0,0.0,0.0,0.0,0.0,0.0,
1.6751,3.155615538527294,3.4559057701674942,3.3564398979639276,0.0,0.0,0.0,3.322653735552905,0.0,0.0,0.0,0.0,0.0,0.0,0.0,0.0,0.0,0.0,0.0,0.0,0.0,0.0,
1.6897,3.1567360520312735,3.457572705071399,3.3578641028285574,0.0,0.0,0.0,3.324057619977077,0.0,0.0,0.0,0.0,0.0,0.0,0.0,0.0,0.0,0.0,0.0,0.0,0.0,0.0,
1.7042,3.157860146065208,3.4592462093497907,3.359293370915165,0.0,0.0,0.0,3.3254665754433876,0.0,0.0,0.0,0.0,0.0,0.0,0.0,0.0,0.0,0.0,0.0,0.0,0.0,0.0,
1.7188,3.159003372309071,3.460949476887731,3.360747492498443,0.0,0.0,0.0,3.3269001138984144,0.0,0.0,0.0,0.0,0.0,0.0,0.0,0.0,0.0,0.0,0.0,0.0,0.0,0.0,
1.7334,3.1601580652077614,3.462671142066725,3.3622167396726663,0.0,0.0,0.0,3.3283486489823844,0.0,0.0,0.0,0.0,0.0,0.0,0.0,0.0,0.0,0.0,0.0,0.0,0.0,0.0,
1.7479,3.1613162462040907,3.464399337815001,3.3636909719300556,0.0,0.0,0.0,3.329802185316383,0.0,0.0,0.0,0.0,0.0,0.0,0.0,0.0,0.0,0.0,0.0,0.0,0.0,0.0,
1.7625,3.162493939002633,3.4661580176107063,3.3651906030317953,0.0,0.0,0.0,3.331280853215045,0.0,0.0,0.0,0.0,0.0,0.0,0.0,0.0,0.0,0.0,0.0,0.0,0.0,0.0,
1.7771,3.1636832453487584,3.4679354451601454,3.3667055991283967,0.0,0.0,0.0,3.332774763212434,0.0,0.0,0.0,0.0,0.0,0.0,0.0,0.0,0.0,0.0,0.0,0.0,0.0,0.0,
1.7916,3.164875949988657,3.4697193732219733,3.3682255072642167,0.0,0.0,0.0,3.3342736101582826,0.0,0.0,0.0,0.0,0.0,0.0,0.0,0.0,0.0,0.0,0.0,0.0,0.0,0.0,
1.8062,3.1660885547366338,3.4715345294700066,3.369771374635416,0.0,0.0,0.0,3.3357981529473526,0.0,0.0,0.0,0.0,0.0,0.0,0.0,0.0,0.0,0.0,0.0,0.0,0.0,0.0,
1.8208,3.167312925709765,3.4733688000650855,3.371332856710266,0.0,0.0,0.0,3.3373381941617057,0.0,0.0,0.0,0.0,0.0,0.0,0.0,0.0,0.0,0.0,0.0,0.0,0.0,0.0,
1.8353,3.168540607871785,3.475209550280773,3.3728991830674797,0.0,0.0,0.0,3.3388831137400126,0.0,0.0,0.0,0.0,0.0,0.0,0.0,0.0,0.0,0.0,0.0,0.0,0.0,0.0,
1.8499,3.1697885874724636,3.477082297281685,3.3744920447173903,0.0,0.0,0.0,3.3404543098238464,0.0,0.0,0.0,0.0,0.0,0.0,0.0,0.0,0.0,0.0,0.0,0.0,0.0,0.0,
1.8645,3.17104849195744,3.4789745424947305,3.3761007815059028,0.0,0.0,0.0,3.3420412719860244,0.0,0.0,0.0,0.0,0.0,0.0,0.0,0.0,0.0,0.0,0.0,0.0,0.0,0.0,
1.879,3.1723116233023902,3.4808732560536257,3.3777143003154535,0.0,0.0,0.0,3.3436330598904895,0.0,0.0,0.0,0.0,0.0,0.0,0.0,0.0,0.0,0.0,0.0,0.0,0.0,0.0,
1.8936,3.1735954587671533,3.4828047606349437,3.3793549467981103,0.0,0.0,0.0,3.345251722066736,0.0,0.0,0.0,0.0,0.0,0.0,0.0,0.0,0.0,0.0,0.0,0.0,0.0,0.0,
