energies(eV),real_xx,real_yy,real_zz,real_xy,real_yz,real_xz,real_ave,imag_xx,imag_yy,imag_zz,imag_xy,imag_yz,imag_xz,imag_ave,absorption_xx,absorption_yy,absorption_zz,absorption_xy,absorption_yz,absorption_xz,absorption_ave,band_gap
0.0,9.094136534988714,9.094136534988714,8.586334351167366,0.0,0.0,0.0,8.924869140381597,0.0,0.0,0.0,0.0,0.0,0.0,0.0,0.0,0.0,0.0,0.0,0.0,0.0,0.0,1.1693999999999996
0.0119,9.094242907586873,9.094242907586873,8.58640964235795,0.0,0.0,0.0,8.924965152510564,0.0,0.0,0.0,0.0,0.0,0.0,0.0,0.0,0.0,0.0,0.0,0.0,0.0,0.0,
0.0239,9.094565637370632,9.094565637370632,8.586638065135173,0.0,0.0,0.0,8.925256446625479,0.0,0.0,0.0,0.0,0.0,0.0,0.0,0.0,0.0,0.0,0.0,0.0,0.0,0.0,
0.0358,9.095099431478488,9.095099431478488,8.587015851355218,0.0,0.0,0.0,8.925738238104065,0.0,0.0,0.0,0.0,0.0,0.0,0.0,0.0,0.0,0.0,0.0,0.0,0.0,0.0,
0.0478,9.095853406296502,9.095853406296502,8.58754941599172,0.0,0.0,0.0,8.926418742861575,0.0,0.0,0.0,0.0,0.0,0.0,0.0,0.0,0.0,0.0,0.0,0.0,0.0,0.0,
0.0597,9.096815196634449,9.096815196634449,8.588229957227934,0.0,0.0,0.0,8.927286783498944,0.0,0.0,0.0,0.0,0.0,0.0,0.0,0.0,0.0,0.0,0.0,0.0,0.0,0.0,
0.0717,9.098001228790212,9.098001228790212,8.589069031051324,0.0,0.0,0.0,8.92835716287725,0.0,0.0,0.0,0.0,0.0,0.0,0.0,0.0,0.0,0.0,0.0,0.0,0.0,0.0,
0.0836,9.099392052440797,9.099392052440797,8.590052796048266,0.0,0.0,0.0,8.929612300309953,0.0,0.0,0.0,0.0,0.0,0.0,0.0,0.0,0.0,0.0,0.0,0.0,0.0,0.0,
0.0955,9.10099702647273,9.10099702647273,8.59118777844996,0.0,0.0,0.0,8.93106061046514,0.0,0.0,0.0,0.0,0.0,0.0,0.0,0.0,0.0,0.0,0.0,0.0,0.0,0.0,
0.1075,9.10283278238351,9.10283278238351,8.592485624639057,0.0,0.0,0.0,8.932717063135359,0.0,0.0,0.0,0.0,0.0,0.0,0.0,0.0,0.0,0.0,0.0,0.0,0.0,0.0,
0.1194,9.104869216919383,9.104869216919383,8.593924925841595,0.0,0.0,0.0,8.934554453226786,0.0,0.0,0.0,0.0,0.0,0.0,0.0,0.0,0.0,0.0,0.0,0.0,0.0,0.0,
0.1314,9.107141114260658,9.107141114260658,8.59553012332088,0.0,0.0,0.0,8.936604117280732,0.0,0.0,0.0,0.0,0.0,0.0,0.0,0.0,0.0,0.0,0.0,0.0,0.0,0.0,
0.1433,9.109611221672237,9.109611221672237,8.597274739002888,0.0,0.0,0.0,8.938832394115787,0.0,0.0,0.0,0.0,0.0,0.0,0.0,0.0,0.0,0.0,0.0,0.0,0.0,0.0,
0.1553,9.112321733930074,9.112321733930074,8.599188399596757,0.0,0.0,0.0,8.941277289152302,0.0,0.0,0.0,0.0,0.0,0.0,0.0,0.0,0.0,0.0,0.0,0.0,0.0,0.0,
0.1672,9.115228209869265,9.115228209869265,8.601239539804517,0.0,0.0,0.0,8.943898653181016,0.0,0.0,0.0,0.0,0.0,0.0,0.0,0.0,0.0,0.0,0.0,0.0,0.0,0.0,
0.1791,9.11835311514175,9.11835311514175,8.603443819522372,0.0,0.0,0.0,8.946716683268624,0.0,0.0,0.0,0.0,0.0,0.0,0.0,0.0,0.0,0.0,0.0,0.0,0.0,0.0,
0.1911,9.121726336171893,9.121726336171893,8.60582208461436,0.0,0.0,0.0,8.949758252319382,0.0,0.0,0.0,0.0,0.0,0.0,0.0,0.0,0.0,0.0,0.0,0.0,0.0,0.0,
0.203,9.125292574425893,9.125292574425893,8.608335108406765,0.0,0.0,0.0,8.952973419086184,0.0,0.0,0.0,0.0,0.0,0.0,0.0,0.0,0.0,0.0,0.0,0.0,0.0,0.0,
0.215,9.129112763909909,9.129112763909909,8.611025570416166,0.0,0.0,0.0,8.956417032745328,0.0,0.0,0.0,0.0,0.0,0.0,0.0,0.0,0.0,0.0,0.0,0.0,0.0,0.0,
0.2269,9.133124286253658,9.133124286253658,8.613849096573595,0.0,0.0,0.0,8.960032556360304,0.0,0.0,0.0,0.0,0.0,0.0,0.0,0.0,0.0,0.0,0.0,0.0,0.0,0.0,
0.2389,9.137395692301205,9.137395692301205,8.61685364195176,0.0,0.0,0.0,8.963881675518056,0.0,0.0,0.0,0.0,0.0,0.0,0.0,0.0,0.0,0.0,0.0,0.0,0.0,0.0,
0.2508,9.141856977098394,9.141856977098394,8.619989654698568,0.0,0.0,0.0,8.967901202965118,0.0,0.0,0.0,0.0,0.0,0.0,0.0,0.0,0.0,0.0,0.0,0.0,0.0,0.0,
0.2628,9.146584387981328,9.146584387981328,8.623310399925176,0.0,0.0,0.0,8.972159725295944,0.0,0.0,0.0,0.0,0.0,0.0,0.0,0.0,0.0,0.0,0.0,0.0,0.0,0.0,
0.2747,9.151500458240603,9.151500458240603,8.626761113913139,0.0,0.0,0.0,8.97658734346478,0.0,0.0,0.0,0.0,0.0,0.0,0.0,0.0,0.0,0.0,0.0,0.0,0.0,0.0,
0.2866,9.156645017343658,9.156645017343658,8.630369418922578,0.0,0.0,0.0,8.981219817869965,0.0,0.0,0.0,0.0,0.0,0.0,0.0,0.0,0.0,0.0,0.0,0.0,0.0,0.0,
0.2986,9.162065664282837,9.162065664282837,8.634168275680187,0.0,0.0,0.0,8.986099868081952,0.0,0.0,0.0,0.0,0.0,0.0,0.0,0.0,0.0,0.0,0.0,0.0,0.0,0.0,
0.3105,9.167673595647033,9.167673595647033,8.638095041564254,0.0,0.0,0.0,8.991147410952772,0.0,0.0,0.0,0.0,0.0,0.0,0.0,0.0,0.0,0.0,0.0,0.0,0.0,0.0,
0.3225,9.173564696750613,9.173564696750613,8.642216422850456,0.0,0.0,0.0,8.996448605450562,0.0,0.0,0.0,0.0,0.0,0.0,0.0,0.0,0.0,0.0,0.0,0.0,0.0,0.0,
0.3344,9.179642475995045,9.179642475995045,8.646464463264987,0.0,0.0,0.0,9.001916471751693,0.0,0.0,0.0,0.0,0.0,0.0,0.0,0.0,0.0,0.0,0.0,0.0,0.0,0.0,
0.3464,9.186010873181244,9.186010873181244,8.650911331959456,0.0,0.0,0.0,9.007644359440649,0.0,0.0,0.0,0.0,0.0,0.0,0.0,0.0,0.0,0.0,0.0,0.0,0.0,0.0,
0.3583,9.192565601520206,9.192565601520206,8.655483711358844,0.0,0.0,0.0,9.013538304799752,0.0,0.0,0.0,0.0,0.0,0.0,0.0,0.0,0.0,0.0,0.0,0.0,0.0,0.0,
0.3702,9.199360656961476,9.199360656961476,8.66021880431478,0.0,0.0,0.0,9.019646706079245,0.0,0.0,0.0,0.0,0.0,0.0,0.0,0.0,0.0,0.0,0.0,0.0,0.0,0.0,
0.3822,9.20645821618977,9.20645821618977,8.665159327755687,0.0,0.0,0.0,9.026025253378409,0.0,0.0,0.0,0.0,0.0,0.0,0.0,0.0,0.0,0.0,0.0,0.0,0.0,0.0,
0.3941,9.213742093963203,9.213742093963203,8.670223835252365,0.0,0.0,0.0,9.03256934105959,0.0,0.0,0.0,0.0,0.0,0.0,0.0,0.0,0.0,0.0,0.0,0.0,0.0,0.0,
0.4061,9.221336929774465,9.221336929774465,8.675498384652265,0.0,0.0,0.0,9.039390748067065,0.0,0.0,0.0,0.0,0.0,0.0,0.0,0.0,0.0,0.0,0.0,0.0,0.0,0.0,
0.418,9.229118431508564,9.229118431508564,8.680896031029722,0.0,0.0,0.0,9.04637763134895,0.0,0.0,0.0,0.0,0.0,0.0,0.0,0.0,0.0,0.0,0.0,0.0,0.0,0.0,
0.43,9.237219790244719,9.237219790244719,8.686508501761097,0.0,0.0,0.0,9.053649360750178,0.0,0.0,0.0,0.0,0.0,0.0,0.0,0.0,0.0,0.0,0.0,0.0,0.0,0.0,
0.4419,9.245508463163686,9.245508463163686,8.692243290895098,0.0,0.0,0.0,9.061086739074156,0.0,0.0,0.0,0.0,0.0,0.0,0.0,0.0,0.0,0.0,0.0,0.0,0.0,0.0,
0.4538,9.254053464073825,9.254053464073825,8.69814752866646,0.0,0.0,0.0,9.068751485604704,0.0,0.0,0.0,0.0,0.0,0.0,0.0,0.0,0.0,0.0,0.0,0.0,0.0,0.0,
0.4658,9.262932544699234,9.262932544699234,8.704274090484619,0.0,0.0,0.0,9.07671305996103,0.0,0.0,0.0,0.0,0.0,0.0,0.0,0.0,0.0,0.0,0.0,0.0,0.0,0.0,
0.4777,9.27200050857213,9.27200050857213,8.71052201352085,0.0,0.0,0.0,9.084841010221703,0.0,0.0,0.0,0.0,0.0,0.0,0.0,0.0,0.0,0.0,0.0,0.0,0.0,0.0,
0.4897,9.281412688564524,9.281412688564524,8.7169975033149,0.0,0.0,0.0,9.093274293481317,0.0,0.0,0.0,0.0,0.0,0.0,0.0,0.0,0.0,0.0,0.0,0.0,0.0,0.0,
0.5016,9.291015225539157,9.291015225539157,8.723593859541687,0.0,0.0,0.0,9.101874770206667,0.0,0.0,0.0,0.0,0.0,0.0,0.0,0.0,0.0,0.0,0.0,0.0,0.0,0.0,
0.5136,9.300972668936762,9.300972668936762,8.730423224207398,0.0,0.0,0.0,9.110789520693642,0.0,0.0,0.0,0.0,0.0,0.0,0.0,0.0,0.0,0.0,0.0,0.0,0.0,0.0,
0.5255,9.311122309115557,9.311122309115557,8.73737308027869,0.0,0.0,0.0,9.119872566169935,0.0,0.0,0.0,0.0,0.0,0.0,0.0,0.0,0.0,0.0,0.0,0.0,0.0,0.0,
0.5374,9.321549331497213,9.321549331497213,8.744500938745816,0.0,0.0,0.0,9.129199867246747,0.0,0.0,0.0,0.0,0.0,0.0,0.0,0.0,0.0,0.0,0.0,0.0,0.0,0.0,
0.5494,9.332348395027037,9.332348395027037,8.751870349623811,0.0,0.0,0.0,9.138855713225961,0.0,0.0,0.0,0.0,0.0,0.0,0.0,0.0,0.0,0.0,0.0,0.0,0.0,0.0,
0.5613,9.34334315000292,9.34334315000292,8.759359923432685,0.0,0.0,0.0,9.148682074479508,0.0,0.0,0.0,0.0,0.0,0.0,0.0,0.0,0.0,0.0,0.0,0.0,0.0,0.0,
0.5733,9.35472219781274,9.35472219781274,8.767097030765154,0.0,0.0,0.0,9.158847142130211,0.0,0.0,0.0,0.0,0.0,0.0,0.0,0.0,0.0,0.0,0.0,0.0,0.0,0.0,
0.5852,9.366299804622791,9.366299804622791,8.774954244459055,0.0,0.0,0.0,9.169184617901545,0.0,0.0,0.0,0.0,0.0,0.0,0.0,0.0,0.0,0.0,0.0,0.0,0.0,0.0,
0.5972,9.378274663803248,9.378274663803248,8.783065207689436,0.0,0.0,0.0,9.179871511765311,0.0,0.0,0.0,0.0,0.0,0.0,0.0,0.0,0.0,0.0,0.0,0.0,0.0,0.0,
0.6091,9.390451415396774,9.390451415396774,8.79129635730334,0.0,0.0,0.0,9.190733062698962,0.0,0.0,0.0,0.0,0.0,0.0,0.0,0.0,0.0,0.0,0.0,0.0,0.0,0.0,
0.6211,9.403039141888794,9.403039141888794,8.799787719461687,0.0,0.0,0.0,9.20195533441309,0.0,0.0,0.0,0.0,0.0,0.0,0.0,0.0,0.0,0.0,0.0,0.0,0.0,0.0,
0.633,9.415832597309048,9.415832597309048,8.808399490704044,0.0,0.0,0.0,9.213354895107381,0.0,0.0,0.0,0.0,0.0,0.0,0.0,0.0,0.0,0.0,0.0,0.0,0.0,0.0,
0.6449,9.42894008328583,9.42894008328583,8.817203395971124,0.0,0.0,0.0,9.225027854180928,0.0,0.0,0.0,0.0,0.0,0.0,0.0,0.0,0.0,0.0,0.0,0.0,0.0,0.0,
0.6569,9.442480662275692,9.442480662275692,8.826277685589222,0.0,0.0,0.0,9.23707967004687,0.0,0.0,0.0,0.0,0.0,0.0,0.0,0.0,0.0,0.0,0.0,0.0,0.0,0.0,
0.6688,9.456233751541708,9.456233751541708,8.835472999732666,0.0,0.0,0.0,9.249313500938694,0.0,0.0,0.0,0.0,0.0,0.0,0.0,0.0,0.0,0.0,0.0,0.0,0.0,0.0,
0.6808,9.47043584563655,9.47043584563655,8.844945837487408,0.0,0.0,0.0,9.261939176253502,0.0,0.0,0.0,0.0,0.0,0.0,0.0,0.0,0.0,0.0,0.0,0.0,0.0,0.0,
0.6927,9.484855739691396,9.484855739691396,8.85454030999669,0.0,0.0,0.0,9.274750596459826,0.0,0.0,0.0,0.0,0.0,0.0,0.0,0.0,0.0,0.0,0.0,0.0,0.0,0.0,
0.7047,9.49974156068558,9.49974156068558,8.864419742769467,0.0,0.0,0.0,9.28796762138021,0.0,0.0,0.0,0.0,0.0,0.0,0.0,0.0,0.0,0.0,0.0,0.0,0.0,0.0,
0.7166,9.514851148092216,9.514851148092216,8.874421590210748,0.0,0.0,0.0,9.301374628798394,0.0,0.0,0.0,0.0,0.0,0.0,0.0,0.0,0.0,0.0,0.0,0.0,0.0,0.0,
0.7285,9.530313240401778,9.530313240401778,8.884629489158499,0.0,0.0,0.0,9.315085323320686,0.0,0.0,0.0,0.0,0.0,0.0,0.0,0.0,0.0,0.0,0.0,0.0,0.0,0.0,
0.7405,9.546268698071605,9.546268698071605,8.895134081978874,0.0,0.0,0.0,9.329223826040694,0.0,0.0,0.0,0.0,0.0,0.0,0.0,0.0,0.0,0.0,0.0,0.0,0.0,0.0,
0.7524,9.562458271286923,9.562458271286923,8.905762596565488,0.0,0.0,0.0,9.343559713046444,0.0,0.0,0.0,0.0,0.0,0.0,0.0,0.0,0.0,0.0,0.0,0.0,0.0,0.0,
0.7644,9.579161076430196,9.579161076430196,8.916696062730566,0.0,0.0,0.0,9.358339405196986,0.0,0.0,0.0,0.0,0.0,0.0,0.0,0.0,0.0,0.0,0.0,0.0,0.0,0.0,
0.7763,9.596105961849153,9.596105961849153,8.927754699081106,0.0,0.0,0.0,9.373322207593137,0.0,0.0,0.0,0.0,0.0,0.0,0.0,0.0,0.0,0.0,0.0,0.0,0.0,0.0,
0.7883,9.61358532630559,9.61358532630559,8.939126908871645,0.0,0.0,0.0,9.388765853827607,0.0,0.0,0.0,0.0,0.0,0.0,0.0,0.0,0.0,0.0,0.0,0.0,0.0,0.0,
0.8002,9.631315686481035,9.631315686481035,8.950625745722494,0.0,0.0,0.0,9.404419039561521,0.0,0.0,0.0,0.0,0.0,0.0,0.0,0.0,0.0,0.0,0.0,0.0,0.0,0.0,
0.8121,9.649449178010961,9.649449178010961,8.96234770810648,0.0,0.0,0.0,9.420415354709467,0.0,0.0,0.0,0.0,0.0,0.0,0.0,0.0,0.0,0.0,0.0,0.0,0.0,0.0,
0.8241,9.66815186532021,9.66815186532021,8.974396890748107,0.0,0.0,0.0,9.43690020712951,0.0,0.0,0.0,0.0,0.0,0.0,0.0,0.0,0.0,0.0,0.0,0.0,0.0,0.0,
0.836,9.687120916492997,9.687120916492997,8.986575303599594,0.0,0.0,0.0,9.453605712195197,0.0,0.0,0.0,0.0,0.0,0.0,0.0,0.0,0.0,0.0,0.0,0.0,0.0,0.0,
0.848,9.706684508063084,9.706684508063084,8.999090573501654,0.0,0.0,0.0,9.470819863209273,0.0,0.0,0.0,0.0,0.0,0.0,0.0,0.0,0.0,0.0,0.0,0.0,0.0,0.0,
0.8599,9.726526252127446,9.726526252127446,9.011737115753375,0.0,0.0,0.0,9.488263206669423,0.0,0.0,0.0,0.0,0.0,0.0,0.0,0.0,0.0,0.0,0.0,0.0,0.0,0.0,
0.8719,9.746989838798294,9.746989838798294,9.024730606433994,0.0,0.0,0.0,9.506236761343528,0.0,0.0,0.0,0.0,0.0,0.0,0.0,0.0,0.0,0.0,0.0,0.0,0.0,0.0,
0.8838,9.767744765382005,9.767744765382005,9.037857676349802,0.0,0.0,0.0,9.524449069037937,0.0,0.0,0.0,0.0,0.0,0.0,0.0,0.0,0.0,0.0,0.0,0.0,0.0,0.0,
0.8957,9.788970620981933,9.788970620981933,9.05122886563794,0.0,0.0,0.0,9.543056702533937,0.0,0.0,0.0,0.0,0.0,0.0,0.0,0.0,0.0,0.0,0.0,0.0,0.0,0.0,
0.9077,9.810863372573422,9.810863372573422,9.064963039814122,0.0,0.0,0.0,9.562229928320322,0.0,0.0,0.0,0.0,0.0,0.0,0.0,0.0,0.0,0.0,0.0,0.0,0.0,0.0,
0.9196,9.833070230567373,9.833070230567373,9.078834789510802,0.0,0.0,0.0,9.581658416881849,0.0,0.0,0.0,0.0,0.0,0.0,0.0,0.0,0.0,0.0,0.0,0.0,0.0,0.0,
0.9316,9.85597722707286,9.85597722707286,9.093080896765104,0.0,0.0,0.0,9.601678450303607,0.0,0.0,0.0,0.0,0.0,0.0,0.0,0.0,0.0,0.0,0.0,0.0,0.0,0.0,
0.9435,9.87921585686639,9.87921585686639,9.107467643093996,0.0,0.0,0.0,9.621966452275592,0.0,0.0,0.0,0.0,0.0,0.0,0.0,0.0,0.0,0.0,0.0,0.0,0.0,0.0,
0.9555,9.90319077191342,9.90319077191342,9.122240700398091,0.0,0.0,0.0,9.64287408140831,0.0,0.0,0.0,0.0,0.0,0.0,0.0,0.0,0.0,0.0,0.0,0.0,0.0,0.0,
0.9674,9.927517016395734,9.927517016395734,9.13715780881238,0.0,0.0,0.0,9.664063947201283,0.0,0.0,0.0,0.0,0.0,0.0,0.0,0.0,0.0,0.0,0.0,0.0,0.0,0.0,
0.9794,9.952618976082245,9.952618976082245,9.15247380763176,0.0,0.0,0.0,9.685903919932082,0.0,0.0,0.0,0.0,0.0,0.0,0.0,0.0,0.0,0.0,0.0,0.0,0.0,0.0,
0.9913,9.97809444795706,9.97809444795706,9.167937649298757,0.0,0.0,0.0,9.708042181737627,0.0,0.0,0.0,0.0,0.0,0.0,0.0,0.0,0.0,0.0,0.0,0.0,0.0,0.0,
1.0032,10.004167117116982,10.004167117116982,9.18368015410582,0.0,0.0,0.0,9.73067146277993,0.0,0.0,0.0,0.0,0.0,0.0,0.0,0.0,0.0,0.0,0.0,0.0,0.0,0.0,
1.0152,10.03108170378972,10.03108170378972,9.199841675136218,0.0,0.0,0.0,9.754001694238553,0.0,0.0,0.0,0.0,0.0,0.0,0.0,0.0,0.0,0.0,0.0,0.0,0.0,0.0,
1.0271,10.058408530897271,10.058408530897271,9.216157507773609,0.0,0.0,0.0,9.77765818985605,0.0,0.0,0.0,0.0,0.0,0.0,0.0,0.0,0.0,0.0,0.0,0.0,0.0,0.0,
1.0391,10.086627048520326,10.086627048520326,9.232906734108667,0.0,0.0,0.0,9.802053610383107,0.0,0.0,0.0,0.0,0.0,0.0,0.0,0.0,0.0,0.0,0.0,0.0,0.0,0.0,
1.051,10.115288033512863,10.115288033512863,9.249815178459844,0.0,0.0,0.0,9.826797081828524,0.0,0.0,0.0,0.0,0.0,0.0,0.0,0.0,0.0,0.0,0.0,0.0,0.0,0.0,
1.063,10.14489574228966,10.14489574228966,9.267172225762126,0.0,0.0,0.0,9.852321236780483,0.0,0.0,0.0,0.0,0.0,0.0,0.0,0.0,0.0,0.0,0.0,0.0,0.0,0.0,
1.0749,10.174980344339515,10.174980344339515,9.28469392537623,0.0,0.0,0.0,9.878218204685085,0.0,0.0,0.0,0.0,0.0,0.0,0.0,0.0,0.0,0.0,0.0,0.0,0.0,0.0,
1.0868,10.20581049842949,10.20581049842949,9.302529126082964,0.0,0.0,0.0,9.904716707647315,0.0,0.0,0.0,0.0,0.0,0.0,0.0,0.0,0.0,0.0,0.0,0.0,0.0,0.0,
1.0988,10.237681543586309,10.237681543586309,9.320837438858963,0.0,0.0,0.0,9.932066842010526,0.0,0.0,0.0,0.0,0.0,0.0,0.0,0.0,0.0,0.0,0.0,0.0,0.0,0.0,
1.1107,10.270090596261289,10.270090596261289,9.339319660099559,0.0,0.0,0.0,9.959833617540712,0.0,0.0,0.0,0.0,0.0,0.0,0.0,0.0,0.0,0.0,0.0,0.0,0.0,0.0,
1.1227,10.303612826315133,10.303612826315133,9.358292641513328,0.0,0.0,0.0,9.988506098047864,0.0,0.0,0.0,0.0,0.0,0.0,0.0,0.0,0.0,0.0,0.0,0.0,0.0,0.0,
1.1346,10.337721682431425,10.337721682431425,9.37744655803265,0.0,0.0,0.0,10.0176299742985,0.0,0.0,0.0,0.0,0.0,0.0,0.0,0.0,0.0,0.0,0.0,0.0,0.0,0.0,
1.1466,10.373025162358529,10.373025162358529,9.397110037372924,0.0,0.0,0.0,10.04772012069666,0.0,0.0,0.0,0.0,0.0,0.0,0.0,0.0,0.0,0.0,0.0,0.0,0.0,0.0,
1.1585,10.408971645376399,10.408971645376399,9.416962255175537,0.0,0.0,0.0,10.078301848642779,0.0,0.0,0.0,0.0,0.0,0.0,0.0,0.0,0.0,0.0,0.0,0.0,0.0,0.0,
1.1704,10.445890665051039,10.445890665051039,9.43717274529397,0.0,0.0,0.0,10.10965135846535,0.0,0.0,0.0,0.0,0.0,0.0,0.0,0.0,0.0,0.0,0.0,0.0,0.0,0.0,
1.1824,10.484147473149887,10.484147473149887,9.457923406228865,0.0,0.0,0.0,10.142072784176213,0.0,0.0,0.0,0.0,0.0,0.0,0.0,0.0,0.0,0.0,0.0,0.0,0.0,0.0,
1.1943,10.523150056337931,10.523150056337931,9.47887617663804,0.0,0.0,0.0,10.175058763104635,0.0,0.0,0.0,0.0,0.0,0.0,0.0,0.0,0.0,0.0,0.0,0.0,0.0,0.0,
1.2063,10.563603679271832,10.563603679271832,9.500391411091302,0.0,0.0,0.0,10.209199589878322,0.0,0.0,0.0,0.0,0.0,0.0,0.0,0.0,0.0,0.0,0.0,0.0,0.0,0.0,
1.2182,10.60488734041951,10.60488734041951,9.522118994070293,0.0,0.0,0.0,10.243964558303103,0.0,0.0,0.0,0.0,0.0,0.0,0.0,0.0,0.0,0.0,0.0,0.0,0.0,0.0,
1.2302,10.647753250296045,10.647753250296045,9.544433046688514,0.0,0.0,0.0,10.279979849093534,0.0,0.0,0.0,0.0,0.0,0.0,0.0,0.0,0.0,0.0,0.0,0.0,0.0,0.0,
1.2421,10.691549741741696,10.691549741741696,9.566970928748788,0.0,0.0,0.0,10.316690137410726,0.0,0.0,0.0,0.0,0.0,0.0,0.0,0.0,0.0,0.0,0.0,0.0,0.0,0.0,
1.254,10.736696794790868,10.736696794790868,9.589926534663139,0.0,0.0,0.0,10.354440041414959,0.0,0.0,0.0,0.0,0.0,0.0,0.0,0.0,0.0,0.0,0.0,0.0,0.0,0.0,
1.266,10.783666372864225,10.783666372864225,9.613508307641295,0.0,0.0,0.0,10.393613684456582,0.0,0.0,0.0,0.0,0.0,0.0,0.0,0.0,0.0,0.0,0.0,0.0,0.0,0.0,
1.2779,10.83175783122811,10.83175783122811,9.637333903848585,0.0,0.0,0.0,10.433616522101602,0.0,0.0,0.0,0.0,0.0,0.0,0.0,0.0,0.0,0.0,0.0,0.0,0.0,0.0,
1.2899,10.88187099656095,10.88187099656095,9.661815123513204,0.0,0.0,0.0,10.475185705545035,0.0,0.0,0.0,0.0,0.0,0.0,0.0,0.0,0.0,0.0,0.0,0.0,0.0,0.0,
1.3018,10.93327081943875,10.93327081943875,9.686555799428481,0.0,0.0,0.0,10.517699146101995,0.0,0.0,0.0,0.0,0.0,0.0,0.0,0.0,0.0,0.0,0.0,0.0,0.0,0.0,
1.3138,10.986933703618568,10.986933703618568,9.711984403032758,0.0,0.0,0.0,10.561950603423298,0.0,0.0,0.0,0.0,0.0,0.0,0.0,0.0,0.0,0.0,0.0,0.0,0.0,0.0,
1.3257,11.042089497631235,11.042089497631235,9.737690381913783,0.0,0.0,0.0,10.607289792392084,0.0,0.0,0.0,0.0,0.0,0.0,0.0,0.0,0.0,0.0,0.0,0.0,0.0,0.0,
1.3377,11.099806135422233,11.099806135422233,9.764120001199656,0.0,0.0,0.0,10.654577424014706,0.0,0.0,0.0,0.0,0.0,0.0,0.0,0.0,0.0,0.0,0.0,0.0,0.0,0.0,
1.3496,11.159278919239243,11.159278919239243,9.79084775160421,0.0,0.0,0.0,10.703135196694232,0.0,0.0,0.0,0.0,0.0,0.0,0.0,0.0,0.0,0.0,0.0,0.0,0.0,0.0,
1.3615,11.221157129288665,11.221157129288665,9.818107648552811,0.0,0.0,0.0,10.753473969043378,0.0,0.0,0.0,0.0,0.0,0.0,0.0,0.0,0.0,0.0,0.0,0.0,0.0,0.0,
1.3735,11.286196655891755,11.286196655891755,9.846152798381143,0.0,0.0,0.0,10.806182036721552,0.0,0.0,0.0,0.0,0.0,0.0,0.0,0.0,0.0,0.0,0.0,0.0,0.0,0.0,
1.3854,11.353547781330196,11.353547781330196,9.874534257926868,0.0,0.0,0.0,10.860543273529087,0.0,0.0,0.0,0.0,0.0,0.0,0.0,0.0,0.0,0.0,0.0,0.0,0.0,0.0,
1.3974,11.424616757639008,11.424616757639008,9.903749239867617,0.0,0.0,0.0,10.917660918381877,0.0,0.0,0.0,0.0,0.0,0.0,0.0,0.0,0.0,0.0,0.0,0.0,0.0,0.0,
1.4093,11.49853520772375,11.49853520772375,9.933332563891877,0.0,0.0,0.0,10.976800993113125,0.0,0.0,0.0,0.0,0.0,0.0,0.0,0.0,0.0,0.0,0.0,0.0,0.0,0.0,
1.4213,11.576919796033197,11.576919796033197,9.96380545098728,0.0,0.0,0.0,11.039215014351223,0.0,0.0,0.0,0.0,0.0,0.0,0.0,0.0,0.0,0.0,0.0,0.0,0.0,0.0,
1.4332,11.658897904140964,11.658897904140964,9.99468608505673,0.0,0.0,0.0,11.104160631112885,0.0,0.0,0.0,0.0,0.0,0.0,0.0,0.0,0.0,0.0,0.0,0.0,0.0,0.0,
1.4451,11.745606074805107,11.745606074805107,10.026254113688475,0.0,0.0,0.0,11.172488754432896,0.0,0.0,0.0,0.0,0.0,0.0,0.0,0.0,0.0,0.0,0.0,0.0,0.0,0.0,
1.4571,11.838400562581526,11.838400562581526,10.05881479584786,0.0,0.0,0.0,11.245205307003637,0.0,0.0,0.0,0.0,0.0,0.0,0.0,0.0,0.0,0.0,0.0,0.0,0.0,0.0,
1.469,11.936299369788536,11.936299369788536,10.091857790802818,0.0,0.0,0.0,11.32148551012663,0.0,0.0,0.0,0.0,0.0,0.0,0.0,0.0,0.0,0.0,0.0,0.0,0.0,0.0,
1.481,12.041338923521364,12.041338923521364,10.125968767967523,0.0,0.0,0.0,11.402882205003417,0.0,0.0,0.0,0.0,0.0,0.0,0.0,0.0,0.0,0.0,0.0,0.0,0.0,0.0,
1.4929,12.151605344830363,12.151605344830363,10.160599258870661,0.0,0.0,0.0,11.487936649510464,0.0034,0.0034,0.0001,0.0,0.0,0.0,0.0023,73.79149889826384,73.79149889826384,2.3734747585681415,0.0,0.0,0.0,51.33943274937448,
1.5049,12.267821116424892,12.267821116424892,10.196332616987227,0.0,0.0,0.0,11.577324949945671,0.0304,0.0304,0.0006,0.0,0.0,0.0,0.020466666666666668,661.9279274581392,661.9279274581392,14.33013964578712,0.0,0.0,0.0,458.7372503305744,
1.5168,12.386034576758053,12.386034576758053,10.232555172520343,0.0,0.0,0.0,11.668208108678817,0.0845,0.0845,0.0018,0.0,0.0,0.0,0.056933333333333336,1845.5673057108006,1845.5673057108006,43.253604522533244,0.0,0.0,0.0,1281.1650589342123,
1.5287,12.50486686561472,12.50486686561472,10.269536327767025,0.0,0.0,0.0,11.759756686332153,0.1596,0.1596,0.0035,0.0,0.0,0.0,0.10756666666666666,3496.393495555832,3496.393495555832,84.61130925272407,0.0,0.0,0.0,2430.0197088796417,
1.5407,12.623077233881167,12.623077233881167,10.307576587020542,0.0,0.0,0.0,11.851243684927624,0.2513,0.2513,0.0055,0.0,0.0,0.0,0.16936666666666667,5522.299655490882,5522.299655490882,133.75684031958235,0.0,0.0,0.0,3841.1963014602416,
