energies(eV),real_xx,real_yy,real_zz,real_xy,real_yz,real_xz,real_ave,imag_xx,imag_yy,imag_zz,imag_xy,imag_yz,imag_xz,imag_ave,absorption_xx,absorption_yy,absorption_zz,absorption_xy,absorption_yz,absorption_xz,absorption_ave,band_gap
0.0,3.4532210101086265,3.4532210101086265,3.7219160765354715,0.0,0.0,0.0,3.5427860322509077,0.0,0.0,0.0,0.0,0.0,0.0,0.0,0.0,0.0,0.0,0.0,0.0,0.0,0.0,5.0981000000000005
0.0237,3.4532337793665966,3.4532337793665966,3.721931334945551,0.0,0.0,0.0,3.542799631226248,0.0,0.0,0.0,0.0,0.0,0.0,0.0,0.0,0.0,0.0,0.0,0.0,0.0,0.0,
0.0474,3.453272088301505,3.453272088301505,3.721977111631651,0.0,0.0,0.0,3.5428404294115534,0.0,0.0,0.0,0.0,0.0,0.0,0.0,0.0,0.0,0.0,0.0,0.0,0.0,0.0,
0.071,3.4533356173099663,3.4533356173099663,3.72205302489231,0.0,0.0,0.0,3.542908086504081,0.0,0.0,0.0,0.0,0.0,0.0,0.0,0.0,0.0,0.0,0.0,0.0,0.0,0.0,
0.0947,3.453424910554628,3.453424910554628,3.7221597253096657,0.0,0.0,0.0,3.543003182139641,0.0,0.0,0.0,0.0,0.0,0.0,0.0,0.0,0.0,0.0,0.0,0.0,0.0,0.0,
0.1184,3.453539760857916,3.453539760857916,3.7222969657994205,0.0,0.0,0.0,3.5431254958384173,0.0,0.0,0.0,0.0,0.0,0.0,0.0,0.0,0.0,0.0,0.0,0.0,0.0,0.0,
0.1421,3.453680178668346,3.453680178668346,3.722464759463928,0.0,0.0,0.0,3.5432750389335403,0.0,0.0,0.0,0.0,0.0,0.0,0.0,0.0,0.0,0.0,0.0,0.0,0.0,0.0,
0.1657,3.4538454225909154,3.4538454225909154,3.7226622211080858,0.0,0.0,0.0,3.543451022096639,0.0,0.0,0.0,0.0,0.0,0.0,0.0,0.0,0.0,0.0,0.0,0.0,0.0,0.0,
0.1894,3.454036908051686,3.454036908051686,3.722891043013646,0.0,0.0,0.0,3.543654953039006,0.0,0.0,0.0,0.0,0.0,0.0,0.0,0.0,0.0,0.0,0.0,0.0,0.0,0.0,
0.2131,3.454254006280625,3.454254006280625,3.7231504748530573,0.0,0.0,0.0,3.543886162471436,0.0,0.0,0.0,0.0,0.0,0.0,0.0,0.0,0.0,0.0,0.0,0.0,0.0,0.0,
0.2368,3.454496737059615,3.454496737059615,3.7234405414344476,0.0,0.0,0.0,3.544144671851226,0.0,0.0,0.0,0.0,0.0,0.0,0.0,0.0,0.0,0.0,0.0,0.0,0.0,0.0,
0.2605,3.4547651225183595,3.4547651225183595,3.723761270510971,0.0,0.0,0.0,3.544430505182563,0.0,0.0,0.0,0.0,0.0,0.0,0.0,0.0,0.0,0.0,0.0,0.0,0.0,0.0,
0.2841,3.455057892377956,3.455057892377956,3.7241111454677784,0.0,0.0,0.0,3.544742310074563,0.0,0.0,0.0,0.0,0.0,0.0,0.0,0.0,0.0,0.0,0.0,0.0,0.0,0.0,
0.3078,3.455377554483979,3.455377554483979,3.724493164889951,0.0,0.0,0.0,3.5450827579526365,0.0,0.0,0.0,0.0,0.0,0.0,0.0,0.0,0.0,0.0,0.0,0.0,0.0,0.0,
0.3315,3.455722951681956,3.455722951681956,3.7249059476586712,0.0,0.0,0.0,3.545450617007528,0.0,0.0,0.0,0.0,0.0,0.0,0.0,0.0,0.0,0.0,0.0,0.0,0.0,0.0,
0.3552,3.456094115550503,3.456094115550503,3.7253495333816335,0.0,0.0,0.0,3.5458459214942137,0.0,0.0,0.0,0.0,0.0,0.0,0.0,0.0,0.0,0.0,0.0,0.0,0.0,0.0,
0.3788,3.4564893508454166,3.4564893508454166,3.7258218979765125,0.0,0.0,0.0,3.5462668665557815,0.0,0.0,0.0,0.0,0.0,0.0,0.0,0.0,0.0,0.0,0.0,0.0,0.0,0.0,
0.4025,3.456912043243462,3.456912043243462,3.72632708997199,0.0,0.0,0.0,3.546717058819638,0.0,0.0,0.0,0.0,0.0,0.0,0.0,0.0,0.0,0.0,0.0,0.0,0.0,0.0,
0.4262,3.457360611227264,3.457360611227264,3.7268632215396438,0.0,0.0,0.0,3.547194814664724,0.0,0.0,0.0,0.0,0.0,0.0,0.0,0.0,0.0,0.0,0.0,0.0,0.0,0.0,
0.4499,3.457835095964169,3.457835095964169,3.7274303443219865,0.0,0.0,0.0,3.5477001787501083,0.0,0.0,0.0,0.0,0.0,0.0,0.0,0.0,0.0,0.0,0.0,0.0,0.0,0.0,
0.4735,3.4583333748646146,3.4583333748646146,3.728025923788779,0.0,0.0,0.0,3.5482308911726697,0.0,0.0,0.0,0.0,0.0,0.0,0.0,0.0,0.0,0.0,0.0,0.0,0.0,0.0,
0.4972,3.458859716497245,3.458859716497245,3.7286550647658285,0.0,0.0,0.0,3.5487914992534395,0.0,0.0,0.0,0.0,0.0,0.0,0.0,0.0,0.0,0.0,0.0,0.0,0.0,0.0,
0.5209,3.459412112785054,3.459412112785054,3.7293153699657164,0.0,0.0,0.0,3.549379865178608,0.0,0.0,0.0,0.0,0.0,0.0,0.0,0.0,0.0,0.0,0.0,0.0,0.0,0.0,
0.5446,3.4599906146676997,3.4599906146676997,3.7300069033023084,0.0,0.0,0.0,3.5499960442125693,0.0,0.0,0.0,0.0,0.0,0.0,0.0,0.0,0.0,0.0,0.0,0.0,0.0,0.0,
0.5683,3.4605952755644767,3.4605952755644767,3.730729731804472,0.0,0.0,0.0,3.5506400943111416,0.0,0.0,0.0,0.0,0.0,0.0,0.0,0.0,0.0,0.0,0.0,0.0,0.0,0.0,
0.5919,3.4612234343129384,3.4612234343129384,3.7314806773890776,0.0,0.0,0.0,3.551309182004985,0.0,0.0,0.0,0.0,0.0,0.0,0.0,0.0,0.0,0.0,0.0,0.0,0.0,0.0,
0.6156,3.4618804725061594,3.4618804725061594,3.7322661770552847,0.0,0.0,0.0,3.5520090406892013,0.0,0.0,0.0,0.0,0.0,0.0,0.0,0.0,0.0,0.0,0.0,0.0,0.0,0.0,
0.6393,3.4625638447409077,3.4625638447409077,3.7330831915321667,0.0,0.0,0.0,3.552736960337994,0.0,0.0,0.0,0.0,0.0,0.0,0.0,0.0,0.0,0.0,0.0,0.0,0.0,0.0,
0.663,3.463273614502201,3.463273614502201,3.733931800498179,0.0,0.0,0.0,3.553493009834194,0.0,0.0,0.0,0.0,0.0,0.0,0.0,0.0,0.0,0.0,0.0,0.0,0.0,0.0,
0.6866,3.4640066856778353,3.4640066856778353,3.7348083058976163,0.0,0.0,0.0,3.5542738924177626,0.0,0.0,0.0,0.0,0.0,0.0,0.0,0.0,0.0,0.0,0.0,0.0,0.0,0.0,
0.7103,3.4647693391172507,3.4647693391172507,3.7357202215785716,0.0,0.0,0.0,3.5550862999376913,0.0,0.0,0.0,0.0,0.0,0.0,0.0,0.0,0.0,0.0,0.0,0.0,0.0,0.0,
0.734,3.465558595682181,3.465558595682181,3.7366639898269187,0.0,0.0,0.0,3.5559270603970936,0.0,0.0,0.0,0.0,0.0,0.0,0.0,0.0,0.0,0.0,0.0,0.0,0.0,0.0,
0.7577,3.466374529211935,3.466374529211935,3.7376397033429365,0.0,0.0,0.0,3.5567962539222684,0.0,0.0,0.0,0.0,0.0,0.0,0.0,0.0,0.0,0.0,0.0,0.0,0.0,0.0,
0.7814,3.467217216188257,3.467217216188257,3.7386474581516533,0.0,0.0,0.0,3.5576939635093887,0.0,0.0,0.0,0.0,0.0,0.0,0.0,0.0,0.0,0.0,0.0,0.0,0.0,0.0,
0.805,3.4680830104149694,3.4680830104149694,3.739682898223057,0.0,0.0,0.0,3.5586163063509986,0.0,0.0,0.0,0.0,0.0,0.0,0.0,0.0,0.0,0.0,0.0,0.0,0.0,0.0,
0.8287,3.4689793306716643,3.4689793306716643,3.7407549008658467,0.0,0.0,0.0,3.5595711874030584,0.0,0.0,0.0,0.0,0.0,0.0,0.0,0.0,0.0,0.0,0.0,0.0,0.0,0.0,
0.8524,3.4699026495369383,3.4699026495369383,3.741859252659888,0.0,0.0,0.0,3.560554850577921,0.0,0.0,0.0,0.0,0.0,0.0,0.0,0.0,0.0,0.0,0.0,0.0,0.0,0.0,
0.8761,3.4708530542797207,3.4708530542797207,3.7429960632103274,0.0,0.0,0.0,3.5615673905899228,0.0,0.0,0.0,0.0,0.0,0.0,0.0,0.0,0.0,0.0,0.0,0.0,0.0,0.0,
0.8997,3.471826452897404,3.471826452897404,3.7441604429086945,0.0,0.0,0.0,3.5626044495678344,0.0,0.0,0.0,0.0,0.0,0.0,0.0,0.0,0.0,0.0,0.0,0.0,0.0,0.0,
0.9234,3.472831187016663,3.472831187016663,3.745362375557838,0.0,0.0,0.0,3.563674916530388,0.0,0.0,0.0,0.0,0.0,0.0,0.0,0.0,0.0,0.0,0.0,0.0,0.0,0.0,
0.9471,3.473863285084886,3.473863285084886,3.746597116270237,0.0,0.0,0.0,3.56477456214667,0.0,0.0,0.0,0.0,0.0,0.0,0.0,0.0,0.0,0.0,0.0,0.0,0.0,0.0,
0.9708,3.474922845566291,3.474922845566291,3.747864788757428,0.0,0.0,0.0,3.56590349329667,0.0,0.0,0.0,0.0,0.0,0.0,0.0,0.0,0.0,0.0,0.0,0.0,0.0,0.0,
0.9944,3.476005324724736,3.476005324724736,3.74915996240105,0.0,0.0,0.0,3.5670568706168404,0.0,0.0,0.0,0.0,0.0,0.0,0.0,0.0,0.0,0.0,0.0,0.0,0.0,0.0,
1.0181,3.4771199999793354,3.4771199999793354,3.7504937437745505,0.0,0.0,0.0,3.5682445812444072,0.0,0.0,0.0,0.0,0.0,0.0,0.0,0.0,0.0,0.0,0.0,0.0,0.0,0.0,
1.0418,3.478262449937733,3.478262449937733,3.7518608493676315,0.0,0.0,0.0,3.5694619164143657,0.0,0.0,0.0,0.0,0.0,0.0,0.0,0.0,0.0,0.0,0.0,0.0,0.0,0.0,
1.0655,3.4794327847266193,3.4794327847266193,3.753261417601209,0.0,0.0,0.0,3.5707089956848157,0.0,0.0,0.0,0.0,0.0,0.0,0.0,0.0,0.0,0.0,0.0,0.0,0.0,0.0,
1.0892,3.4806311174719062,3.4806311174719062,3.7546955906812225,0.0,0.0,0.0,3.5719859418750115,0.0,0.0,0.0,0.0,0.0,0.0,0.0,0.0,0.0,0.0,0.0,0.0,0.0,0.0,
1.1128,3.48185233022401,3.48185233022401,3.756157249758947,0.0,0.0,0.0,3.573287303402322,0.0,0.0,0.0,0.0,0.0,0.0,0.0,0.0,0.0,0.0,0.0,0.0,0.0,0.0,
1.1365,3.483106891046504,3.483106891046504,3.7576589311512447,0.0,0.0,0.0,3.5746242377480844,0.0,0.0,0.0,0.0,0.0,0.0,0.0,0.0,0.0,0.0,0.0,0.0,0.0,0.0,
1.1602,3.4843898070242325,3.4843898070242325,3.759194666510981,0.0,0.0,0.0,3.5759914268531485,0.0,0.0,0.0,0.0,0.0,0.0,0.0,0.0,0.0,0.0,0.0,0.0,0.0,0.0,
1.1839,3.485701203620673,3.485701203620673,3.7607646136245974,0.0,0.0,0.0,3.5773890069553147,0.0,0.0,0.0,0.0,0.0,0.0,0.0,0.0,0.0,0.0,0.0,0.0,0.0,0.0,
1.2075,3.4870354951621962,3.4870354951621962,3.7623620925711125,0.0,0.0,0.0,3.578811027631835,0.0,0.0,0.0,0.0,0.0,0.0,0.0,0.0,0.0,0.0,0.0,0.0,0.0,0.0,
1.2312,3.4884041206008565,3.4884041206008565,3.764000806595442,0.0,0.0,0.0,3.580269682599052,0.0,0.0,0.0,0.0,0.0,0.0,0.0,0.0,0.0,0.0,0.0,0.0,0.0,0.0,
1.2549,3.4898016217224423,3.4898016217224423,3.7656742293381886,0.0,0.0,0.0,3.5817591575943575,0.0,0.0,0.0,0.0,0.0,0.0,0.0,0.0,0.0,0.0,0.0,0.0,0.0,0.0,
1.2786,3.491228136947493,3.491228136947493,3.767382534966009,0.0,0.0,0.0,3.583279602953665,0.0,0.0,0.0,0.0,0.0,0.0,0.0,0.0,0.0,0.0,0.0,0.0,0.0,0.0,
1.3023,3.4926838080451525,3.4926838080451525,3.769125901881593,0.0,0.0,0.0,3.5848311726572994,0.0,0.0,0.0,0.0,0.0,0.0,0.0,0.0,0.0,0.0,0.0,0.0,0.0,0.0,
1.3259,3.4941624527107074,3.4941624527107074,3.7708969337938996,0.0,0.0,0.0,3.586407279738438,0.0,0.0,0.0,0.0,0.0,0.0,0.0,0.0,0.0,0.0,0.0,0.0,0.0,0.0,
1.3496,3.4956767499042356,3.4956767499042356,3.772710825832247,0.0,0.0,0.0,3.588021441880239,0.0,0.0,0.0,0.0,0.0,0.0,0.0,0.0,0.0,0.0,0.0,0.0,0.0,0.0,
1.3733,3.4972206481762003,3.4972206481762003,3.774560339554655,0.0,0.0,0.0,3.5896672119690187,0.0,0.0,0.0,0.0,0.0,0.0,0.0,0.0,0.0,0.0,0.0,0.0,0.0,0.0,
1.397,3.498794303137878,3.498794303137878,3.7764456708867162,0.0,0.0,0.0,3.5913447590541576,0.0,0.0,0.0,0.0,0.0,0.0,0.0,0.0,0.0,0.0,0.0,0.0,0.0,0.0,
1.4206,3.5003910447916904,3.5003910447916904,3.7783588373861035,0.0,0.0,0.0,3.593046975656495,0.0,0.0,0.0,0.0,0.0,0.0,0.0,0.0,0.0,0.0,0.0,0.0,0.0,0.0,
1.4443,3.502024567103273,3.502024567103273,3.7803162566775534,0.0,0.0,0.0,3.594788463628033,0.0,0.0,0.0,0.0,0.0,0.0,0.0,0.0,0.0,0.0,0.0,0.0,0.0,0.0,
1.468,3.503688333956672,3.503688333956672,3.7823101079913624,0.0,0.0,0.0,3.596562258634902,0.0,0.0,0.0,0.0,0.0,0.0,0.0,0.0,0.0,0.0,0.0,0.0,0.0,0.0,
1.4917,3.5053825156112026,3.5053825156112026,3.7843406058168156,0.0,0.0,0.0,3.5983685456797403,0.0,0.0,0.0,0.0,0.0,0.0,0.0,0.0,0.0,0.0,0.0,0.0,0.0,0.0,
1.5154,3.5071072861292554,3.5071072861292554,3.7864079694662287,0.0,0.0,0.0,3.6002075139082463,0.0,0.0,0.0,0.0,0.0,0.0,0.0,0.0,0.0,0.0,0.0,0.0,0.0,0.0,
1.539,3.508855351216393,3.508855351216393,3.788503465361326,0.0,0.0,0.0,3.602071389264704,0.0,0.0,0.0,0.0,0.0,0.0,0.0,0.0,0.0,0.0,0.0,0.0,0.0,0.0,
1.5627,3.510641706181075,3.510641706181075,3.790645080312052,0.0,0.0,0.0,3.603976164224734,0.0,0.0,0.0,0.0,0.0,0.0,0.0,0.0,0.0,0.0,0.0,0.0,0.0,0.0,
1.5864,3.5124591948124477,3.5124591948124477,3.7928242477249032,0.0,0.0,0.0,3.605914212449933,0.0,0.0,0.0,0.0,0.0,0.0,0.0,0.0,0.0,0.0,0.0,0.0,0.0,0.0,
1.6101,3.514308006966365,3.514308006966365,3.7950412069553763,0.0,0.0,0.0,3.6078857402960356,0.0,0.0,0.0,0.0,0.0,0.0,0.0,0.0,0.0,0.0,0.0,0.0,0.0,0.0,
1.6337,3.516180336241622,3.516180336241622,3.7972866075755665,0.0,0.0,0.0,3.6098824266862706,0.0,0.0,0.0,0.0,0.0,0.0,0.0,0.0,0.0,0.0,0.0,0.0,0.0,0.0,
1.6574,3.518092247274484,3.518092247274484,3.7995797273976217,0.0,0.0,0.0,3.61192140731553,0.0,0.0,0.0,0.0,0.0,0.0,0.0,0.0,0.0,0.0,0.0,0.0,0.0,0.0,
1.6811,3.5200360754679703,3.5200360754679703,3.801911387685343,0.0,0.0,0.0,3.613994512873761,0.0,0.0,0.0,0.0,0.0,0.0,0.0,0.0,0.0,0.0,0.0,0.0,0.0,0.0,
1.7048,3.52201202751135,3.52201202751135,3.8042818491807067,0.0,0.0,0.0,3.6161019680678024,0.0,0.0,0.0,0.0,0.0,0.0,0.0,0.0,0.0,0.0,0.0,0.0,0.0,0.0,
1.7284,3.524011772469833,3.524011772469833,3.806681128966031,0.0,0.0,0.0,3.618234891301899,0.0,0.0,0.0,0.0,0.0,0.0,0.0,0.0,0.0,0.0,0.0,0.0,0.0,0.0,
1.7521,3.526052472111326,3.526052472111326,3.80912983095348,0.0,0.0,0.0,3.6204115917253774,0.0,0.0,0.0,0.0,0.0,0.0,0.0,0.0,0.0,0.0,0.0,0.0,0.0,0.0,
1.7758,3.5281259413717905,3.5281259413717905,3.8116181490646412,0.0,0.0,0.0,3.6226233439360738,0.0,0.0,0.0,0.0,0.0,0.0,0.0,0.0,0.0,0.0,0.0,0.0,0.0,0.0,
1.7995,3.530232404937329,3.530232404937329,3.8141463669311846,0.0,0.0,0.0,3.624870392268614,0.0,0.0,0.0,0.0,0.0,0.0,0.0,0.0,0.0,0.0,0.0,0.0,0.0,0.0,
1.8232,3.532372092196093,3.532372092196093,3.81671477416906,0.0,0.0,0.0,3.6271529861870824,0.0,0.0,0.0,0.0,0.0,0.0,0.0,0.0,0.0,0.0,0.0,0.0,0.0,0.0,
1.8468,3.534535997312419,3.534535997312419,3.8193125730312794,0.0,0.0,0.0,3.6294615225520395,0.0,0.0,0.0,0.0,0.0,0.0,0.0,0.0,0.0,0.0,0.0,0.0,0.0,0.0,
1.8705,3.5367426966608724,3.5367426966608724,3.8219620796009264,0.0,0.0,0.0,3.631815824307557,0.0,0.0,0.0,0.0,0.0,0.0,0.0,0.0,0.0,0.0,0.0,0.0,0.0,0.0,
1.8942,3.5389833358885743,3.5389833358885743,3.824652680079503,0.0,0.0,0.0,3.634206450618884,0.0,0.0,0.0,0.0,0.0,0.0,0.0,0.0,0.0,0.0,0.0,0.0,0.0,0.0,
1.9179,3.5412581640324334,3.5412581640324334,3.8273846891068444,0.0,0.0,0.0,3.63663367239057,0.0,0.0,0.0,0.0,0.0,0.0,0.0,0.0,0.0,0.0,0.0,0.0,0.0,0.0,
1.9415,3.54355761879544,3.54355761879544,3.8301466362190273,0.0,0.0,0.0,3.6390872912699694,0.0,0.0,0.0,0.0,0.0,0.0,0.0,0.0,0.0,0.0,0.0,0.0,0.0,0.0,
1.9652,3.545901445584166,3.545901445584166,3.8329622544603414,0.0,0.0,0.0,3.641588381876225,0.0,0.0,0.0,0.0,0.0,0.0,0.0,0.0,0.0,0.0,0.0,0.0,0.0,0.0,
1.9889,3.5482802385331462,3.5482802385331462,3.835820263589153,0.0,0.0,0.0,3.6441269135518155,0.0,0.0,0.0,0.0,0.0,0.0,0.0,0.0,0.0,0.0,0.0,0.0,0.0,0.0,
2.0126,3.5506942678287494,3.5506942678287494,3.8387210052077543,0.0,0.0,0.0,3.6467031802884176,0.0,0.0,0.0,0.0,0.0,0.0,0.0,0.0,0.0,0.0,0.0,0.0,0.0,0.0,
2.0363,3.5531438092059093,3.5531438092059093,3.841664827996397,0.0,0.0,0.0,3.649317482136072,0.0,0.0,0.0,0.0,0.0,0.0,0.0,0.0,0.0,0.0,0.0,0.0,0.0,0.0,
2.0599,3.5556185818171895,3.5556185818171895,3.844639391623394,0.0,0.0,0.0,3.651958851752591,0.0,0.0,0.0,0.0,0.0,0.0,0.0,0.0,0.0,0.0,0.0,0.0,0.0,0.0,
2.0836,3.558139844450971,3.558139844450971,3.847670266223215,0.0,0.0,0.0,3.654649985041719,0.0,0.0,0.0,0.0,0.0,0.0,0.0,0.0,0.0,0.0,0.0,0.0,0.0,0.0,
2.1073,3.560697479512884,3.560697479512884,3.850745310340842,0.0,0.0,0.0,3.65738008978887,0.0,0.0,0.0,0.0,0.0,0.0,0.0,0.0,0.0,0.0,0.0,0.0,0.0,0.0,
2.131,3.5632917860222513,3.5632917860222513,3.853864902376611,0.0,0.0,0.0,3.6601494914737045,0.0,0.0,0.0,0.0,0.0,0.0,0.0,0.0,0.0,0.0,0.0,0.0,0.0,0.0,
2.1546,3.565911888547226,3.565911888547226,3.8570159811730638,0.0,0.0,0.0,3.6629465860891717,0.0,0.0,0.0,0.0,0.0,0.0,0.0,0.0,0.0,0.0,0.0,0.0,0.0,0.0,
2.1783,3.568580301628989,3.568580301628989,3.8602256435865243,0.0,0.0,0.0,3.6657954156148342,0.0,0.0,0.0,0.0,0.0,0.0,0.0,0.0,0.0,0.0,0.0,0.0,0.0,0.0,
2.202,3.571286319102515,3.571286319102515,3.8634810349715534,0.0,0.0,0.0,3.6686845577255274,0.0,0.0,0.0,0.0,0.0,0.0,0.0,0.0,0.0,0.0,0.0,0.0,0.0,0.0,
2.2257,3.5740302652167517,3.5740302652167517,3.866782565960235,0.0,0.0,0.0,3.6716143654645794,0.0,0.0,0.0,0.0,0.0,0.0,0.0,0.0,0.0,0.0,0.0,0.0,0.0,0.0,
2.2493,3.576800650757273,3.576800650757273,3.870116430313537,0.0,0.0,0.0,3.6745725772760274,0.0,0.0,0.0,0.0,0.0,0.0,0.0,0.0,0.0,0.0,0.0,0.0,0.0,0.0,
2.273,3.5796212900492987,3.5796212900492987,3.873511307402335,0.0,0.0,0.0,3.6775846291669776,0.0,0.0,0.0,0.0,0.0,0.0,0.0,0.0,0.0,0.0,0.0,0.0,0.0,0.0,
2.2967,3.5824808697059773,3.5824808697059773,3.876953605834799,0.0,0.0,0.0,3.6806384484155843,0.0,0.0,0.0,0.0,0.0,0.0,0.0,0.0,0.0,0.0,0.0,0.0,0.0,0.0,
2.3204,3.585379741394586,3.585379741394586,3.8804437712997863,0.0,0.0,0.0,3.6837344180296525,0.0,0.0,0.0,0.0,0.0,0.0,0.0,0.0,0.0,0.0,0.0,0.0,0.0,0.0,
2.3441,3.58831826401848,3.58831826401848,3.8839822587425124,0.0,0.0,0.0,3.6868729289264905,0.0,0.0,0.0,0.0,0.0,0.0,0.0,0.0,0.0,0.0,0.0,0.0,0.0,0.0,
2.3677,3.5912841516093432,3.5912841516093432,3.887554293243535,0.0,0.0,0.0,3.6900408654874073,0.0,0.0,0.0,0.0,0.0,0.0,0.0,0.0,0.0,0.0,0.0,0.0,0.0,0.0,
2.3914,3.5943029113359057,3.5943029113359057,3.891190618675347,0.0,0.0,0.0,3.693265480449053,0.0,0.0,0.0,0.0,0.0,0.0,0.0,0.0,0.0,0.0,0.0,0.0,0.0,0.0,
2.4151,3.597362442113521,3.597362442113521,3.8948766864792264,0.0,0.0,0.0,3.6965338569020894,0.0,0.0,0.0,0.0,0.0,0.0,0.0,0.0,0.0,0.0,0.0,0.0,0.0,0.0,
2.4388,3.6004631333972044,3.6004631333972044,3.89861299069898,0.0,0.0,0.0,3.6998464191644627,0.0,0.0,0.0,0.0,0.0,0.0,0.0,0.0,0.0,0.0,0.0,0.0,0.0,0.0,
2.4624,3.6035920364183958,3.6035920364183958,3.902383949319846,0.0,0.0,0.0,3.703189340718879,0.0,0.0,0.0,0.0,0.0,0.0,0.0,0.0,0.0,0.0,0.0,0.0,0.0,0.0,
2.4861,3.6067760716652995,3.6067760716652995,3.90622203276289,0.0,0.0,0.0,3.706591392031163,0.0,0.0,0.0,0.0,0.0,0.0,0.0,0.0,0.0,0.0,0.0,0.0,0.0,0.0,
2.5098,3.610002483256446,3.610002483256446,3.9101118955561813,0.0,0.0,0.0,3.7100389540230245,0.0,0.0,0.0,0.0,0.0,0.0,0.0,0.0,0.0,0.0,0.0,0.0,0.0,0.0,
2.5335,3.6132716940743497,3.6132716940743497,3.9140540745484085,0.0,0.0,0.0,3.7135324875657028,0.0,0.0,0.0,0.0,0.0,0.0,0.0,0.0,0.0,0.0,0.0,0.0,0.0,0.0,
2.5572,3.6165841358608266,3.6165841358608266,3.918049117936692,0.0,0.0,0.0,3.7170724632194485,0.0,0.0,0.0,0.0,0.0,0.0,0.0,0.0,0.0,0.0,0.0,0.0,0.0,0.0,
2.5808,3.6199259962393673,3.6199259962393673,3.9220803903671793,0.0,0.0,0.0,3.7206441276153046,0.0,0.0,0.0,0.0,0.0,0.0,0.0,0.0,0.0,0.0,0.0,0.0,0.0,0.0,
2.6045,3.6233260445583255,3.6233260445583255,3.9261826248470197,0.0,0.0,0.0,3.7242782379878903,0.0,0.0,0.0,0.0,0.0,0.0,0.0,0.0,0.0,0.0,0.0,0.0,0.0,0.0,
2.6282,3.626770672407307,3.626770672407307,3.9303394366681905,0.0,0.0,0.0,3.7279602604942688,0.0,0.0,0.0,0.0,0.0,0.0,0.0,0.0,0.0,0.0,0.0,0.0,0.0,0.0,
2.6519,3.6302603490983856,3.6302603490983856,3.9345514221662734,0.0,0.0,0.0,3.7316907067876812,0.0,0.0,0.0,0.0,0.0,0.0,0.0,0.0,0.0,0.0,0.0,0.0,0.0,0.0,
2.6755,3.633780541123184,3.633780541123184,3.938801064954345,0.0,0.0,0.0,3.735454049066904,0.0,0.0,0.0,0.0,0.0,0.0,0.0,0.0,0.0,0.0,0.0,0.0,0.0,0.0,
2.6992,3.6373615683988145,3.6373615683988145,3.943124998978355,0.0,0.0,0.0,3.7392827119253282,0.0,0.0,0.0,0.0,0.0,0.0,0.0,0.0,0.0,0.0,0.0,0.0,0.0,0.0,
2.7229,3.6409891112089303,3.6409891112089303,3.9475059710113345,0.0,0.0,0.0,3.743161397809732,0.0,0.0,0.0,0.0,0.0,0.0,0.0,0.0,0.0,0.0,0.0,0.0,0.0,0.0,
2.7466,3.6446636802644483,3.6446636802644483,3.951944630449461,0.0,0.0,0.0,3.7470906636594528,0.0,0.0,0.0,0.0,0.0,0.0,0.0,0.0,0.0,0.0,0.0,0.0,0.0,0.0,
2.7703,3.648385797297392,3.648385797297392,3.9564416408164185,0.0,0.0,0.0,3.751071078470401,0.0,0.0,0.0,0.0,0.0,0.0,0.0,0.0,0.0,0.0,0.0,0.0,0.0,0.0,
2.7939,3.6521399855691516,3.6521399855691516,3.96097833136008,0.0,0.0,0.0,3.7550861008327945,0.0,0.0,0.0,0.0,0.0,0.0,0.0,0.0,0.0,0.0,0.0,0.0,0.0,0.0,
2.8176,3.655958602928128,3.655958602928128,3.9655938390230805,0.0,0.0,0.0,3.7591703482931123,0.0,0.0,0.0,0.0,0.0,0.0,0.0,0.0,0.0,0.0,0.0,0.0,0.0,0.0,
2.8413,3.6598264000885985,3.6598264000885985,3.9702697736179604,0.0,0.0,0.0,3.763307524598386,0.0,0.0,0.0,0.0,0.0,0.0,0.0,0.0,0.0,0.0,0.0,0.0,0.0,0.0,
2.865,3.6637439457399026,3.6637439457399026,3.975006858862668,0.0,0.0,0.0,3.767498250114158,0.0,0.0,0.0,0.0,0.0,0.0,0.0,0.0,0.0,0.0,0.0,0.0,0.0,0.0,
2.8886,3.6676949724566144,3.6676949724566144,3.979785454628674,0.0,0.0,0.0,3.7717251331806345,0.0,0.0,0.0,0.0,0.0,0.0,0.0,0.0,0.0,0.0,0.0,0.0,0.0,0.0,
2.9123,3.67171355549374,3.67171355549374,3.9846468110786053,0.0,0.0,0.0,3.776024640688695,0.0,0.0,0.0,0.0,0.0,0.0,0.0,0.0,0.0,0.0,0.0,0.0,0.0,0.0,
2.936,3.6757836670556854,3.6757836670556854,3.9895715841659047,0.0,0.0,0.0,3.7803796394257585,0.0,0.0,0.0,0.0,0.0,0.0,0.0,0.0,0.0,0.0,0.0,0.0,0.0,0.0,
2.9597,3.6799059279697164,3.6799059279697164,3.9945605644373754,0.0,0.0,0.0,3.7847908067922695,0.0,0.0,0.0,0.0,0.0,0.0,0.0,0.0,0.0,0.0,0.0,0.0,0.0,0.0,
2.9833,3.684063244995645,3.684063244995645,3.999593097703298,0.0,0.0,0.0,3.7892398625648624,0.0,0.0,0.0,0.0,0.0,0.0,0.0,0.0,0.0,0.0,0.0,0.0,0.0,0.0,
3.007,3.6882914964310816,3.6882914964310816,4.004712656395814,0.0,0.0,0.0,3.7937652164193256,0.0,0.0,0.0,0.0,0.0,0.0,0.0,0.0,0.0,0.0,0.0,0.0,0.0,0.0,
3.0307,3.6925738421120533,3.6925738421120533,4.0098988995424225,0.0,0.0,0.0,3.79834886125551,0.0,0.0,0.0,0.0,0.0,0.0,0.0,0.0,0.0,0.0,0.0,0.0,0.0,0.0,
3.0544,3.69691096096605,3.69691096096605,4.015152692136577,0.0,0.0,0.0,3.8029915380228925,0.0,0.0,0.0,0.0,0.0,0.0,0.0,0.0,0.0,0.0,0.0,0.0,0.0,0.0,
3.0781,3.701303547499044,3.701303547499044,4.020474919126697,0.0,0.0,0.0,3.8076940047082615,0.0,0.0,0.0,0.0,0.0,0.0,0.0,0.0,0.0,0.0,0.0,0.0,0.0,0.0,
