energies(eV),real_xx,real_yy,real_zz,real_xy,real_yz,real_xz,real_ave,imag_xx,imag_yy,imag_zz,imag_xy,imag_yz,imag_xz,imag_ave,absorption_xx,absorption_yy,absorption_zz,absorption_xy,absorption_yz,absorption_xz,absorption_ave,band_gap
0.0,2.097807903997605,2.097807903997605,2.074098974999594,0.0,0.0,0.0,2.089904927664935,0.0,0.0,0.0,0.0,0.0,0.0,0.0,0.0,0.0,0.0,0.0,0.0,0.0,0.0,8.3352
0.0157,2.0978090775549907,2.0978090775549907,2.0741000805063488,0.0,0.0,0.0,2.089906078538777,0.0,0.0,0.0,0.0,0.0,0.0,0.0,0.0,0.0,0.0,0.0,0.0,0.0,0.0,
0.0314,2.097812598246493,2.097812598246493,2.074103397044046,0.0,0.0,0.0,2.0899095311790106,0.0,0.0,0.0,0.0,0.0,0.0,0.0,0.0,0.0,0.0,0.0,0.0,0.0,0.0,
0.0471,2.0978184661301325,2.0978184661301325,2.074108924665004,0.0,0.0,0.0,2.0899152856417564,0.0,0.0,0.0,0.0,0.0,0.0,0.0,0.0,0.0,0.0,0.0,0.0,0.0,0.0,
0.0628,2.0978266813026285,2.0978266813026285,2.0741166634563832,0.0,0.0,0.0,2.0899233420205467,0.0,0.0,0.0,0.0,0.0,0.0,0.0,0.0,0.0,0.0,0.0,0.0,0.0,0.0,
0.0785,2.097837243899371,2.097837243899371,2.0741266135402636,0.0,0.0,0.0,2.0899337004463354,0.0,0.0,0.0,0.0,0.0,0.0,0.0,0.0,0.0,0.0,0.0,0.0,0.0,0.0,
0.0942,2.097850154094484,2.097850154094484,2.074138775073583,0.0,0.0,0.0,2.089946361087517,0.0,0.0,0.0,0.0,0.0,0.0,0.0,0.0,0.0,0.0,0.0,0.0,0.0,0.0,
0.1098,2.0978653074860216,2.0978653074860216,2.074153049700249,0.0,0.0,0.0,2.089961221557431,0.0,0.0,0.0,0.0,0.0,0.0,0.0,0.0,0.0,0.0,0.0,0.0,0.0,0.0,
0.1255,2.097882898598316,2.097882898598316,2.0741696206537226,0.0,0.0,0.0,2.0899784726167847,0.0,0.0,0.0,0.0,0.0,0.0,0.0,0.0,0.0,0.0,0.0,0.0,0.0,0.0,
0.1412,2.0979028380615965,2.0979028380615965,2.074188403735076,0.0,0.0,0.0,2.089998026619423,0.0,0.0,0.0,0.0,0.0,0.0,0.0,0.0,0.0,0.0,0.0,0.0,0.0,0.0,
0.1569,2.097925126204622,2.097925126204622,2.0742093992406554,0.0,0.0,0.0,2.0900198838832997,0.0,0.0,0.0,0.0,0.0,0.0,0.0,0.0,0.0,0.0,0.0,0.0,0.0,0.0,
0.1726,2.09794976339491,2.09794976339491,2.074232607501746,0.0,0.0,0.0,2.090044044763855,0.0,0.0,0.0,0.0,0.0,0.0,0.0,0.0,0.0,0.0,0.0,0.0,0.0,0.0,
0.1883,2.0979767500387565,2.0979767500387565,2.074258028884589,0.0,0.0,0.0,2.090070509654034,0.0,0.0,0.0,0.0,0.0,0.0,0.0,0.0,0.0,0.0,0.0,0.0,0.0,0.0,
0.204,2.0980060865812526,2.0980060865812526,2.0742856637903904,0.0,0.0,0.0,2.0900992789842987,0.0,0.0,0.0,0.0,0.0,0.0,0.0,0.0,0.0,0.0,0.0,0.0,0.0,0.0,
0.2197,2.098037773506312,2.098037773506312,2.074315512655354,0.0,0.0,0.0,2.0901303532226594,0.0,0.0,0.0,0.0,0.0,0.0,0.0,0.0,0.0,0.0,0.0,0.0,0.0,0.0,
0.2354,2.098071811336701,2.098071811336701,2.07434757595069,0.0,0.0,0.0,2.0901637328746974,0.0,0.0,0.0,0.0,0.0,0.0,0.0,0.0,0.0,0.0,0.0,0.0,0.0,0.0,
0.2511,2.098108200634045,2.098108200634045,2.074381854182633,0.0,0.0,0.0,2.090199418483574,0.0,0.0,0.0,0.0,0.0,0.0,0.0,0.0,0.0,0.0,0.0,0.0,0.0,0.0,
0.2668,2.098146941998869,2.098146941998869,2.0744183478924887,0.0,0.0,0.0,2.0902374106300754,0.0,0.0,0.0,0.0,0.0,0.0,0.0,0.0,0.0,0.0,0.0,0.0,0.0,0.0,
0.2825,2.098188036070634,2.098188036070634,2.0744570576566437,0.0,0.0,0.0,2.090277709932637,0.0,0.0,0.0,0.0,0.0,0.0,0.0,0.0,0.0,0.0,0.0,0.0,0.0,0.0,
0.2982,2.0982314835277567,2.0982314835277567,2.074497984086568,0.0,0.0,0.0,2.0903203170473605,0.0,0.0,0.0,0.0,0.0,0.0,0.0,0.0,0.0,0.0,0.0,0.0,0.0,0.0,
0.3139,2.0982772850876454,2.0982772850876454,2.0745411278289048,0.0,0.0,0.0,2.090365232668065,0.0,0.0,0.0,0.0,0.0,0.0,0.0,0.0,0.0,0.0,0.0,0.0,0.0,0.0,
0.3295,2.098325127324502,2.098325127324502,2.0745861936170202,0.0,0.0,0.0,2.0904121494220083,0.0,0.0,0.0,0.0,0.0,0.0,0.0,0.0,0.0,0.0,0.0,0.0,0.0,0.0,
0.3452,2.098375624391519,2.098375624391519,2.0746337599305056,0.0,0.0,0.0,2.090461669571181,0.0,0.0,0.0,0.0,0.0,0.0,0.0,0.0,0.0,0.0,0.0,0.0,0.0,0.0,
0.3609,2.0984284779423996,2.0984284779423996,2.074683545702527,0.0,0.0,0.0,2.090513500529109,0.0,0.0,0.0,0.0,0.0,0.0,0.0,0.0,0.0,0.0,0.0,0.0,0.0,0.0,
0.3766,2.098483688850652,2.098483688850652,2.0747355517203667,0.0,0.0,0.0,2.090567643140557,0.0,0.0,0.0,0.0,0.0,0.0,0.0,0.0,0.0,0.0,0.0,0.0,0.0,0.0,
0.3923,2.098541258028984,2.098541258028984,2.074789778806611,0.0,0.0,0.0,2.090624098288193,0.0,0.0,0.0,0.0,0.0,0.0,0.0,0.0,0.0,0.0,0.0,0.0,0.0,0.0,
0.408,2.098601186429302,2.098601186429302,2.0748462278191964,0.0,0.0,0.0,2.0906828668926,0.0,0.0,0.0,0.0,0.0,0.0,0.0,0.0,0.0,0.0,0.0,0.0,0.0,0.0,
0.4237,2.0986634750428292,2.0986634750428292,2.0749048996514485,0.0,0.0,0.0,2.090743949912369,0.0,0.0,0.0,0.0,0.0,0.0,0.0,0.0,0.0,0.0,0.0,0.0,0.0,0.0,
0.4394,2.0987281249001057,2.0987281249001057,2.074965795232112,0.0,0.0,0.0,2.0908073483441076,0.0,0.0,0.0,0.0,0.0,0.0,0.0,0.0,0.0,0.0,0.0,0.0,0.0,0.0,
0.4551,2.098795137071054,2.098795137071054,2.0750289155254307,0.0,0.0,0.0,2.090873063222513,0.0,0.0,0.0,0.0,0.0,0.0,0.0,0.0,0.0,0.0,0.0,0.0,0.0,0.0,
0.4708,2.0988645126650374,2.0988645126650374,2.075094261531137,0.0,0.0,0.0,2.090941095620404,0.0,0.0,0.0,0.0,0.0,0.0,0.0,0.0,0.0,0.0,0.0,0.0,0.0,0.0,
0.4865,2.0989362528309012,2.0989362528309012,2.0751618342845637,0.0,0.0,0.0,2.0910114466487886,0.0,0.0,0.0,0.0,0.0,0.0,0.0,0.0,0.0,0.0,0.0,0.0,0.0,0.0,
0.5022,2.09901035875704,2.09901035875704,2.075231634856638,0.0,0.0,0.0,2.091084117456906,0.0,0.0,0.0,0.0,0.0,0.0,0.0,0.0,0.0,0.0,0.0,0.0,0.0,0.0,
0.5179,2.09908683167147,2.09908683167147,2.0753036643539606,0.0,0.0,0.0,2.0911591092323003,0.0,0.0,0.0,0.0,0.0,0.0,0.0,0.0,0.0,0.0,0.0,0.0,0.0,0.0,
0.5336,2.0991656728418446,2.0991656728418446,2.0753779239188597,0.0,0.0,0.0,2.0912364232008493,0.0,0.0,0.0,0.0,0.0,0.0,0.0,0.0,0.0,0.0,0.0,0.0,0.0,0.0,
0.5492,2.0992463588086383,2.0992463588086383,2.075453920463667,0.0,0.0,0.0,2.091315546026981,0.0,0.0,0.0,0.0,0.0,0.0,0.0,0.0,0.0,0.0,0.0,0.0,0.0,0.0,
0.5649,2.099329925347237,2.099329925347237,2.0755326295104477,0.0,0.0,0.0,2.0913974934016406,0.0,0.0,0.0,0.0,0.0,0.0,0.0,0.0,0.0,0.0,0.0,0.0,0.0,0.0,
0.5806,2.0994158641744893,2.0994158641744893,2.0756135722585745,0.0,0.0,0.0,2.0914817668691845,0.0,0.0,0.0,0.0,0.0,0.0,0.0,0.0,0.0,0.0,0.0,0.0,0.0,0.0,
0.5963,2.0995041767171405,2.0995041767171405,2.0756967499936065,0.0,0.0,0.0,2.091568367809296,0.0,0.0,0.0,0.0,0.0,0.0,0.0,0.0,0.0,0.0,0.0,0.0,0.0,0.0,
0.612,2.0995948644419187,2.0995948644419187,2.0757821640370833,0.0,0.0,0.0,2.0916572976403067,0.0,0.0,0.0,0.0,0.0,0.0,0.0,0.0,0.0,0.0,0.0,0.0,0.0,0.0,
0.6277,2.0996879288556487,2.0996879288556487,2.0758698157466347,0.0,0.0,0.0,2.0917485578193107,0.0,0.0,0.0,0.0,0.0,0.0,0.0,0.0,0.0,0.0,0.0,0.0,0.0,0.0,
0.6434,2.0997833715053047,2.0997833715053047,2.075959706516028,0.0,0.0,0.0,2.0918421498422126,0.0,0.0,0.0,0.0,0.0,0.0,0.0,0.0,0.0,0.0,0.0,0.0,0.0,0.0,
0.6591,2.0998811939780744,2.0998811939780744,2.0760518377752337,0.0,0.0,0.0,2.091938075243794,0.0,0.0,0.0,0.0,0.0,0.0,0.0,0.0,0.0,0.0,0.0,0.0,0.0,0.0,
0.6748,2.09998139790147,2.09998139790147,2.076146210990495,0.0,0.0,0.0,2.0920363355978115,0.0,0.0,0.0,0.0,0.0,0.0,0.0,0.0,0.0,0.0,0.0,0.0,0.0,0.0,
0.6905,2.100083984943385,2.100083984943385,2.0762428276644003,0.0,0.0,0.0,2.092136932517057,0.0,0.0,0.0,0.0,0.0,0.0,0.0,0.0,0.0,0.0,0.0,0.0,0.0,0.0,
0.7062,2.100188956812193,2.100188956812193,2.0763416893359574,0.0,0.0,0.0,2.092239867653448,0.0,0.0,0.0,0.0,0.0,0.0,0.0,0.0,0.0,0.0,0.0,0.0,0.0,0.0,
0.7219,2.10029631525682,2.10029631525682,2.0764427975806656,0.0,0.0,0.0,2.0923451426981017,0.0,0.0,0.0,0.0,0.0,0.0,0.0,0.0,0.0,0.0,0.0,0.0,0.0,0.0,
0.7376,2.100406062066841,2.100406062066841,2.0765461540105843,0.0,0.0,0.0,2.092452759381422,0.0,0.0,0.0,0.0,0.0,0.0,0.0,0.0,0.0,0.0,0.0,0.0,0.0,0.0,
0.7532,2.1005174772566075,2.1005174772566075,2.0766510805001,0.0,0.0,0.0,2.092562011671105,0.0,0.0,0.0,0.0,0.0,0.0,0.0,0.0,0.0,0.0,0.0,0.0,0.0,0.0,
0.7689,2.100631991087081,2.100631991087081,2.07675892393699,0.0,0.0,0.0,2.0926743020370506,0.0,0.0,0.0,0.0,0.0,0.0,0.0,0.0,0.0,0.0,0.0,0.0,0.0,0.0,
0.7846,2.100748898884156,2.100748898884156,2.0768690206043776,0.0,0.0,0.0,2.092788939457563,0.0,0.0,0.0,0.0,0.0,0.0,0.0,0.0,0.0,0.0,0.0,0.0,0.0,0.0,
0.8003,2.1008682026006555,2.1008682026006555,2.076981372261158,0.0,0.0,0.0,2.092905925820823,0.0,0.0,0.0,0.0,0.0,0.0,0.0,0.0,0.0,0.0,0.0,0.0,0.0,0.0,
0.816,2.100989904230512,2.100989904230512,2.0770959807031835,0.0,0.0,0.0,2.0930252630547357,0.0,0.0,0.0,0.0,0.0,0.0,0.0,0.0,0.0,0.0,0.0,0.0,0.0,0.0,
0.8317,2.101114005808898,2.101114005808898,2.0772128477633753,0.0,0.0,0.0,2.0931469531270572,0.0,0.0,0.0,0.0,0.0,0.0,0.0,0.0,0.0,0.0,0.0,0.0,0.0,0.0,
0.8474,2.101240509412273,2.101240509412273,2.077331975311802,0.0,0.0,0.0,2.0932709980454494,0.0,0.0,0.0,0.0,0.0,0.0,0.0,0.0,0.0,0.0,0.0,0.0,0.0,0.0,
0.8631,2.1013694171585495,2.1013694171585495,2.077453365255765,0.0,0.0,0.0,2.0933973998576216,0.0,0.0,0.0,0.0,0.0,0.0,0.0,0.0,0.0,0.0,0.0,0.0,0.0,0.0,
0.8788,2.10150073120716,2.10150073120716,2.0775770195399033,0.0,0.0,0.0,2.0935261606514075,0.0,0.0,0.0,0.0,0.0,0.0,0.0,0.0,0.0,0.0,0.0,0.0,0.0,0.0,
0.8945,2.101634453759183,2.101634453759183,2.0777029401462705,0.0,0.0,0.0,2.093657282554879,0.0,0.0,0.0,0.0,0.0,0.0,0.0,0.0,0.0,0.0,0.0,0.0,0.0,0.0,
0.9102,2.101770587057449,2.101770587057449,2.07783112909446,0.0,0.0,0.0,2.093790767736453,0.0,0.0,0.0,0.0,0.0,0.0,0.0,0.0,0.0,0.0,0.0,0.0,0.0,0.0,
0.9259,2.101909133386655,2.101909133386655,2.077961588441661,0.0,0.0,0.0,2.0939266184049905,0.0,0.0,0.0,0.0,0.0,0.0,0.0,0.0,0.0,0.0,0.0,0.0,0.0,0.0,
0.9416,2.1020500950734817,2.1020500950734817,2.078094320282802,0.0,0.0,0.0,2.0940648368099217,0.0,0.0,0.0,0.0,0.0,0.0,0.0,0.0,0.0,0.0,0.0,0.0,0.0,0.0,
0.9573,2.10219347448672,2.10219347448672,2.078229326750618,0.0,0.0,0.0,2.0942054252413524,0.0,0.0,0.0,0.0,0.0,0.0,0.0,0.0,0.0,0.0,0.0,0.0,0.0,0.0,
0.9729,2.1023383377143214,2.1023383377143214,2.0783657283906942,0.0,0.0,0.0,2.094347467939779,0.0,0.0,0.0,0.0,0.0,0.0,0.0,0.0,0.0,0.0,0.0,0.0,0.0,0.0,
0.9886,2.102486544417376,2.102486544417376,2.0785052761388743,0.0,0.0,0.0,2.094492788324542,0.0,0.0,0.0,0.0,0.0,0.0,0.0,0.0,0.0,0.0,0.0,0.0,0.0,0.0,
1.0043,2.102637176190986,2.102637176190986,2.0786471051255013,0.0,0.0,0.0,2.0946404858358245,0.0,0.0,0.0,0.0,0.0,0.0,0.0,0.0,0.0,0.0,0.0,0.0,0.0,0.0,
1.02,2.102790235573303,2.102790235573303,2.0787912176354233,0.0,0.0,0.0,2.094790562927343,0.0,0.0,0.0,0.0,0.0,0.0,0.0,0.0,0.0,0.0,0.0,0.0,0.0,0.0,
1.0357,2.1029457251452097,2.1029457251452097,2.0789376159918413,0.0,0.0,0.0,2.094943022094087,0.0,0.0,0.0,0.0,0.0,0.0,0.0,0.0,0.0,0.0,0.0,0.0,0.0,0.0,
1.0514,2.1031036475304425,2.1031036475304425,2.0790863025564432,0.0,0.0,0.0,2.0950978658724426,0.0,0.0,0.0,0.0,0.0,0.0,0.0,0.0,0.0,0.0,0.0,0.0,0.0,0.0,
1.0671,2.103264005395731,2.103264005395731,2.0792372797294822,0.0,0.0,0.0,2.0952550968403147,0.0,0.0,0.0,0.0,0.0,0.0,0.0,0.0,0.0,0.0,0.0,0.0,0.0,0.0,
1.0828,2.1034268014509303,2.1034268014509303,2.0793905499499514,0.0,0.0,0.0,2.095414717617271,0.0,0.0,0.0,0.0,0.0,0.0,0.0,0.0,0.0,0.0,0.0,0.0,0.0,0.0,
1.0985,2.103592038449175,2.103592038449175,2.0795461156956407,0.0,0.0,0.0,2.095576730864664,0.0,0.0,0.0,0.0,0.0,0.0,0.0,0.0,0.0,0.0,0.0,0.0,0.0,0.0,
1.1142,2.103759719187022,2.103759719187022,2.0797039794833165,0.0,0.0,0.0,2.0957411392857868,0.0,0.0,0.0,0.0,0.0,0.0,0.0,0.0,0.0,0.0,0.0,0.0,0.0,0.0,
1.1299,2.1039298465045606,2.1039298465045606,2.0798641438688055,0.0,0.0,0.0,2.0959079456259757,0.0,0.0,0.0,0.0,0.0,0.0,0.0,0.0,0.0,0.0,0.0,0.0,0.0,0.0,
1.1456,2.1041024232855876,2.1041024232855876,2.080026611447135,0.0,0.0,0.0,2.09607715267277,0.0,0.0,0.0,0.0,0.0,0.0,0.0,0.0,0.0,0.0,0.0,0.0,0.0,0.0,
1.1613,2.104277452457765,2.104277452457765,2.0801913848526654,0.0,0.0,0.0,2.096248763256065,0.0,0.0,0.0,0.0,0.0,0.0,0.0,0.0,0.0,0.0,0.0,0.0,0.0,0.0,
1.1769,2.104453798741873,2.104453798741873,2.0803573952324803,0.0,0.0,0.0,2.096421664238742,0.0,0.0,0.0,0.0,0.0,0.0,0.0,0.0,0.0,0.0,0.0,0.0,0.0,0.0,
1.1926,2.104633725987381,2.104633725987381,2.080526773623676,0.0,0.0,0.0,2.0965980751994793,0.0,0.0,0.0,0.0,0.0,0.0,0.0,0.0,0.0,0.0,0.0,0.0,0.0,0.0,
1.2083,2.1048161146520123,2.1048161146520123,2.080698465964786,0.0,0.0,0.0,2.0967768984229367,0.0,0.0,0.0,0.0,0.0,0.0,0.0,0.0,0.0,0.0,0.0,0.0,0.0,0.0,
1.224,2.1050009678400787,2.1050009678400787,2.080872475048542,0.0,0.0,0.0,2.0969581369095667,0.0,0.0,0.0,0.0,0.0,0.0,0.0,0.0,0.0,0.0,0.0,0.0,0.0,0.0,
1.2397,2.1051882887005275,2.1051882887005275,2.0810488037076986,0.0,0.0,0.0,2.0971417937029178,0.0,0.0,0.0,0.0,0.0,0.0,0.0,0.0,0.0,0.0,0.0,0.0,0.0,0.0,
1.2554,2.105378080427105,2.105378080427105,2.0812274548151417,0.0,0.0,0.0,2.097327871889784,0.0,0.0,0.0,0.0,0.0,0.0,0.0,0.0,0.0,0.0,0.0,0.0,0.0,0.0,
1.2711,2.1055703462585313,2.1055703462585313,2.081408431284048,0.0,0.0,0.0,2.0975163746003704,0.0,0.0,0.0,0.0,0.0,0.0,0.0,0.0,0.0,0.0,0.0,0.0,0.0,0.0,
1.2868,2.1057650894786377,2.1057650894786377,2.081591736068031,0.0,0.0,0.0,2.0977073050084356,0.0,0.0,0.0,0.0,0.0,0.0,0.0,0.0,0.0,0.0,0.0,0.0,0.0,0.0,
1.3025,2.105962313416571,2.105962313416571,2.0817773721612776,0.0,0.0,0.0,2.097900666331473,0.0,0.0,0.0,0.0,0.0,0.0,0.0,0.0,0.0,0.0,0.0,0.0,0.0,0.0,
1.3182,2.1061620214469663,2.1061620214469663,2.0819653425986964,0.0,0.0,0.0,2.098096461830876,0.0,0.0,0.0,0.0,0.0,0.0,0.0,0.0,0.0,0.0,0.0,0.0,0.0,0.0,
1.3339,2.106364216990098,2.106364216990098,2.082155650456091,0.0,0.0,0.0,2.0982946948120955,0.0,0.0,0.0,0.0,0.0,0.0,0.0,0.0,0.0,0.0,0.0,0.0,0.0,0.0,
1.3496,2.106568903512092,2.106568903512092,2.08234829885029,0.0,0.0,0.0,2.0984953686248247,0.0,0.0,0.0,0.0,0.0,0.0,0.0,0.0,0.0,0.0,0.0,0.0,0.0,0.0,
1.3653,2.106776084525074,2.106776084525074,2.082543290939328,0.0,0.0,0.0,2.098698486663159,0.0,0.0,0.0,0.0,0.0,0.0,0.0,0.0,0.0,0.0,0.0,0.0,0.0,0.0,
1.381,2.1069857635873976,2.1069857635873976,2.0827406299225846,0.0,0.0,0.0,2.098904052365793,0.0,0.0,0.0,0.0,0.0,0.0,0.0,0.0,0.0,0.0,0.0,0.0,0.0,0.0,
1.3966,2.107196584910289,2.107196584910289,2.0829390396920227,0.0,0.0,0.0,2.0991107365042003,0.0,0.0,0.0,0.0,0.0,0.0,0.0,0.0,0.0,0.0,0.0,0.0,0.0,0.0,
1.4123,2.107411254963043,2.107411254963043,2.083141067227682,0.0,0.0,0.0,2.0993211923845894,0.0,0.0,0.0,0.0,0.0,0.0,0.0,0.0,0.0,0.0,0.0,0.0,0.0,0.0,
1.428,2.1076284339955587,2.1076284339955587,2.0833454514841305,0.0,0.0,0.0,2.0995341064917494,0.0,0.0,0.0,0.0,0.0,0.0,0.0,0.0,0.0,0.0,0.0,0.0,0.0,0.0,
1.4437,2.1078481257525965,2.1078481257525965,2.083552195827531,0.0,0.0,0.0,2.0997494824442415,0.0,0.0,0.0,0.0,0.0,0.0,0.0,0.0,0.0,0.0,0.0,0.0,0.0,0.0,
1.4594,2.1080703340260882,2.1080703340260882,2.0837613036662264,0.0,0.0,0.0,2.0999673239061343,0.0,0.0,0.0,0.0,0.0,0.0,0.0,0.0,0.0,0.0,0.0,0.0,0.0,0.0,
1.4751,2.108295062655332,2.108295062655332,2.0839727784509336,0.0,0.0,0.0,2.1001876345871993,0.0,0.0,0.0,0.0,0.0,0.0,0.0,0.0,0.0,0.0,0.0,0.0,0.0,0.0,
1.4908,2.1085223155272104,2.1085223155272104,2.084186623674864,0.0,0.0,0.0,2.100410418243095,0.0,0.0,0.0,0.0,0.0,0.0,0.0,0.0,0.0,0.0,0.0,0.0,0.0,0.0,
1.5065,2.1087520965763815,2.1087520965763815,2.0844028428739687,0.0,0.0,0.0,2.100635678675577,0.0,0.0,0.0,0.0,0.0,0.0,0.0,0.0,0.0,0.0,0.0,0.0,0.0,0.0,
1.5222,2.1089844097854984,2.1089844097854984,2.084621439627081,0.0,0.0,0.0,2.1008634197326925,0.0,0.0,0.0,0.0,0.0,0.0,0.0,0.0,0.0,0.0,0.0,0.0,0.0,0.0,
1.5379,2.1092192591854255,2.1092192591854255,2.0848424175561067,0.0,0.0,0.0,2.101093645308986,0.0,0.0,0.0,0.0,0.0,0.0,0.0,0.0,0.0,0.0,0.0,0.0,0.0,0.0,
1.5536,2.1094566488554527,2.1094566488554527,2.085065780326219,0.0,0.0,0.0,2.101326359345708,0.0,0.0,0.0,0.0,0.0,0.0,0.0,0.0,0.0,0.0,0.0,0.0,0.0,0.0,
1.5693,2.1096965829234993,2.1096965829234993,2.0852915316460354,0.0,0.0,0.0,2.101561565831011,0.0,0.0,0.0,0.0,0.0,0.0,0.0,0.0,0.0,0.0,0.0,0.0,0.0,0.0,
1.585,2.109939065566368,2.109939065566368,2.0855196752678085,0.0,0.0,0.0,2.1017992688001814,0.0,0.0,0.0,0.0,0.0,0.0,0.0,0.0,0.0,0.0,0.0,0.0,0.0,0.0,
1.6007,2.1101841010099527,2.1101841010099527,2.0857502149876384,0.0,0.0,0.0,2.1020394723358478,0.0,0.0,0.0,0.0,0.0,0.0,0.0,0.0,0.0,0.0,0.0,0.0,0.0,0.0,
1.6163,2.1104301084062804,2.1104301084062804,2.08598166335097,0.0,0.0,0.0,2.102280626721177,0.0,0.0,0.0,0.0,0.0,0.0,0.0,0.0,0.0,0.0,0.0,0.0,0.0,0.0,
1.632,2.110680245998017,2.110680245998017,2.0862169915081292,0.0,0.0,0.0,2.102525827834721,0.0,0.0,0.0,0.0,0.0,0.0,0.0,0.0,0.0,0.0,0.0,0.0,0.0,0.0,
1.6477,2.1109329493369486,2.1109329493369486,2.086454727391436,0.0,0.0,0.0,2.1027735420217777,0.0,0.0,0.0,0.0,0.0,0.0,0.0,0.0,0.0,0.0,0.0,0.0,0.0,0.0,
1.6634,2.111188222847338,2.111188222847338,2.086694874973996,0.0,0.0,0.0,2.1030237735562243,0.0,0.0,0.0,0.0,0.0,0.0,0.0,0.0,0.0,0.0,0.0,0.0,0.0,0.0,
1.6791,2.1114460710036935,2.1114460710036935,2.086937438273792,0.0,0.0,0.0,2.1032765267603932,0.0,0.0,0.0,0.0,0.0,0.0,0.0,0.0,0.0,0.0,0.0,0.0,0.0,0.0,
1.6948,2.111706498331042,2.111706498331042,2.0871824213538352,0.0,0.0,0.0,2.1035318060053068,0.0,0.0,0.0,0.0,0.0,0.0,0.0,0.0,0.0,0.0,0.0,0.0,0.0,0.0,
1.7105,2.111969509405168,2.111969509405168,2.0874298283224055,0.0,0.0,0.0,2.1037896157109137,0.0,0.0,0.0,0.0,0.0,0.0,0.0,0.0,0.0,0.0,0.0,0.0,0.0,0.0,
1.7262,2.1122351088528495,2.1122351088528495,2.087679663333248,0.0,0.0,0.0,2.1040499603463156,0.0,0.0,0.0,0.0,0.0,0.0,0.0,0.0,0.0,0.0,0.0,0.0,0.0,0.0,
1.7419,2.1125033013521444,2.1125033013521444,2.087931930585816,0.0,0.0,0.0,2.104312844430035,0.0,0.0,0.0,0.0,0.0,0.0,0.0,0.0,0.0,0.0,0.0,0.0,0.0,0.0,
1.7576,2.1127740916326125,2.1127740916326125,2.088186634325486,0.0,0.0,0.0,2.104578272530237,0.0,0.0,0.0,0.0,0.0,0.0,0.0,0.0,0.0,0.0,0.0,0.0,0.0,0.0,
1.7733,2.1130474844756013,2.1130474844756013,2.0884437788437404,0.0,0.0,0.0,2.104846249264981,0.0,0.0,0.0,0.0,0.0,0.0,0.0,0.0,0.0,0.0,0.0,0.0,0.0,0.0,
1.789,2.113323484714493,2.113323484714493,2.0887033684784537,0.0,0.0,0.0,2.1051167793024796,0.0,0.0,0.0,0.0,0.0,0.0,0.0,0.0,0.0,0.0,0.0,0.0,0.0,0.0,
1.8047,2.1136020972350034,2.1136020972350034,2.088965407614084,0.0,0.0,0.0,2.1053898673613634,0.0,0.0,0.0,0.0,0.0,0.0,0.0,0.0,0.0,0.0,0.0,0.0,0.0,0.0,
1.8203,2.113881527410699,2.113881527410699,2.0892282082380116,0.0,0.0,0.0,2.1056637543531362,0.0,0.0,0.0,0.0,0.0,0.0,0.0,0.0,0.0,0.0,0.0,0.0,0.0,0.0,
1.836,2.114165362644239,2.114165362644239,2.0894951440434597,0.0,0.0,0.0,2.105941956443979,0.0,0.0,0.0,0.0,0.0,0.0,0.0,0.0,0.0,0.0,0.0,0.0,0.0,0.0,
1.8517,2.1144518251007964,2.1144518251007964,2.0897645427561384,0.0,0.0,0.0,2.1062227309859103,0.0,0.0,0.0,0.0,0.0,0.0,0.0,0.0,0.0,0.0,0.0,0.0,0.0,0.0,
1.8674,2.114740919877712,2.114740919877712,2.090036408948918,0.0,0.0,0.0,2.1065060829014475,0.0,0.0,0.0,0.0,0.0,0.0,0.0,0.0,0.0,0.0,0.0,0.0,0.0,0.0,
1.8831,2.1150326521260414,2.1150326521260414,2.0903107472424765,0.0,0.0,0.0,2.106792017164853,0.0,0.0,0.0,0.0,0.0,0.0,0.0,0.0,0.0,0.0,0.0,0.0,0.0,0.0,
1.8988,2.115327027050821,2.115327027050821,2.090587562305516,0.0,0.0,0.0,2.107080538802386,0.0,0.0,0.0,0.0,0.0,0.0,0.0,0.0,0.0,0.0,0.0,0.0,0.0,0.0,
1.9145,2.115624049911373,2.115624049911373,2.090866858855008,0.0,0.0,0.0,2.107371652892585,0.0,0.0,0.0,0.0,0.0,0.0,0.0,0.0,0.0,0.0,0.0,0.0,0.0,0.0,
1.9302,2.1159237260215953,2.1159237260215953,2.091148641656466,0.0,0.0,0.0,2.1076653645665524,0.0,0.0,0.0,0.0,0.0,0.0,0.0,0.0,0.0,0.0,0.0,0.0,0.0,0.0,
1.9459,2.1162260607502716,2.1162260607502716,2.0914329155242077,0.0,0.0,0.0,2.1079616790082505,0.0,0.0,0.0,0.0,0.0,0.0,0.0,0.0,0.0,0.0,0.0,0.0,0.0,0.0,
1.9616,2.116531059521357,2.116531059521357,2.0917196853215856,0.0,0.0,0.0,2.1082606014547665,0.0,0.0,0.0,0.0,0.0,0.0,0.0,0.0,0.0,0.0,0.0,0.0,0.0,0.0,
1.9773,2.1168387278143026,2.1168387278143026,2.092008955961264,0.0,0.0,0.0,2.108562137196623,0.0,0.0,0.0,0.0,0.0,0.0,0.0,0.0,0.0,0.0,0.0,0.0,0.0,0.0,
1.993,2.117149071164362,2.117149071164362,2.0923007324055,0.0,0.0,0.0,2.1088662915780745,0.0,0.0,0.0,0.0,0.0,0.0,0.0,0.0,0.0,0.0,0.0,0.0,0.0,0.0,
2.0087,2.117462095162891,2.117462095162891,2.092595019666396,0.0,0.0,0.0,2.1091730699973925,0.0,0.0,0.0,0.0,0.0,0.0,0.0,0.0,0.0,0.0,0.0,0.0,0.0,0.0,
2.0244,2.1177778054576972,2.1177778054576972,2.092891822806168,0.0,0.0,0.0,2.1094824779071875,0.0,0.0,0.0,0.0,0.0,0.0,0.0,0.0,0.0,0.0,0.0,0.0,0.0,0.0,
2.04,2.118094171182519,2.118094171182519,2.0931892324259946,0.0,0.0,0.0,2.109792524930344,0.0,0.0,0.0,0.0,0.0,0.0,0.0,0.0,0.0,0.0,0.0,0.0,0.0,0.0,
