energies(eV),real_xx,real_yy,real_zz,real_xy,real_yz,real_xz,real_ave,imag_xx,imag_yy,imag_zz,imag_xy,imag_yz,imag_xz,imag_ave,absorption_xx,absorption_yy,absorption_zz,absorption_xy,absorption_yz,absorption_xz,absorption_ave,band_gap
0.0,3.8068250891541937,3.8068250891541937,3.8068250891541937,0.0,0.0,0.0,3.8068250891541937,0.0,0.0,0.0,0.0,0.0,0.0,0.0,0.0,0.0,0.0,0.0,0.0,0.0,0.0,2.678
0.0121,3.806837155914709,3.806837155914709,3.806837155914709,0.0,0.0,0.0,3.806837155914709,0.0,0.0,0.0,0.0,0.0,0.0,0.0,0.0,0.0,0.0,0.0,0.0,0.0,0.0,
0.0242,3.8068733571707316,3.8068733571707316,3.8068733571707316,0.0,0.0,0.0,3.8068733571707316,0.0,0.0,0.0,0.0,0.0,0.0,0.0,0.0,0.0,0.0,0.0,0.0,0.0,0.0,
0.0363,3.8069336958459923,3.8069336958459923,3.8069336958459923,0.0,0.0,0.0,3.8069336958459927,0.0,0.0,0.0,0.0,0.0,0.0,0.0,0.0,0.0,0.0,0.0,0.0,0.0,0.0,
0.0484,3.8070181768142213,3.8070181768142213,3.8070181768142213,0.0,0.0,0.0,3.8070181768142213,0.0,0.0,0.0,0.0,0.0,0.0,0.0,0.0,0.0,0.0,0.0,0.0,0.0,0.0,
0.0605,3.8071268069002935,3.8071268069002935,3.8071268069002935,0.0,0.0,0.0,3.807126806900294,0.0,0.0,0.0,0.0,0.0,0.0,0.0,0.0,0.0,0.0,0.0,0.0,0.0,0.0,
0.0726,3.807259594881992,3.807259594881992,3.807259594881992,0.0,0.0,0.0,3.8072595948819923,0.0,0.0,0.0,0.0,0.0,0.0,0.0,0.0,0.0,0.0,0.0,0.0,0.0,0.0,
0.0847,3.8074165514922464,3.8074165514922464,3.8074165514922464,0.0,0.0,0.0,3.807416551492247,0.0,0.0,0.0,0.0,0.0,0.0,0.0,0.0,0.0,0.0,0.0,0.0,0.0,0.0,
0.0968,3.8075976894217796,3.8075976894217796,3.8075976894217796,0.0,0.0,0.0,3.8075976894217796,0.0,0.0,0.0,0.0,0.0,0.0,0.0,0.0,0.0,0.0,0.0,0.0,0.0,0.0,
0.1089,3.8078030233222844,3.8078030233222844,3.8078030233222844,0.0,0.0,0.0,3.8078030233222844,0.0,0.0,0.0,0.0,0.0,0.0,0.0,0.0,0.0,0.0,0.0,0.0,0.0,0.0,
0.121,3.8080325698102344,3.8080325698102344,3.8080325698102344,0.0,0.0,0.0,3.808032569810235,0.0,0.0,0.0,0.0,0.0,0.0,0.0,0.0,0.0,0.0,0.0,0.0,0.0,0.0,
0.1331,3.808286347470876,3.808286347470876,3.808286347470876,0.0,0.0,0.0,3.808286347470876,0.0,0.0,0.0,0.0,0.0,0.0,0.0,0.0,0.0,0.0,0.0,0.0,0.0,0.0,
0.1452,3.8085643768630795,3.8085643768630795,3.8085643768630795,0.0,0.0,0.0,3.8085643768630795,0.0,0.0,0.0,0.0,0.0,0.0,0.0,0.0,0.0,0.0,0.0,0.0,0.0,0.0,
0.1573,3.80886668052445,3.80886668052445,3.80886668052445,0.0,0.0,0.0,3.8088666805244507,0.0,0.0,0.0,0.0,0.0,0.0,0.0,0.0,0.0,0.0,0.0,0.0,0.0,0.0,
0.1694,3.8091932829770423,3.8091932829770423,3.8091932829770423,0.0,0.0,0.0,3.8091932829770427,0.0,0.0,0.0,0.0,0.0,0.0,0.0,0.0,0.0,0.0,0.0,0.0,0.0,0.0,
0.1815,3.809544210733569,3.809544210733569,3.809544210733569,0.0,0.0,0.0,3.8095442107335686,0.0,0.0,0.0,0.0,0.0,0.0,0.0,0.0,0.0,0.0,0.0,0.0,0.0,0.0,
0.1936,3.8099194923040485,3.8099194923040485,3.8099194923040485,0.0,0.0,0.0,3.8099194923040485,0.0,0.0,0.0,0.0,0.0,0.0,0.0,0.0,0.0,0.0,0.0,0.0,0.0,0.0,
0.2057,3.8103191582031575,3.8103191582031575,3.8103191582031575,0.0,0.0,0.0,3.8103191582031575,0.0,0.0,0.0,0.0,0.0,0.0,0.0,0.0,0.0,0.0,0.0,0.0,0.0,0.0,
0.2179,3.8107468475989568,3.8107468475989568,3.8107468475989568,0.0,0.0,0.0,3.8107468475989568,0.0,0.0,0.0,0.0,0.0,0.0,0.0,0.0,0.0,0.0,0.0,0.0,0.0,0.0,
0.23,3.811195583984218,3.811195583984218,3.811195583984218,0.0,0.0,0.0,3.8111955839842175,0.0,0.0,0.0,0.0,0.0,0.0,0.0,0.0,0.0,0.0,0.0,0.0,0.0,0.0,
0.2421,3.811668808660486,3.811668808660486,3.811668808660486,0.0,0.0,0.0,3.8116688086604866,0.0,0.0,0.0,0.0,0.0,0.0,0.0,0.0,0.0,0.0,0.0,0.0,0.0,0.0,
0.2542,3.8121665602604042,3.8121665602604042,3.8121665602604042,0.0,0.0,0.0,3.8121665602604042,0.0,0.0,0.0,0.0,0.0,0.0,0.0,0.0,0.0,0.0,0.0,0.0,0.0,0.0,
0.2663,3.812688879465355,3.812688879465355,3.812688879465355,0.0,0.0,0.0,3.812688879465355,0.0,0.0,0.0,0.0,0.0,0.0,0.0,0.0,0.0,0.0,0.0,0.0,0.0,0.0,
0.2784,3.813235809015807,3.813235809015807,3.813235809015807,0.0,0.0,0.0,3.8132358090158065,0.0,0.0,0.0,0.0,0.0,0.0,0.0,0.0,0.0,0.0,0.0,0.0,0.0,0.0,
0.2905,3.8138073937223926,3.8138073937223926,3.8138073937223926,0.0,0.0,0.0,3.8138073937223926,0.0,0.0,0.0,0.0,0.0,0.0,0.0,0.0,0.0,0.0,0.0,0.0,0.0,0.0,
0.3026,3.814403680477302,3.814403680477302,3.814403680477302,0.0,0.0,0.0,3.814403680477302,0.0,0.0,0.0,0.0,0.0,0.0,0.0,0.0,0.0,0.0,0.0,0.0,0.0,0.0,
0.3147,3.8150247182664447,3.8150247182664447,3.8150247182664447,0.0,0.0,0.0,3.8150247182664447,0.0,0.0,0.0,0.0,0.0,0.0,0.0,0.0,0.0,0.0,0.0,0.0,0.0,0.0,
0.3268,3.815670558182173,3.815670558182173,3.815670558182173,0.0,0.0,0.0,3.815670558182173,0.0,0.0,0.0,0.0,0.0,0.0,0.0,0.0,0.0,0.0,0.0,0.0,0.0,0.0,
0.3389,3.8163412534363683,3.8163412534363683,3.8163412534363683,0.0,0.0,0.0,3.8163412534363683,0.0,0.0,0.0,0.0,0.0,0.0,0.0,0.0,0.0,0.0,0.0,0.0,0.0,0.0,
0.351,3.8170368593744075,3.8170368593744075,3.8170368593744075,0.0,0.0,0.0,3.8170368593744075,0.0,0.0,0.0,0.0,0.0,0.0,0.0,0.0,0.0,0.0,0.0,0.0,0.0,0.0,
0.3631,3.8177574334894375,3.8177574334894375,3.8177574334894375,0.0,0.0,0.0,3.817757433489438,0.0,0.0,0.0,0.0,0.0,0.0,0.0,0.0,0.0,0.0,0.0,0.0,0.0,0.0,
0.3752,3.818503035437542,3.818503035437542,3.818503035437542,0.0,0.0,0.0,3.818503035437542,0.0,0.0,0.0,0.0,0.0,0.0,0.0,0.0,0.0,0.0,0.0,0.0,0.0,0.0,
0.3873,3.81927372705316,3.81927372705316,3.81927372705316,0.0,0.0,0.0,3.81927372705316,0.0,0.0,0.0,0.0,0.0,0.0,0.0,0.0,0.0,0.0,0.0,0.0,0.0,0.0,
0.3994,3.820069572365546,3.820069572365546,3.820069572365546,0.0,0.0,0.0,3.820069572365546,0.0,0.0,0.0,0.0,0.0,0.0,0.0,0.0,0.0,0.0,0.0,0.0,0.0,0.0,
0.4115,3.820890637615426,3.820890637615426,3.820890637615426,0.0,0.0,0.0,3.820890637615426,0.0,0.0,0.0,0.0,0.0,0.0,0.0,0.0,0.0,0.0,0.0,0.0,0.0,0.0,
0.4236,3.8217369912726866,3.8217369912726866,3.8217369912726866,0.0,0.0,0.0,3.8217369912726866,0.0,0.0,0.0,0.0,0.0,0.0,0.0,0.0,0.0,0.0,0.0,0.0,0.0,0.0,
0.4357,3.8226087040543075,3.8226087040543075,3.8226087040543075,0.0,0.0,0.0,3.8226087040543075,0.0,0.0,0.0,0.0,0.0,0.0,0.0,0.0,0.0,0.0,0.0,0.0,0.0,0.0,
0.4478,3.823505848943384,3.823505848943384,3.823505848943384,0.0,0.0,0.0,3.823505848943384,0.0,0.0,0.0,0.0,0.0,0.0,0.0,0.0,0.0,0.0,0.0,0.0,0.0,0.0,
0.4599,3.824428501208451,3.824428501208451,3.824428501208451,0.0,0.0,0.0,3.8244285012084505,0.0,0.0,0.0,0.0,0.0,0.0,0.0,0.0,0.0,0.0,0.0,0.0,0.0,0.0,
0.472,3.825376738423702,3.825376738423702,3.825376738423702,0.0,0.0,0.0,3.8253767384237016,0.0,0.0,0.0,0.0,0.0,0.0,0.0,0.0,0.0,0.0,0.0,0.0,0.0,0.0,
0.4841,3.8263506404897525,3.8263506404897525,3.8263506404897525,0.0,0.0,0.0,3.826350640489752,0.0,0.0,0.0,0.0,0.0,0.0,0.0,0.0,0.0,0.0,0.0,0.0,0.0,0.0,
0.4962,3.8273502896553184,3.8273502896553184,3.8273502896553184,0.0,0.0,0.0,3.827350289655319,0.0,0.0,0.0,0.0,0.0,0.0,0.0,0.0,0.0,0.0,0.0,0.0,0.0,0.0,
0.5083,3.8283757705393784,3.8283757705393784,3.8283757705393784,0.0,0.0,0.0,3.828375770539379,0.0,0.0,0.0,0.0,0.0,0.0,0.0,0.0,0.0,0.0,0.0,0.0,0.0,0.0,
0.5204,3.8294271701542097,3.8294271701542097,3.8294271701542097,0.0,0.0,0.0,3.8294271701542097,0.0,0.0,0.0,0.0,0.0,0.0,0.0,0.0,0.0,0.0,0.0,0.0,0.0,0.0,
0.5325,3.8305045779290556,3.8305045779290556,3.8305045779290556,0.0,0.0,0.0,3.8305045779290556,0.0,0.0,0.0,0.0,0.0,0.0,0.0,0.0,0.0,0.0,0.0,0.0,0.0,0.0,
0.5446,3.8316080857347634,3.8316080857347634,3.8316080857347634,0.0,0.0,0.0,3.831608085734763,0.0,0.0,0.0,0.0,0.0,0.0,0.0,0.0,0.0,0.0,0.0,0.0,0.0,0.0,
0.5567,3.8327377879089735,3.8327377879089735,3.8327377879089735,0.0,0.0,0.0,3.8327377879089735,0.0,0.0,0.0,0.0,0.0,0.0,0.0,0.0,0.0,0.0,0.0,0.0,0.0,0.0,
0.5688,3.8338937812821077,3.8338937812821077,3.8338937812821077,0.0,0.0,0.0,3.8338937812821077,0.0,0.0,0.0,0.0,0.0,0.0,0.0,0.0,0.0,0.0,0.0,0.0,0.0,0.0,
0.5809,3.835076165204412,3.835076165204412,3.835076165204412,0.0,0.0,0.0,3.8350761652044114,0.0,0.0,0.0,0.0,0.0,0.0,0.0,0.0,0.0,0.0,0.0,0.0,0.0,0.0,
0.593,3.8362850415734653,3.8362850415734653,3.8362850415734653,0.0,0.0,0.0,3.8362850415734653,0.0,0.0,0.0,0.0,0.0,0.0,0.0,0.0,0.0,0.0,0.0,0.0,0.0,0.0,
0.6051,3.8375205148628875,3.8375205148628875,3.8375205148628875,0.0,0.0,0.0,3.8375205148628875,0.0,0.0,0.0,0.0,0.0,0.0,0.0,0.0,0.0,0.0,0.0,0.0,0.0,0.0,
0.6172,3.8387826921515464,3.8387826921515464,3.8387826921515464,0.0,0.0,0.0,3.8387826921515464,0.0,0.0,0.0,0.0,0.0,0.0,0.0,0.0,0.0,0.0,0.0,0.0,0.0,0.0,
0.6293,3.8400716831539876,3.8400716831539876,3.8400716831539876,0.0,0.0,0.0,3.840071683153988,0.0,0.0,0.0,0.0,0.0,0.0,0.0,0.0,0.0,0.0,0.0,0.0,0.0,0.0,
0.6414,3.8413876002514376,3.8413876002514376,3.8413876002514376,0.0,0.0,0.0,3.8413876002514376,0.0,0.0,0.0,0.0,0.0,0.0,0.0,0.0,0.0,0.0,0.0,0.0,0.0,0.0,
0.6536,3.8427417703433067,3.8427417703433067,3.8427417703433067,0.0,0.0,0.0,3.842741770343307,0.0,0.0,0.0,0.0,0.0,0.0,0.0,0.0,0.0,0.0,0.0,0.0,0.0,0.0,
0.6657,3.8441121125560085,3.8441121125560085,3.8441121125560085,0.0,0.0,0.0,3.8441121125560085,0.0,0.0,0.0,0.0,0.0,0.0,0.0,0.0,0.0,0.0,0.0,0.0,0.0,0.0,
0.6778,3.845509735341747,3.845509735341747,3.845509735341747,0.0,0.0,0.0,3.845509735341747,0.0,0.0,0.0,0.0,0.0,0.0,0.0,0.0,0.0,0.0,0.0,0.0,0.0,0.0,
0.6899,3.84693476210237,3.84693476210237,3.84693476210237,0.0,0.0,0.0,3.84693476210237,0.0,0.0,0.0,0.0,0.0,0.0,0.0,0.0,0.0,0.0,0.0,0.0,0.0,0.0,
0.702,3.848387319076791,3.848387319076791,3.848387319076791,0.0,0.0,0.0,3.848387319076791,0.0,0.0,0.0,0.0,0.0,0.0,0.0,0.0,0.0,0.0,0.0,0.0,0.0,0.0,
0.7141,3.8498675353779457,3.8498675353779457,3.8498675353779457,0.0,0.0,0.0,3.8498675353779457,0.0,0.0,0.0,0.0,0.0,0.0,0.0,0.0,0.0,0.0,0.0,0.0,0.0,0.0,
0.7262,3.851375543030805,3.851375543030805,3.851375543030805,0.0,0.0,0.0,3.851375543030805,0.0,0.0,0.0,0.0,0.0,0.0,0.0,0.0,0.0,0.0,0.0,0.0,0.0,0.0,
0.7383,3.8529114770116,3.8529114770116,3.8529114770116,0.0,0.0,0.0,3.8529114770116,0.0,0.0,0.0,0.0,0.0,0.0,0.0,0.0,0.0,0.0,0.0,0.0,0.0,0.0,
0.7504,3.8544754752879635,3.8544754752879635,3.8544754752879635,0.0,0.0,0.0,3.854475475287964,0.0,0.0,0.0,0.0,0.0,0.0,0.0,0.0,0.0,0.0,0.0,0.0,0.0,0.0,
0.7625,3.8560676788603208,3.8560676788603208,3.8560676788603208,0.0,0.0,0.0,3.8560676788603208,0.0,0.0,0.0,0.0,0.0,0.0,0.0,0.0,0.0,0.0,0.0,0.0,0.0,0.0,
0.7746,3.857688231804397,3.857688231804397,3.857688231804397,0.0,0.0,0.0,3.857688231804397,0.0,0.0,0.0,0.0,0.0,0.0,0.0,0.0,0.0,0.0,0.0,0.0,0.0,0.0,
0.7867,3.859337281314995,3.859337281314995,3.859337281314995,0.0,0.0,0.0,3.859337281314995,0.0,0.0,0.0,0.0,0.0,0.0,0.0,0.0,0.0,0.0,0.0,0.0,0.0,0.0,
0.7988,3.8610149777508984,3.8610149777508984,3.8610149777508984,0.0,0.0,0.0,3.8610149777508984,0.0,0.0,0.0,0.0,0.0,0.0,0.0,0.0,0.0,0.0,0.0,0.0,0.0,0.0,
0.8109,3.862721474681017,3.862721474681017,3.862721474681017,0.0,0.0,0.0,3.862721474681017,0.0,0.0,0.0,0.0,0.0,0.0,0.0,0.0,0.0,0.0,0.0,0.0,0.0,0.0,
0.823,3.8644569289319466,3.8644569289319466,3.8644569289319466,0.0,0.0,0.0,3.8644569289319466,0.0,0.0,0.0,0.0,0.0,0.0,0.0,0.0,0.0,0.0,0.0,0.0,0.0,0.0,
0.8351,3.8662215006367404,3.8662215006367404,3.8662215006367404,0.0,0.0,0.0,3.8662215006367404,0.0,0.0,0.0,0.0,0.0,0.0,0.0,0.0,0.0,0.0,0.0,0.0,0.0,0.0,
0.8472,3.868015353285029,3.868015353285029,3.868015353285029,0.0,0.0,0.0,3.868015353285029,0.0,0.0,0.0,0.0,0.0,0.0,0.0,0.0,0.0,0.0,0.0,0.0,0.0,0.0,
0.8593,3.8698386537746976,3.8698386537746976,3.8698386537746976,0.0,0.0,0.0,3.8698386537746976,0.0,0.0,0.0,0.0,0.0,0.0,0.0,0.0,0.0,0.0,0.0,0.0,0.0,0.0,
0.8714,3.8716915724647065,3.8716915724647065,3.8716915724647065,0.0,0.0,0.0,3.8716915724647065,0.0,0.0,0.0,0.0,0.0,0.0,0.0,0.0,0.0,0.0,0.0,0.0,0.0,0.0,
0.8835,3.8735742832297175,3.8735742832297175,3.8735742832297175,0.0,0.0,0.0,3.873574283229717,0.0,0.0,0.0,0.0,0.0,0.0,0.0,0.0,0.0,0.0,0.0,0.0,0.0,0.0,
0.8956,3.87548696351591,3.87548696351591,3.87548696351591,0.0,0.0,0.0,3.8754869635159097,0.0,0.0,0.0,0.0,0.0,0.0,0.0,0.0,0.0,0.0,0.0,0.0,0.0,0.0,
0.9077,3.8774297943986666,3.8774297943986666,3.8774297943986666,0.0,0.0,0.0,3.8774297943986666,0.0,0.0,0.0,0.0,0.0,0.0,0.0,0.0,0.0,0.0,0.0,0.0,0.0,0.0,
0.9198,3.87940296064157,3.87940296064157,3.87940296064157,0.0,0.0,0.0,3.87940296064157,0.0,0.0,0.0,0.0,0.0,0.0,0.0,0.0,0.0,0.0,0.0,0.0,0.0,0.0,
0.9319,3.881406650757286,3.881406650757286,3.881406650757286,0.0,0.0,0.0,3.881406650757286,0.0,0.0,0.0,0.0,0.0,0.0,0.0,0.0,0.0,0.0,0.0,0.0,0.0,0.0,
0.944,3.883441057069945,3.883441057069945,3.883441057069945,0.0,0.0,0.0,3.883441057069945,0.0,0.0,0.0,0.0,0.0,0.0,0.0,0.0,0.0,0.0,0.0,0.0,0.0,0.0,
0.9561,3.885506375779421,3.885506375779421,3.885506375779421,0.0,0.0,0.0,3.885506375779421,0.0,0.0,0.0,0.0,0.0,0.0,0.0,0.0,0.0,0.0,0.0,0.0,0.0,0.0,
0.9682,3.887602807027363,3.887602807027363,3.887602807027363,0.0,0.0,0.0,3.887602807027363,0.0,0.0,0.0,0.0,0.0,0.0,0.0,0.0,0.0,0.0,0.0,0.0,0.0,0.0,
0.9803,3.8897305549649386,3.8897305549649386,3.8897305549649386,0.0,0.0,0.0,3.8897305549649386,0.0,0.0,0.0,0.0,0.0,0.0,0.0,0.0,0.0,0.0,0.0,0.0,0.0,0.0,
0.9924,3.8918898278227405,3.8918898278227405,3.8918898278227405,0.0,0.0,0.0,3.8918898278227405,0.0,0.0,0.0,0.0,0.0,0.0,0.0,0.0,0.0,0.0,0.0,0.0,0.0,0.0,
1.0045,3.8940808379824143,3.8940808379824143,3.8940808379824143,0.0,0.0,0.0,3.8940808379824143,0.0,0.0,0.0,0.0,0.0,0.0,0.0,0.0,0.0,0.0,0.0,0.0,0.0,0.0,
1.0166,3.8963038020504213,3.8963038020504213,3.8963038020504213,0.0,0.0,0.0,3.896303802050421,0.0,0.0,0.0,0.0,0.0,0.0,0.0,0.0,0.0,0.0,0.0,0.0,0.0,0.0,
1.0287,3.898558940933946,3.898558940933946,3.898558940933946,0.0,0.0,0.0,3.898558940933946,0.0,0.0,0.0,0.0,0.0,0.0,0.0,0.0,0.0,0.0,0.0,0.0,0.0,0.0,
1.0408,3.9008464799187212,3.9008464799187212,3.9008464799187212,0.0,0.0,0.0,3.9008464799187212,0.0,0.0,0.0,0.0,0.0,0.0,0.0,0.0,0.0,0.0,0.0,0.0,0.0,0.0,
1.0529,3.9031666487493926,3.9031666487493926,3.9031666487493926,0.0,0.0,0.0,3.9031666487493926,0.0,0.0,0.0,0.0,0.0,0.0,0.0,0.0,0.0,0.0,0.0,0.0,0.0,0.0,
1.065,3.905519681711859,3.905519681711859,3.905519681711859,0.0,0.0,0.0,3.905519681711859,0.0,0.0,0.0,0.0,0.0,0.0,0.0,0.0,0.0,0.0,0.0,0.0,0.0,0.0,
1.0772,3.9079256764465975,3.9079256764465975,3.9079256764465975,0.0,0.0,0.0,3.9079256764465975,0.0,0.0,0.0,0.0,0.0,0.0,0.0,0.0,0.0,0.0,0.0,0.0,0.0,0.0,
1.0893,3.910345435742993,3.910345435742993,3.910345435742993,0.0,0.0,0.0,3.910345435742993,0.0,0.0,0.0,0.0,0.0,0.0,0.0,0.0,0.0,0.0,0.0,0.0,0.0,0.0,
1.1014,3.9127987922108023,3.9127987922108023,3.9127987922108023,0.0,0.0,0.0,3.9127987922108023,0.0,0.0,0.0,0.0,0.0,0.0,0.0,0.0,0.0,0.0,0.0,0.0,0.0,0.0,
1.1135,3.915285999215146,3.915285999215146,3.915285999215146,0.0,0.0,0.0,3.9152859992151456,0.0,0.0,0.0,0.0,0.0,0.0,0.0,0.0,0.0,0.0,0.0,0.0,0.0,0.0,
1.1256,3.9178073151125115,3.9178073151125115,3.9178073151125115,0.0,0.0,0.0,3.9178073151125115,0.0,0.0,0.0,0.0,0.0,0.0,0.0,0.0,0.0,0.0,0.0,0.0,0.0,0.0,
1.1377,3.9203630033486485,3.9203630033486485,3.9203630033486485,0.0,0.0,0.0,3.920363003348649,0.0,0.0,0.0,0.0,0.0,0.0,0.0,0.0,0.0,0.0,0.0,0.0,0.0,0.0,
1.1498,3.922953332559291,3.922953332559291,3.922953332559291,0.0,0.0,0.0,3.9229533325592905,0.0,0.0,0.0,0.0,0.0,0.0,0.0,0.0,0.0,0.0,0.0,0.0,0.0,0.0,
1.1619,3.9255785766737574,3.9255785766737574,3.9255785766737574,0.0,0.0,0.0,3.9255785766737574,0.0,0.0,0.0,0.0,0.0,0.0,0.0,0.0,0.0,0.0,0.0,0.0,0.0,0.0,
1.174,3.9282390150216826,3.9282390150216826,3.9282390150216826,0.0,0.0,0.0,3.9282390150216826,0.0,0.0,0.0,0.0,0.0,0.0,0.0,0.0,0.0,0.0,0.0,0.0,0.0,0.0,
1.1861,3.9309349324428604,3.9309349324428604,3.9309349324428604,0.0,0.0,0.0,3.930934932442861,0.0,0.0,0.0,0.0,0.0,0.0,0.0,0.0,0.0,0.0,0.0,0.0,0.0,0.0,
1.1982,3.9336666194004306,3.9336666194004306,3.9336666194004306,0.0,0.0,0.0,3.9336666194004306,0.0,0.0,0.0,0.0,0.0,0.0,0.0,0.0,0.0,0.0,0.0,0.0,0.0,0.0,
1.2103,3.936434372097381,3.936434372097381,3.936434372097381,0.0,0.0,0.0,3.936434372097381,0.0,0.0,0.0,0.0,0.0,0.0,0.0,0.0,0.0,0.0,0.0,0.0,0.0,0.0,
1.2224,3.93923849259649,3.93923849259649,3.93923849259649,0.0,0.0,0.0,3.93923849259649,0.0,0.0,0.0,0.0,0.0,0.0,0.0,0.0,0.0,0.0,0.0,0.0,0.0,0.0,
1.2345,3.9420792889441,3.9420792889441,3.9420792889441,0.0,0.0,0.0,3.9420792889441,0.0,0.0,0.0,0.0,0.0,0.0,0.0,0.0,0.0,0.0,0.0,0.0,0.0,0.0,
1.2466,3.944957075297356,3.944957075297356,3.944957075297356,0.0,0.0,0.0,3.944957075297356,0.0,0.0,0.0,0.0,0.0,0.0,0.0,0.0,0.0,0.0,0.0,0.0,0.0,0.0,
1.2587,3.9478721720555865,3.9478721720555865,3.9478721720555865,0.0,0.0,0.0,3.9478721720555865,0.0,0.0,0.0,0.0,0.0,0.0,0.0,0.0,0.0,0.0,0.0,0.0,0.0,0.0,
1.2708,3.9508249059955127,3.9508249059955127,3.9508249059955127,0.0,0.0,0.0,3.9508249059955127,0.0,0.0,0.0,0.0,0.0,0.0,0.0,0.0,0.0,0.0,0.0,0.0,0.0,0.0,
1.2829,3.953815610410788,3.953815610410788,3.953815610410788,0.0,0.0,0.0,3.9538156104107878,0.0,0.0,0.0,0.0,0.0,0.0,0.0,0.0,0.0,0.0,0.0,0.0,0.0,0.0,
1.295,3.956844625255729,3.956844625255729,3.956844625255729,0.0,0.0,0.0,3.9568446252557288,0.0,0.0,0.0,0.0,0.0,0.0,0.0,0.0,0.0,0.0,0.0,0.0,0.0,0.0,
1.3071,3.9599122972935796,3.9599122972935796,3.9599122972935796,0.0,0.0,0.0,3.9599122972935796,0.0,0.0,0.0,0.0,0.0,0.0,0.0,0.0,0.0,0.0,0.0,0.0,0.0,0.0,
1.3192,3.9630189802494846,3.9630189802494846,3.9630189802494846,0.0,0.0,0.0,3.9630189802494846,0.0,0.0,0.0,0.0,0.0,0.0,0.0,0.0,0.0,0.0,0.0,0.0,0.0,0.0,
1.3313,3.9661650349680997,3.9661650349680997,3.9661650349680997,0.0,0.0,0.0,3.9661650349680997,0.0,0.0,0.0,0.0,0.0,0.0,0.0,0.0,0.0,0.0,0.0,0.0,0.0,0.0,
1.3434,3.9693508295764857,3.9693508295764857,3.9693508295764857,0.0,0.0,0.0,3.9693508295764857,0.0,0.0,0.0,0.0,0.0,0.0,0.0,0.0,0.0,0.0,0.0,0.0,0.0,0.0,
1.3555,3.972576739651962,3.972576739651962,3.972576739651962,0.0,0.0,0.0,3.9725767396519616,0.0,0.0,0.0,0.0,0.0,0.0,0.0,0.0,0.0,0.0,0.0,0.0,0.0,0.0,
1.3676,3.975843148395371,3.975843148395371,3.975843148395371,0.0,0.0,0.0,3.9758431483953713,0.0,0.0,0.0,0.0,0.0,0.0,0.0,0.0,0.0,0.0,0.0,0.0,0.0,0.0,
1.3797,3.979150446810141,3.979150446810141,3.979150446810141,0.0,0.0,0.0,3.979150446810141,0.0,0.0,0.0,0.0,0.0,0.0,0.0,0.0,0.0,0.0,0.0,0.0,0.0,0.0,
1.3918,3.9824990338869077,3.9824990338869077,3.9824990338869077,0.0,0.0,0.0,3.9824990338869077,0.0,0.0,0.0,0.0,0.0,0.0,0.0,0.0,0.0,0.0,0.0,0.0,0.0,0.0,
1.4039,3.9858893167944114,3.9858893167944114,3.9858893167944114,0.0,0.0,0.0,3.9858893167944114,0.0,0.0,0.0,0.0,0.0,0.0,0.0,0.0,0.0,0.0,0.0,0.0,0.0,0.0,
1.416,3.9893217110764976,3.9893217110764976,3.9893217110764976,0.0,0.0,0.0,3.9893217110764976,0.0,0.0,0.0,0.0,0.0,0.0,0.0,0.0,0.0,0.0,0.0,0.0,0.0,0.0,
1.4281,3.9927966408558353,3.9927966408558353,3.9927966408558353,0.0,0.0,0.0,3.992796640855835,0.0,0.0,0.0,0.0,0.0,0.0,0.0,0.0,0.0,0.0,0.0,0.0,0.0,0.0,
1.4402,3.996314539044286,3.996314539044286,3.996314539044286,0.0,0.0,0.0,3.996314539044286,0.0,0.0,0.0,0.0,0.0,0.0,0.0,0.0,0.0,0.0,0.0,0.0,0.0,0.0,
1.4523,3.9998758475604177,3.9998758475604177,3.9998758475604177,0.0,0.0,0.0,3.9998758475604177,0.0,0.0,0.0,0.0,0.0,0.0,0.0,0.0,0.0,0.0,0.0,0.0,0.0,0.0,
1.4644,4.003481017554362,4.003481017554362,4.003481017554362,0.0,0.0,0.0,4.003481017554362,0.0,0.0,0.0,0.0,0.0,0.0,0.0,0.0,0.0,0.0,0.0,0.0,0.0,0.0,
1.4765,4.007130509640511,4.007130509640511,4.007130509640511,0.0,0.0,0.0,4.007130509640511,0.0,0.0,0.0,0.0,0.0,0.0,0.0,0.0,0.0,0.0,0.0,0.0,0.0,0.0,
1.4886,4.010824794137939,4.010824794137939,4.010824794137939,0.0,0.0,0.0,4.010824794137939,0.0,0.0,0.0,0.0,0.0,0.0,0.0,0.0,0.0,0.0,0.0,0.0,0.0,0.0,
1.5008,4.01459544673467,4.01459544673467,4.01459544673467,0.0,0.0,0.0,4.01459544673467,0.0,0.0,0.0,0.0,0.0,0.0,0.0,0.0,0.0,0.0,0.0,0.0,0.0,0.0,
1.5129,4.0183811473644315,4.0183811473644315,4.0183811473644315,0.0,0.0,0.0,4.0183811473644315,0.0,0.0,0.0,0.0,0.0,0.0,0.0,0.0,0.0,0.0,0.0,0.0,0.0,0.0,
1.525,4.022213116308314,4.022213116308314,4.022213116308314,0.0,0.0,0.0,4.022213116308314,0.0,0.0,0.0,0.0,0.0,0.0,0.0,0.0,0.0,0.0,0.0,0.0,0.0,0.0,
1.5371,4.026091865371978,4.026091865371978,4.026091865371978,0.0,0.0,0.0,4.026091865371978,0.0,0.0,0.0,0.0,0.0,0.0,0.0,0.0,0.0,0.0,0.0,0.0,0.0,0.0,
1.5492,4.03001791740335,4.03001791740335,4.03001791740335,0.0,0.0,0.0,4.03001791740335,0.0,0.0,0.0,0.0,0.0,0.0,0.0,0.0,0.0,0.0,0.0,0.0,0.0,0.0,
1.5613,4.033991806588977,4.033991806588977,4.033991806588977,0.0,0.0,0.0,4.033991806588977,0.0,0.0,0.0,0.0,0.0,0.0,0.0,0.0,0.0,0.0,0.0,0.0,0.0,0.0,
1.5734,4.0380140787610745,4.0380140787610745,4.0380140787610745,0.0,0.0,0.0,4.0380140787610745,0.0,0.0,0.0,0.0,0.0,0.0,0.0,0.0,0.0,0.0,0.0,0.0,0.0,0.0,
