energies(eV),real_xx,real_yy,real_zz,real_xy,real_yz,real_xz,real_ave,imag_xx,imag_yy,imag_zz,imag_xy,imag_yz,imag_xz,imag_ave,absorption_xx,absorption_yy,absorption_zz,absorption_xy,absorption_yz,absorption_xz,absorption_ave,band_gap
0.0,2.89548570407972,2.89548570407972,2.89548570407972,0.0,0.0,0.0,2.89548570407972,0.0,0.0,0.0,0.0,0.0,0.0,0.0,0.0,0.0,0.0,0.0,0.0,0.0,0.0,6.1496
0.0157,2.895488906319512,2.895488906319512,2.895488906319512,0.0,0.0,0.0,2.895488906319512,0.0,0.0,0.0,0.0,0.0,0.0,0.0,0.0,0.0,0.0,0.0,0.0,0.0,0.0,
0.0315,2.895498594853262,2.895498594853262,2.895498594853262,0.0,0.0,0.0,2.895498594853262,0.0,0.0,0.0,0.0,0.0,0.0,0.0,0.0,0.0,0.0,0.0,0.0,0.0,0.0,
0.0472,2.895514647335278,2.895514647335278,2.895514647335278,0.0,0.0,0.0,2.8955146473352777,0.0,0.0,0.0,0.0,0.0,0.0,0.0,0.0,0.0,0.0,0.0,0.0,0.0,0.0,
0.063,2.895537268750117,2.895537268750117,2.895537268750117,0.0,0.0,0.0,2.895537268750117,0.0,0.0,0.0,0.0,0.0,0.0,0.0,0.0,0.0,0.0,0.0,0.0,0.0,0.0,
0.0787,2.8955661734372393,2.8955661734372393,2.8955661734372393,0.0,0.0,0.0,2.8955661734372398,0.0,0.0,0.0,0.0,0.0,0.0,0.0,0.0,0.0,0.0,0.0,0.0,0.0,0.0,
0.0945,2.895601730499521,2.895601730499521,2.895601730499521,0.0,0.0,0.0,2.895601730499521,0.0,0.0,0.0,0.0,0.0,0.0,0.0,0.0,0.0,0.0,0.0,0.0,0.0,0.0,
0.1102,2.895643490926756,2.895643490926756,2.895643490926756,0.0,0.0,0.0,2.8956434909267563,0.0,0.0,0.0,0.0,0.0,0.0,0.0,0.0,0.0,0.0,0.0,0.0,0.0,0.0,
0.1259,2.895691660627377,2.895691660627377,2.895691660627377,0.0,0.0,0.0,2.8956916606273766,0.0,0.0,0.0,0.0,0.0,0.0,0.0,0.0,0.0,0.0,0.0,0.0,0.0,0.0,
0.1417,2.8957466092612814,2.8957466092612814,2.8957466092612814,0.0,0.0,0.0,2.895746609261282,0.0,0.0,0.0,0.0,0.0,0.0,0.0,0.0,0.0,0.0,0.0,0.0,0.0,0.0,
0.1574,2.8958076429446264,2.8958076429446264,2.8958076429446264,0.0,0.0,0.0,2.8958076429446264,0.0,0.0,0.0,0.0,0.0,0.0,0.0,0.0,0.0,0.0,0.0,0.0,0.0,0.0,
0.1732,2.895875541057877,2.895875541057877,2.895875541057877,0.0,0.0,0.0,2.8958755410578774,0.0,0.0,0.0,0.0,0.0,0.0,0.0,0.0,0.0,0.0,0.0,0.0,0.0,0.0,
0.1889,2.895949446193759,2.895949446193759,2.895949446193759,0.0,0.0,0.0,2.895949446193759,0.0,0.0,0.0,0.0,0.0,0.0,0.0,0.0,0.0,0.0,0.0,0.0,0.0,0.0,
0.2047,2.896030302098005,2.896030302098005,2.896030302098005,0.0,0.0,0.0,2.896030302098005,0.0,0.0,0.0,0.0,0.0,0.0,0.0,0.0,0.0,0.0,0.0,0.0,0.0,0.0,
0.2204,2.8961170877354867,2.8961170877354867,2.8961170877354867,0.0,0.0,0.0,2.8961170877354867,0.0,0.0,0.0,0.0,0.0,0.0,0.0,0.0,0.0,0.0,0.0,0.0,0.0,0.0,
0.2361,2.896210297049607,2.896210297049607,2.896210297049607,0.0,0.0,0.0,2.8962102970496075,0.0,0.0,0.0,0.0,0.0,0.0,0.0,0.0,0.0,0.0,0.0,0.0,0.0,0.0,
0.2519,2.8963105881041864,2.8963105881041864,2.8963105881041864,0.0,0.0,0.0,2.896310588104187,0.0,0.0,0.0,0.0,0.0,0.0,0.0,0.0,0.0,0.0,0.0,0.0,0.0,0.0,
0.2676,2.896416694442858,2.896416694442858,2.896416694442858,0.0,0.0,0.0,2.8964166944428578,0.0,0.0,0.0,0.0,0.0,0.0,0.0,0.0,0.0,0.0,0.0,0.0,0.0,0.0,
0.2834,2.896529971015539,2.896529971015539,2.896529971015539,0.0,0.0,0.0,2.896529971015539,0.0,0.0,0.0,0.0,0.0,0.0,0.0,0.0,0.0,0.0,0.0,0.0,0.0,0.0,
0.2991,2.896648987389611,2.896648987389611,2.896648987389611,0.0,0.0,0.0,2.896648987389611,0.0,0.0,0.0,0.0,0.0,0.0,0.0,0.0,0.0,0.0,0.0,0.0,0.0,0.0,
0.3148,2.8967744436431335,2.8967744436431335,2.8967744436431335,0.0,0.0,0.0,2.8967744436431335,0.0,0.0,0.0,0.0,0.0,0.0,0.0,0.0,0.0,0.0,0.0,0.0,0.0,0.0,
0.3306,2.8969072043895325,2.8969072043895325,2.8969072043895325,0.0,0.0,0.0,2.896907204389533,0.0,0.0,0.0,0.0,0.0,0.0,0.0,0.0,0.0,0.0,0.0,0.0,0.0,0.0,
0.3463,2.897045593158991,2.897045593158991,2.897045593158991,0.0,0.0,0.0,2.897045593158991,0.0,0.0,0.0,0.0,0.0,0.0,0.0,0.0,0.0,0.0,0.0,0.0,0.0,0.0,
0.3621,2.8971913771480433,2.8971913771480433,2.8971913771480433,0.0,0.0,0.0,2.8971913771480433,0.0,0.0,0.0,0.0,0.0,0.0,0.0,0.0,0.0,0.0,0.0,0.0,0.0,0.0,
0.3778,2.897342715436564,2.897342715436564,2.897342715436564,0.0,0.0,0.0,2.897342715436564,0.0,0.0,0.0,0.0,0.0,0.0,0.0,0.0,0.0,0.0,0.0,0.0,0.0,0.0,
0.3936,2.8975015405882396,2.8975015405882396,2.8975015405882396,0.0,0.0,0.0,2.8975015405882396,0.0,0.0,0.0,0.0,0.0,0.0,0.0,0.0,0.0,0.0,0.0,0.0,0.0,0.0,
0.4093,2.897665847007524,2.897665847007524,2.897665847007524,0.0,0.0,0.0,2.897665847007524,0.0,0.0,0.0,0.0,0.0,0.0,0.0,0.0,0.0,0.0,0.0,0.0,0.0,0.0,
0.425,2.8978366243598463,2.8978366243598463,2.8978366243598463,0.0,0.0,0.0,2.897836624359846,0.0,0.0,0.0,0.0,0.0,0.0,0.0,0.0,0.0,0.0,0.0,0.0,0.0,0.0,
0.4408,2.8980150276414456,2.8980150276414456,2.8980150276414456,0.0,0.0,0.0,2.8980150276414456,0.0,0.0,0.0,0.0,0.0,0.0,0.0,0.0,0.0,0.0,0.0,0.0,0.0,0.0,
0.4565,2.898198804038974,2.898198804038974,2.898198804038974,0.0,0.0,0.0,2.8981988040389743,0.0,0.0,0.0,0.0,0.0,0.0,0.0,0.0,0.0,0.0,0.0,0.0,0.0,0.0,
0.4723,2.8983903003607105,2.8983903003607105,2.8983903003607105,0.0,0.0,0.0,2.898390300360711,0.0,0.0,0.0,0.0,0.0,0.0,0.0,0.0,0.0,0.0,0.0,0.0,0.0,0.0,
0.488,2.898587098466048,2.898587098466048,2.898587098466048,0.0,0.0,0.0,2.8985870984660473,0.0,0.0,0.0,0.0,0.0,0.0,0.0,0.0,0.0,0.0,0.0,0.0,0.0,0.0,
0.5038,2.898791711456864,2.898791711456864,2.898791711456864,0.0,0.0,0.0,2.898791711456864,0.0,0.0,0.0,0.0,0.0,0.0,0.0,0.0,0.0,0.0,0.0,0.0,0.0,0.0,
0.5195,2.899001555568443,2.899001555568443,2.899001555568443,0.0,0.0,0.0,2.899001555568443,0.0,0.0,0.0,0.0,0.0,0.0,0.0,0.0,0.0,0.0,0.0,0.0,0.0,0.0,
0.5352,2.899217911559755,2.899217911559755,2.899217911559755,0.0,0.0,0.0,2.8992179115597545,0.0,0.0,0.0,0.0,0.0,0.0,0.0,0.0,0.0,0.0,0.0,0.0,0.0,0.0,
0.551,2.8994422265693838,2.8994422265693838,2.8994422265693838,0.0,0.0,0.0,2.8994422265693838,0.0,0.0,0.0,0.0,0.0,0.0,0.0,0.0,0.0,0.0,0.0,0.0,0.0,0.0,
0.5667,2.899671668058301,2.899671668058301,2.899671668058301,0.0,0.0,0.0,2.8996716680583012,0.0,0.0,0.0,0.0,0.0,0.0,0.0,0.0,0.0,0.0,0.0,0.0,0.0,0.0,
0.5825,2.8999091660074408,2.8999091660074408,2.8999091660074408,0.0,0.0,0.0,2.899909166007441,0.0,0.0,0.0,0.0,0.0,0.0,0.0,0.0,0.0,0.0,0.0,0.0,0.0,0.0,
0.5982,2.9001517214210644,2.9001517214210644,2.9001517214210644,0.0,0.0,0.0,2.9001517214210644,0.0,0.0,0.0,0.0,0.0,0.0,0.0,0.0,0.0,0.0,0.0,0.0,0.0,0.0,
0.614,2.9004024317572954,2.9004024317572954,2.9004024317572954,0.0,0.0,0.0,2.900402431757295,0.0,0.0,0.0,0.0,0.0,0.0,0.0,0.0,0.0,0.0,0.0,0.0,0.0,0.0,
0.6297,2.9006581311936497,2.9006581311936497,2.9006581311936497,0.0,0.0,0.0,2.9006581311936497,0.0,0.0,0.0,0.0,0.0,0.0,0.0,0.0,0.0,0.0,0.0,0.0,0.0,0.0,
0.6454,2.9009203935396006,2.9009203935396006,2.9009203935396006,0.0,0.0,0.0,2.9009203935396006,0.0,0.0,0.0,0.0,0.0,0.0,0.0,0.0,0.0,0.0,0.0,0.0,0.0,0.0,
0.6612,2.9011909602913333,2.9011909602913333,2.9011909602913333,0.0,0.0,0.0,2.901190960291333,0.0,0.0,0.0,0.0,0.0,0.0,0.0,0.0,0.0,0.0,0.0,0.0,0.0,0.0,
0.6769,2.9014664149122753,2.9014664149122753,2.9014664149122753,0.0,0.0,0.0,2.9014664149122757,0.0,0.0,0.0,0.0,0.0,0.0,0.0,0.0,0.0,0.0,0.0,0.0,0.0,0.0,
0.6927,2.9017502750232103,2.9017502750232103,2.9017502750232103,0.0,0.0,0.0,2.90175027502321,0.0,0.0,0.0,0.0,0.0,0.0,0.0,0.0,0.0,0.0,0.0,0.0,0.0,0.0,
0.7084,2.902038956243609,2.902038956243609,2.902038956243609,0.0,0.0,0.0,2.9020389562436093,0.0,0.0,0.0,0.0,0.0,0.0,0.0,0.0,0.0,0.0,0.0,0.0,0.0,0.0,
0.7242,2.902336145117677,2.902336145117677,2.902336145117677,0.0,0.0,0.0,2.9023361451176775,0.0,0.0,0.0,0.0,0.0,0.0,0.0,0.0,0.0,0.0,0.0,0.0,0.0,0.0,
0.7399,2.902638088976164,2.902638088976164,2.902638088976164,0.0,0.0,0.0,2.9026380889761634,0.0,0.0,0.0,0.0,0.0,0.0,0.0,0.0,0.0,0.0,0.0,0.0,0.0,0.0,
0.7556,2.902946657096045,2.902946657096045,2.902946657096045,0.0,0.0,0.0,2.902946657096045,0.0,0.0,0.0,0.0,0.0,0.0,0.0,0.0,0.0,0.0,0.0,0.0,0.0,0.0,
0.7714,2.9032638880125825,2.9032638880125825,2.9032638880125825,0.0,0.0,0.0,2.903263888012583,0.0,0.0,0.0,0.0,0.0,0.0,0.0,0.0,0.0,0.0,0.0,0.0,0.0,0.0,
0.7871,2.9035857760105097,2.9035857760105097,2.9035857760105097,0.0,0.0,0.0,2.90358577601051,0.0,0.0,0.0,0.0,0.0,0.0,0.0,0.0,0.0,0.0,0.0,0.0,0.0,0.0,
0.8029,2.903916431744613,2.903916431744613,2.903916431744613,0.0,0.0,0.0,2.9039164317446136,0.0,0.0,0.0,0.0,0.0,0.0,0.0,0.0,0.0,0.0,0.0,0.0,0.0,0.0,
0.8186,2.9042516800043083,2.9042516800043083,2.9042516800043083,0.0,0.0,0.0,2.9042516800043088,0.0,0.0,0.0,0.0,0.0,0.0,0.0,0.0,0.0,0.0,0.0,0.0,0.0,0.0,
0.8344,2.904595802083561,2.904595802083561,2.904595802083561,0.0,0.0,0.0,2.904595802083561,0.0,0.0,0.0,0.0,0.0,0.0,0.0,0.0,0.0,0.0,0.0,0.0,0.0,0.0,
0.8501,2.904944452754777,2.904944452754777,2.904944452754777,0.0,0.0,0.0,2.9049444527547776,0.0,0.0,0.0,0.0,0.0,0.0,0.0,0.0,0.0,0.0,0.0,0.0,0.0,0.0,
0.8658,2.905299799651043,2.905299799651043,2.905299799651043,0.0,0.0,0.0,2.905299799651043,0.0,0.0,0.0,0.0,0.0,0.0,0.0,0.0,0.0,0.0,0.0,0.0,0.0,0.0,
0.8816,2.905664181507194,2.905664181507194,2.905664181507194,0.0,0.0,0.0,2.9056641815071935,0.0,0.0,0.0,0.0,0.0,0.0,0.0,0.0,0.0,0.0,0.0,0.0,0.0,0.0,
0.8973,2.906032997314564,2.906032997314564,2.906032997314564,0.0,0.0,0.0,2.9060329973145635,0.0,0.0,0.0,0.0,0.0,0.0,0.0,0.0,0.0,0.0,0.0,0.0,0.0,0.0,
0.9131,2.906410957109,2.906410957109,2.906410957109,0.0,0.0,0.0,2.9064109571090007,0.0,0.0,0.0,0.0,0.0,0.0,0.0,0.0,0.0,0.0,0.0,0.0,0.0,0.0,
0.9288,2.906793288463129,2.906793288463129,2.906793288463129,0.0,0.0,0.0,2.906793288463129,0.0,0.0,0.0,0.0,0.0,0.0,0.0,0.0,0.0,0.0,0.0,0.0,0.0,0.0,
0.9445,2.907182374119225,2.907182374119225,2.907182374119225,0.0,0.0,0.0,2.907182374119225,0.0,0.0,0.0,0.0,0.0,0.0,0.0,0.0,0.0,0.0,0.0,0.0,0.0,0.0,
0.9603,2.9075807694090727,2.9075807694090727,2.9075807694090727,0.0,0.0,0.0,2.9075807694090727,0.0,0.0,0.0,0.0,0.0,0.0,0.0,0.0,0.0,0.0,0.0,0.0,0.0,0.0,
0.976,2.9079834439171792,2.9079834439171792,2.9079834439171792,0.0,0.0,0.0,2.9079834439171797,0.0,0.0,0.0,0.0,0.0,0.0,0.0,0.0,0.0,0.0,0.0,0.0,0.0,0.0,
0.9918,2.90839554015914,2.90839554015914,2.90839554015914,0.0,0.0,0.0,2.9083955401591397,0.0,0.0,0.0,0.0,0.0,0.0,0.0,0.0,0.0,0.0,0.0,0.0,0.0,0.0,
1.0075,2.9088118547557267,2.9088118547557267,2.9088118547557267,0.0,0.0,0.0,2.908811854755727,0.0,0.0,0.0,0.0,0.0,0.0,0.0,0.0,0.0,0.0,0.0,0.0,0.0,0.0,
1.0233,2.909237704454245,2.909237704454245,2.909237704454245,0.0,0.0,0.0,2.909237704454245,0.0,0.0,0.0,0.0,0.0,0.0,0.0,0.0,0.0,0.0,0.0,0.0,0.0,0.0,
1.039,2.9096677122523054,2.9096677122523054,2.9096677122523054,0.0,0.0,0.0,2.9096677122523054,0.0,0.0,0.0,0.0,0.0,0.0,0.0,0.0,0.0,0.0,0.0,0.0,0.0,0.0,
1.0547,2.9101045653383015,2.9101045653383015,2.9101045653383015,0.0,0.0,0.0,2.9101045653383015,0.0,0.0,0.0,0.0,0.0,0.0,0.0,0.0,0.0,0.0,0.0,0.0,0.0,0.0,
1.0705,2.910551125821123,2.910551125821123,2.910551125821123,0.0,0.0,0.0,2.9105511258211236,0.0,0.0,0.0,0.0,0.0,0.0,0.0,0.0,0.0,0.0,0.0,0.0,0.0,0.0,
1.0862,2.9110017552528946,2.9110017552528946,2.9110017552528946,0.0,0.0,0.0,2.911001755252895,0.0,0.0,0.0,0.0,0.0,0.0,0.0,0.0,0.0,0.0,0.0,0.0,0.0,0.0,
1.102,2.9114622087172055,2.9114622087172055,2.9114622087172055,0.0,0.0,0.0,2.9114622087172055,0.0,0.0,0.0,0.0,0.0,0.0,0.0,0.0,0.0,0.0,0.0,0.0,0.0,0.0,
1.1177,2.91192667239085,2.91192667239085,2.91192667239085,0.0,0.0,0.0,2.91192667239085,0.0,0.0,0.0,0.0,0.0,0.0,0.0,0.0,0.0,0.0,0.0,0.0,0.0,0.0,
1.1335,2.9124010780820573,2.9124010780820573,2.9124010780820573,0.0,0.0,0.0,2.9124010780820573,0.0,0.0,0.0,0.0,0.0,0.0,0.0,0.0,0.0,0.0,0.0,0.0,0.0,0.0,
1.1492,2.9128794358483425,2.9128794358483425,2.9128794358483425,0.0,0.0,0.0,2.9128794358483425,0.0,0.0,0.0,0.0,0.0,0.0,0.0,0.0,0.0,0.0,0.0,0.0,0.0,0.0,
1.1649,2.913364741570428,2.913364741570428,2.913364741570428,0.0,0.0,0.0,2.913364741570428,0.0,0.0,0.0,0.0,0.0,0.0,0.0,0.0,0.0,0.0,0.0,0.0,0.0,0.0,
1.1807,2.91386016867996,2.91386016867996,2.91386016867996,0.0,0.0,0.0,2.91386016867996,0.0,0.0,0.0,0.0,0.0,0.0,0.0,0.0,0.0,0.0,0.0,0.0,0.0,0.0,
1.1964,2.9143594618881536,2.9143594618881536,2.9143594618881536,0.0,0.0,0.0,2.9143594618881536,0.0,0.0,0.0,0.0,0.0,0.0,0.0,0.0,0.0,0.0,0.0,0.0,0.0,0.0,
1.2122,2.914868997948882,2.914868997948882,2.914868997948882,0.0,0.0,0.0,2.9148689979488815,0.0,0.0,0.0,0.0,0.0,0.0,0.0,0.0,0.0,0.0,0.0,0.0,0.0,0.0,
1.2279,2.915382343486122,2.915382343486122,2.915382343486122,0.0,0.0,0.0,2.915382343486122,0.0,0.0,0.0,0.0,0.0,0.0,0.0,0.0,0.0,0.0,0.0,0.0,0.0,0.0,
1.2437,2.9159060547791062,2.9159060547791062,2.9159060547791062,0.0,0.0,0.0,2.915906054779106,0.0,0.0,0.0,0.0,0.0,0.0,0.0,0.0,0.0,0.0,0.0,0.0,0.0,0.0,
1.2594,2.916433519532368,2.916433519532368,2.916433519532368,0.0,0.0,0.0,2.9164335195323674,0.0,0.0,0.0,0.0,0.0,0.0,0.0,0.0,0.0,0.0,0.0,0.0,0.0,0.0,
1.2751,2.9169680471018915,2.9169680471018915,2.9169680471018915,0.0,0.0,0.0,2.9169680471018915,0.0,0.0,0.0,0.0,0.0,0.0,0.0,0.0,0.0,0.0,0.0,0.0,0.0,0.0,
1.2909,2.9175131273375725,2.9175131273375725,2.9175131273375725,0.0,0.0,0.0,2.9175131273375725,0.0,0.0,0.0,0.0,0.0,0.0,0.0,0.0,0.0,0.0,0.0,0.0,0.0,0.0,
1.3066,2.918061878234298,2.918061878234298,2.918061878234298,0.0,0.0,0.0,2.918061878234298,0.0,0.0,0.0,0.0,0.0,0.0,0.0,0.0,0.0,0.0,0.0,0.0,0.0,0.0,
1.3224,2.9186213084122143,2.9186213084122143,2.9186213084122143,0.0,0.0,0.0,2.9186213084122143,0.0,0.0,0.0,0.0,0.0,0.0,0.0,0.0,0.0,0.0,0.0,0.0,0.0,0.0,
1.3381,2.919184354753341,2.919184354753341,2.919184354753341,0.0,0.0,0.0,2.919184354753341,0.0,0.0,0.0,0.0,0.0,0.0,0.0,0.0,0.0,0.0,0.0,0.0,0.0,0.0,
1.3539,2.9197582085257507,2.9197582085257507,2.9197582085257507,0.0,0.0,0.0,2.9197582085257507,0.0,0.0,0.0,0.0,0.0,0.0,0.0,0.0,0.0,0.0,0.0,0.0,0.0,0.0,
1.3696,2.9203356245740277,2.9203356245740277,2.9203356245740277,0.0,0.0,0.0,2.9203356245740277,0.0,0.0,0.0,0.0,0.0,0.0,0.0,0.0,0.0,0.0,0.0,0.0,0.0,0.0,
1.3853,2.9209202310732607,2.9209202310732607,2.9209202310732607,0.0,0.0,0.0,2.9209202310732607,0.0,0.0,0.0,0.0,0.0,0.0,0.0,0.0,0.0,0.0,0.0,0.0,0.0,0.0,
1.4011,2.9215158399630927,2.9215158399630927,2.9215158399630927,0.0,0.0,0.0,2.9215158399630927,0.0,0.0,0.0,0.0,0.0,0.0,0.0,0.0,0.0,0.0,0.0,0.0,0.0,0.0,
1.4168,2.9221149315305386,2.9221149315305386,2.9221149315305386,0.0,0.0,0.0,2.9221149315305386,0.0,0.0,0.0,0.0,0.0,0.0,0.0,0.0,0.0,0.0,0.0,0.0,0.0,0.0,
1.4326,2.922725157603713,2.922725157603713,2.922725157603713,0.0,0.0,0.0,2.922725157603713,0.0,0.0,0.0,0.0,0.0,0.0,0.0,0.0,0.0,0.0,0.0,0.0,0.0,0.0,
1.4483,2.9233388140021277,2.9233388140021277,2.9233388140021277,0.0,0.0,0.0,2.9233388140021277,0.0,0.0,0.0,0.0,0.0,0.0,0.0,0.0,0.0,0.0,0.0,0.0,0.0,0.0,
1.4641,2.9239637386623945,2.9239637386623945,2.9239637386623945,0.0,0.0,0.0,2.9239637386623945,0.0,0.0,0.0,0.0,0.0,0.0,0.0,0.0,0.0,0.0,0.0,0.0,0.0,0.0,
1.4798,2.924592041914803,2.924592041914803,2.924592041914803,0.0,0.0,0.0,2.924592041914803,0.0,0.0,0.0,0.0,0.0,0.0,0.0,0.0,0.0,0.0,0.0,0.0,0.0,0.0,
1.4955,2.925227676686286,2.925227676686286,2.925227676686286,0.0,0.0,0.0,2.9252276766862857,0.0,0.0,0.0,0.0,0.0,0.0,0.0,0.0,0.0,0.0,0.0,0.0,0.0,0.0,
1.5113,2.925874783283409,2.925874783283409,2.925874783283409,0.0,0.0,0.0,2.9258747832834096,0.0,0.0,0.0,0.0,0.0,0.0,0.0,0.0,0.0,0.0,0.0,0.0,0.0,0.0,
1.527,2.926525192121767,2.926525192121767,2.926525192121767,0.0,0.0,0.0,2.926525192121767,0.0,0.0,0.0,0.0,0.0,0.0,0.0,0.0,0.0,0.0,0.0,0.0,0.0,0.0,
1.5428,2.9271872107837917,2.9271872107837917,2.9271872107837917,0.0,0.0,0.0,2.9271872107837917,0.0,0.0,0.0,0.0,0.0,0.0,0.0,0.0,0.0,0.0,0.0,0.0,0.0,0.0,
1.5585,2.9278524815166707,2.9278524815166707,2.9278524815166707,0.0,0.0,0.0,2.927852481516671,0.0,0.0,0.0,0.0,0.0,0.0,0.0,0.0,0.0,0.0,0.0,0.0,0.0,0.0,
1.5742,2.9285251931441785,2.9285251931441785,2.9285251931441785,0.0,0.0,0.0,2.9285251931441785,0.0,0.0,0.0,0.0,0.0,0.0,0.0,0.0,0.0,0.0,0.0,0.0,0.0,0.0,
1.59,2.9292097246729263,2.9292097246729263,2.9292097246729263,0.0,0.0,0.0,2.9292097246729263,0.0,0.0,0.0,0.0,0.0,0.0,0.0,0.0,0.0,0.0,0.0,0.0,0.0,0.0,
1.6057,2.929897434282431,2.929897434282431,2.929897434282431,0.0,0.0,0.0,2.929897434282431,0.0,0.0,0.0,0.0,0.0,0.0,0.0,0.0,0.0,0.0,0.0,0.0,0.0,0.0,
1.6215,2.9305971062467706,2.9305971062467706,2.9305971062467706,0.0,0.0,0.0,2.9305971062467706,0.0,0.0,0.0,0.0,0.0,0.0,0.0,0.0,0.0,0.0,0.0,0.0,0.0,0.0,
1.6372,2.931299907711397,2.931299907711397,2.931299907711397,0.0,0.0,0.0,2.931299907711397,0.0,0.0,0.0,0.0,0.0,0.0,0.0,0.0,0.0,0.0,0.0,0.0,0.0,0.0,
1.653,2.932014815830881,2.932014815830881,2.932014815830881,0.0,0.0,0.0,2.932014815830881,0.0,0.0,0.0,0.0,0.0,0.0,0.0,0.0,0.0,0.0,0.0,0.0,0.0,0.0,
1.6687,2.9327328055156103,2.9327328055156103,2.9327328055156103,0.0,0.0,0.0,2.9327328055156108,0.0,0.0,0.0,0.0,0.0,0.0,0.0,0.0,0.0,0.0,0.0,0.0,0.0,0.0,
1.6844,2.933458401972815,2.933458401972815,2.933458401972815,0.0,0.0,0.0,2.9334584019728154,0.0,0.0,0.0,0.0,0.0,0.0,0.0,0.0,0.0,0.0,0.0,0.0,0.0,0.0,
1.7002,2.934196324844226,2.934196324844226,2.934196324844226,0.0,0.0,0.0,2.934196324844226,0.0,0.0,0.0,0.0,0.0,0.0,0.0,0.0,0.0,0.0,0.0,0.0,0.0,0.0,
1.7159,2.934937258675449,2.934937258675449,2.934937258675449,0.0,0.0,0.0,2.934937258675449,0.0,0.0,0.0,0.0,0.0,0.0,0.0,0.0,0.0,0.0,0.0,0.0,0.0,0.0,
1.7317,2.9356906680002037,2.9356906680002037,2.9356906680002037,0.0,0.0,0.0,2.9356906680002037,0.0,0.0,0.0,0.0,0.0,0.0,0.0,0.0,0.0,0.0,0.0,0.0,0.0,0.0,
1.7474,2.9364470419889015,2.9364470419889015,2.9364470419889015,0.0,0.0,0.0,2.936447041988901,0.0,0.0,0.0,0.0,0.0,0.0,0.0,0.0,0.0,0.0,0.0,0.0,0.0,0.0,
1.7632,2.937216042532564,2.937216042532564,2.937216042532564,0.0,0.0,0.0,2.937216042532564,0.0,0.0,0.0,0.0,0.0,0.0,0.0,0.0,0.0,0.0,0.0,0.0,0.0,0.0,
1.7789,2.937987962112244,2.937987962112244,2.937987962112244,0.0,0.0,0.0,2.937987962112244,0.0,0.0,0.0,0.0,0.0,0.0,0.0,0.0,0.0,0.0,0.0,0.0,0.0,0.0,
1.7946,2.9387676700195664,2.9387676700195664,2.9387676700195664,0.0,0.0,0.0,2.938767670019567,0.0,0.0,0.0,0.0,0.0,0.0,0.0,0.0,0.0,0.0,0.0,0.0,0.0,0.0,
1.8104,2.9395602346346674,2.9395602346346674,2.9395602346346674,0.0,0.0,0.0,2.9395602346346674,0.0,0.0,0.0,0.0,0.0,0.0,0.0,0.0,0.0,0.0,0.0,0.0,0.0,0.0,
1.8261,2.94035565118316,2.94035565118316,2.94035565118316,0.0,0.0,0.0,2.9403556511831597,0.0,0.0,0.0,0.0,0.0,0.0,0.0,0.0,0.0,0.0,0.0,0.0,0.0,0.0,
1.8419,2.941164080635546,2.941164080635546,2.941164080635546,0.0,0.0,0.0,2.9411640806355464,0.0,0.0,0.0,0.0,0.0,0.0,0.0,0.0,0.0,0.0,0.0,0.0,0.0,0.0,
1.8576,2.9419753180962065,2.9419753180962065,2.9419753180962065,0.0,0.0,0.0,2.9419753180962065,0.0,0.0,0.0,0.0,0.0,0.0,0.0,0.0,0.0,0.0,0.0,0.0,0.0,0.0,
1.8734,2.9427997267880794,2.9427997267880794,2.9427997267880794,0.0,0.0,0.0,2.9427997267880794,0.0,0.0,0.0,0.0,0.0,0.0,0.0,0.0,0.0,0.0,0.0,0.0,0.0,0.0,
1.8891,2.943626900259642,2.943626900259642,2.943626900259642,0.0,0.0,0.0,2.9436269002596425,0.0,0.0,0.0,0.0,0.0,0.0,0.0,0.0,0.0,0.0,0.0,0.0,0.0,0.0,
1.9048,2.944462060315085,2.944462060315085,2.944462060315085,0.0,0.0,0.0,2.9444620603150846,0.0,0.0,0.0,0.0,0.0,0.0,0.0,0.0,0.0,0.0,0.0,0.0,0.0,0.0,
1.9206,2.9453106329299077,2.9453106329299077,2.9453106329299077,0.0,0.0,0.0,2.945310632929908,0.0,0.0,0.0,0.0,0.0,0.0,0.0,0.0,0.0,0.0,0.0,0.0,0.0,0.0,
1.9363,2.94616190687458,2.94616190687458,2.94616190687458,0.0,0.0,0.0,2.9461619068745803,0.0,0.0,0.0,0.0,0.0,0.0,0.0,0.0,0.0,0.0,0.0,0.0,0.0,0.0,
1.9521,2.947026757231402,2.947026757231402,2.947026757231402,0.0,0.0,0.0,2.947026757231402,0.0,0.0,0.0,0.0,0.0,0.0,0.0,0.0,0.0,0.0,0.0,0.0,0.0,0.0,
1.9678,2.947894267471935,2.947894267471935,2.947894267471935,0.0,0.0,0.0,2.9478942674719355,0.0,0.0,0.0,0.0,0.0,0.0,0.0,0.0,0.0,0.0,0.0,0.0,0.0,0.0,
1.9836,2.9487755202726973,2.9487755202726973,2.9487755202726973,0.0,0.0,0.0,2.9487755202726973,0.0,0.0,0.0,0.0,0.0,0.0,0.0,0.0,0.0,0.0,0.0,0.0,0.0,0.0,
1.9993,2.9496593922429626,2.9496593922429626,2.9496593922429626,0.0,0.0,0.0,2.9496593922429626,0.0,0.0,0.0,0.0,0.0,0.0,0.0,0.0,0.0,0.0,0.0,0.0,0.0,0.0,
2.015,2.950551466903874,2.950551466903874,2.950551466903874,0.0,0.0,0.0,2.950551466903874,0.0,0.0,0.0,0.0,0.0,0.0,0.0,0.0,0.0,0.0,0.0,0.0,0.0,0.0,
2.0308,2.9514575374891763,2.9514575374891763,2.9514575374891763,0.0,0.0,0.0,2.9514575374891763,0.0,0.0,0.0,0.0,0.0,0.0,0.0,0.0,0.0,0.0,0.0,0.0,0.0,0.0,
2.0465,2.9523661676324804,2.9523661676324804,2.9523661676324804,0.0,0.0,0.0,2.9523661676324804,0.0,0.0,0.0,0.0,0.0,0.0,0.0,0.0,0.0,0.0,0.0,0.0,0.0,0.0,
2.0623,2.953288965804194,2.953288965804194,2.953288965804194,0.0,0.0,0.0,2.953288965804194,0.0,0.0,0.0,0.0,0.0,0.0,0.0,0.0,0.0,0.0,0.0,0.0,0.0,0.0,
