energies(eV),real_xx,real_yy,real_zz,real_xy,real_yz,real_xz,real_ave,imag_xx,imag_yy,imag_zz,imag_xy,imag_yz,imag_xz,imag_ave,absorption_xx,absorption_yy,absorption_zz,absorption_xy,absorption_yz,absorption_xz,absorption_ave,band_gap
0.0,3.0422600253100707,3.007580735567582,3.034665229522465,0.0,0.0,0.007592435060071662,3.028168663466706,0.0,0.0,0.0,0.0,0.0,0.0,0.0,0.0,0.0,0.0,0.0,0.0,0.0,0.0,6.2205
0.0154,3.0422642128490733,3.0075844763905444,3.0346694773408385,0.0,0.0,0.007592302895676449,3.028172722193485,0.0,0.0,0.0,0.0,0.0,0.0,0.0,0.0,0.0,0.0,0.0,0.0,0.0,0.0,
0.0308,3.042276775616572,3.0075956989786587,3.0346822209513005,0.0,0.0,0.0075919063907284225,3.0281848985155104,0.0,0.0,0.0,0.0,0.0,0.0,0.0,0.0,0.0,0.0,0.0,0.0,0.0,0.0,
0.0463,3.0422978773998013,3.0076145496002846,3.034703626507138,0.0,0.0,0.007591240354449878,3.0282053511690745,0.0,0.0,0.0,0.0,0.0,0.0,0.0,0.0,0.0,0.0,0.0,0.0,0.0,0.0,
0.0617,3.0423272466752804,3.0076407856217613,3.034733418589815,0.0,0.0,0.007590313321637807,3.028233816962285,0.0,0.0,0.0,0.0,0.0,0.0,0.0,0.0,0.0,0.0,0.0,0.0,0.0,0.0,
0.0771,3.042364993444674,3.007674505203133,3.034771708803636,0.0,0.0,0.007589121771178006,3.0282704024838143,0.0,0.0,0.0,0.0,0.0,0.0,0.0,0.0,0.0,0.0,0.0,0.0,0.0,0.0,
0.0925,3.0424111190647887,3.0077157094192724,3.0348184985495164,0.0,0.0,0.007587665596993263,3.028315109011192,0.0,0.0,0.0,0.0,0.0,0.0,0.0,0.0,0.0,0.0,0.0,0.0,0.0,0.0,
0.108,3.0424660065199745,3.0077647402197916,3.0348741763568765,0.0,0.0,0.007585932629085206,3.0283683076988805,0.0,0.0,0.0,0.0,0.0,0.0,0.0,0.0,0.0,0.0,0.0,0.0,0.0,0.0,
0.1234,3.0425289495563153,3.0078209665108515,3.0349380258377714,0.0,0.0,0.007583945074175592,3.0284293139683123,0.0,0.0,0.0,0.0,0.0,0.0,0.0,0.0,0.0,0.0,0.0,0.0,0.0,0.0,
0.1388,3.0426002773384404,3.0078846821066265,3.035010380937432,0.0,0.0,0.007581692434550151,3.0284984467941665,0.0,0.0,0.0,0.0,0.0,0.0,0.0,0.0,0.0,0.0,0.0,0.0,0.0,0.0,
0.1542,3.0426799924318226,3.0079558890392892,3.0350912443047013,0.0,0.0,0.007579174509538355,3.0285757085919376,0.0,0.0,0.0,0.0,0.0,0.0,0.0,0.0,0.0,0.0,0.0,0.0,0.0,0.0,
0.1697,3.0427686972407897,3.0080351251161166,3.0351812270753777,0.0,0.0,0.0075763721323644844,3.028661683144095,0.0,0.0,0.0,0.0,0.0,0.0,0.0,0.0,0.0,0.0,0.0,0.0,0.0,0.0,
0.1851,3.0428652503756557,3.008121370461646,3.0352791714735954,0.0,0.0,0.007573321213240543,3.028755264103632,0.0,0.0,0.0,0.0,0.0,0.0,0.0,0.0,0.0,0.0,0.0,0.0,0.0,0.0,
0.2005,3.0429702003565384,3.0082151146963945,3.0353856339843124,0.0,0.0,0.0075700042626316915,3.0288569830124152,0.0,0.0,0.0,0.0,0.0,0.0,0.0,0.0,0.0,0.0,0.0,0.0,0.0,0.0,
0.2159,3.0430835509618905,3.0083163608129673,3.0355006185089537,0.0,0.0,0.007566420984746933,3.0289668434279373,0.0,0.0,0.0,0.0,0.0,0.0,0.0,0.0,0.0,0.0,0.0,0.0,0.0,0.0,
0.2313,3.043205306273886,3.0084251120443843,3.0356241292625255,0.0,0.0,0.007562571059942581,3.029084849193598,0.0,0.0,0.0,0.0,0.0,0.0,0.0,0.0,0.0,0.0,0.0,0.0,0.0,0.0,
0.2468,3.0433363433918643,3.008542151343064,3.0357570560740195,0.0,0.0,0.0075584265381820216,3.029211850269649,0.0,0.0,0.0,0.0,0.0,0.0,0.0,0.0,0.0,0.0,0.0,0.0,0.0,0.0,
0.2622,3.043474976231558,3.0086659722601037,3.0358976886296767,0.0,0.0,0.0075540405275841905,3.0293462123737793,0.0,0.0,0.0,0.0,0.0,0.0,0.0,0.0,0.0,0.0,0.0,0.0,0.0,0.0,
0.2776,3.0436220278844957,3.008797309462995,3.0360468619801417,0.0,0.0,0.007549386764851061,3.029488733109211,0.0,0.0,0.0,0.0,0.0,0.0,0.0,0.0,0.0,0.0,0.0,0.0,0.0,0.0,
0.293,3.043777503654282,3.008936167151156,3.0362045816017678,0.0,0.0,0.007544464834205694,3.0296394174690686,0.0,0.0,0.0,0.0,0.0,0.0,0.0,0.0,0.0,0.0,0.0,0.0,0.0,0.0,
0.3085,3.0439425010318484,3.00908352490298,3.036371960933354,0.0,0.0,0.007539239712152333,3.0297993289560607,0.0,0.0,0.0,0.0,0.0,0.0,0.0,0.0,0.0,0.0,0.0,0.0,0.0,0.0,
0.3239,3.044114896968441,3.0092374860384963,3.036546846385169,0.0,0.0,0.007533778352865982,3.029966409797369,0.0,0.0,0.0,0.0,0.0,0.0,0.0,0.0,0.0,0.0,0.0,0.0,0.0,0.0,
0.3393,3.0442957348137405,3.0093989817451083,3.0367302964799294,0.0,0.0,0.007528047429857903,3.030141671012926,0.0,0.0,0.0,0.0,0.0,0.0,0.0,0.0,0.0,0.0,0.0,0.0,0.0,0.0,
0.3547,3.0444850211019068,3.00956801719519,3.036922317964895,0.0,0.0,0.007522046430119867,3.0303251187539977,0.0,0.0,0.0,0.0,0.0,0.0,0.0,0.0,0.0,0.0,0.0,0.0,0.0,0.0,
0.3701,3.044682762675862,3.009744597805098,3.0371229179062467,0.0,0.0,0.007515774816173216,3.0305167594624023,0.0,0.0,0.0,0.0,0.0,0.0,0.0,0.0,0.0,0.0,0.0,0.0,0.0,0.0,
0.3856,3.044890333345236,3.009929949582032,3.03733349011299,0.0,0.0,0.007509188652902136,3.030717924346753,0.0,0.0,0.0,0.0,0.0,0.0,0.0,0.0,0.0,0.0,0.0,0.0,0.0,0.0,
0.401,3.0451050622830476,3.0101216868289726,3.03755132527364,0.0,0.0,0.007502372333110138,3.0309260247952197,0.0,0.0,0.0,0.0,0.0,0.0,0.0,0.0,0.0,0.0,0.0,0.0,0.0,0.0,
0.4164,3.045328268947402,3.010320986995126,3.037777762064101,0.0,0.0,0.007495283634895053,3.0311423393355432,0.0,0.0,0.0,0.0,0.0,0.0,0.0,0.0,0.0,0.0,0.0,0.0,0.0,0.0,
0.4318,3.045559961426177,3.0105278564800253,3.038012808836561,0.0,0.0,0.007487921921807826,3.0313668755809213,0.0,0.0,0.0,0.0,0.0,0.0,0.0,0.0,0.0,0.0,0.0,0.0,0.0,0.0,
0.4473,3.045801735550542,3.0107437192049944,3.03825808469323,0.0,0.0,0.007480236056177128,3.031601179816255,0.0,0.0,0.0,0.0,0.0,0.0,0.0,0.0,0.0,0.0,0.0,0.0,0.0,0.0,
0.4627,3.0460504804170805,3.0109657967766474,3.0385104338336535,0.0,0.0,0.007472324520190445,3.0318422370091276,0.0,0.0,0.0,0.0,0.0,0.0,0.0,0.0,0.0,0.0,0.0,0.0,0.0,0.0,
0.4781,3.0463077373020213,3.011195464396797,3.0387714200169955,0.0,0.0,0.0074641379051018815,3.032091540571938,0.0,0.0,0.0,0.0,0.0,0.0,0.0,0.0,0.0,0.0,0.0,0.0,0.0,0.0,
0.4935,3.0465735155521907,3.0114327294580945,3.0390410528960574,0.0,0.0,0.007455675473798015,3.0323490993021145,0.0,0.0,0.0,0.0,0.0,0.0,0.0,0.0,0.0,0.0,0.0,0.0,0.0,0.0,
0.509,3.0468496339598468,3.011679214538006,3.0393211778367912,0.0,0.0,0.0074468788114031475,3.0326166754448813,0.0,0.0,0.0,0.0,0.0,0.0,0.0,0.0,0.0,0.0,0.0,0.0,0.0,0.0,
0.5244,3.047132539743128,3.0119317471200766,3.039608190689018,0.0,0.0,0.007437860630801538,3.0328908258507408,0.0,0.0,0.0,0.0,0.0,0.0,0.0,0.0,0.0,0.0,0.0,0.0,0.0,0.0,
0.5398,3.0474239969042882,3.0121919008757057,3.03990388123298,0.0,0.0,0.007428564264234785,3.0331732596709915,0.0,0.0,0.0,0.0,0.0,0.0,0.0,0.0,0.0,0.0,0.0,0.0,0.0,0.0,
0.5552,3.0477240160653216,3.0124596842022267,3.04020826043912,0.0,0.0,0.007418988871955291,3.033463986902223,0.0,0.0,0.0,0.0,0.0,0.0,0.0,0.0,0.0,0.0,0.0,0.0,0.0,0.0,
0.5706,3.048032608169298,3.0127351057497074,3.040521339609616,0.0,0.0,0.007409133588258379,3.033763017842874,0.0,0.0,0.0,0.0,0.0,0.0,0.0,0.0,0.0,0.0,0.0,0.0,0.0,0.0,
0.5861,3.0483518721449605,3.013020037539496,3.0408452484242123,0.0,0.0,0.007398930783174175,3.034072386036223,0.0,0.0,0.0,0.0,0.0,0.0,0.0,0.0,0.0,0.0,0.0,0.0,0.0,0.0,
0.6015,3.0486777001097916,3.0133108122409835,3.0411758194498963,0.0,0.0,0.007388511182680774,3.0343881106002235,0.0,0.0,0.0,0.0,0.0,0.0,0.0,0.0,0.0,0.0,0.0,0.0,0.0,0.0,
0.6169,3.049012135863758,3.013609252700706,3.041515126431004,0.0,0.0,0.007377808930218006,3.0347121716651557,0.0,0.0,0.0,0.0,0.0,0.0,0.0,0.0,0.0,0.0,0.0,0.0,0.0,0.0,
0.6323,3.049355191648641,3.013915368590124,3.041863182011993,0.0,0.0,0.007366823054581862,3.0350445807502524,0.0,0.0,0.0,0.0,0.0,0.0,0.0,0.0,0.0,0.0,0.0,0.0,0.0,0.0,
0.6478,3.049709191962332,3.014231232644975,3.0422223448306673,0.0,0.0,0.00735547844047482,3.035387589812658,0.0,0.0,0.0,0.0,0.0,0.0,0.0,0.0,0.0,0.0,0.0,0.0,0.0,0.0,
0.6632,3.0500695820277803,3.0145527794430382,3.042587993924158,0.0,0.0,0.007343920439541632,3.035736785131659,0.0,0.0,0.0,0.0,0.0,0.0,0.0,0.0,0.0,0.0,0.0,0.0,0.0,0.0,
0.6786,3.0504386309064135,3.014882032301218,3.042962431677131,0.0,0.0,0.007332075733847643,3.036094364961588,0.0,0.0,0.0,0.0,0.0,0.0,0.0,0.0,0.0,0.0,0.0,0.0,0.0,0.0,
0.694,3.0508163521602008,3.015219001927654,3.0433456720988357,0.0,0.0,0.007319943244063031,3.0364603420622305,0.0,0.0,0.0,0.0,0.0,0.0,0.0,0.0,0.0,0.0,0.0,0.0,0.0,0.0,
0.7094,3.051202759684241,3.0155636992917345,3.0437377295429684,0.0,0.0,0.007307521863424236,3.0368347295063143,0.0,0.0,0.0,0.0,0.0,0.0,0.0,0.0,0.0,0.0,0.0,0.0,0.0,0.0,
0.7249,3.0516004618083596,3.0159184494875944,3.0441412507789978,0.0,0.0,0.007294726965670147,3.0372200540249836,0.0,0.0,0.0,0.0,0.0,0.0,0.0,0.0,0.0,0.0,0.0,0.0,0.0,0.0,
0.7403,3.052004341538331,3.016278686651839,3.04455104421143,0.0,0.0,0.007281722477667737,3.0376113574672003,0.0,0.0,0.0,0.0,0.0,0.0,0.0,0.0,0.0,0.0,0.0,0.0,0.0,0.0,
0.7557,3.0524169513362884,3.0166466861181465,3.0449696999114466,0.0,0.0,0.007268425604194373,3.038011112455294,0.0,0.0,0.0,0.0,0.0,0.0,0.0,0.0,0.0,0.0,0.0,0.0,0.0,0.0,
0.7711,3.052838306447904,3.0170224599141022,3.0453972336293447,0.0,0.0,0.007254835126638737,3.03841933333045,0.0,0.0,0.0,0.0,0.0,0.0,0.0,0.0,0.0,0.0,0.0,0.0,0.0,0.0,
0.7866,3.053271244085033,3.0174085364591314,3.0458365245155856,0.0,0.0,0.007240858667194062,3.03883876835325,0.0,0.0,0.0,0.0,0.0,0.0,0.0,0.0,0.0,0.0,0.0,0.0,0.0,0.0,
0.802,3.053710193972844,3.017799946752212,3.0462819208488976,0.0,0.0,0.007226675284590652,3.0392640205246515,0.0,0.0,0.0,0.0,0.0,0.0,0.0,0.0,0.0,0.0,0.0,0.0,0.0,0.0,
0.8174,3.0541579370724885,3.0181991691490437,3.0467362446859925,0.0,0.0,0.007212194462091634,3.0396977836358414,0.0,0.0,0.0,0.0,0.0,0.0,0.0,0.0,0.0,0.0,0.0,0.0,0.0,0.0,
0.8328,3.0546144900073418,3.018606216754595,3.0471995132021443,0.0,0.0,0.007197414865890698,3.0401400733213606,0.0,0.0,0.0,0.0,0.0,0.0,0.0,0.0,0.0,0.0,0.0,0.0,0.0,0.0,
0.8483,3.055082920577816,3.0190238226570436,3.047674839692406,0.0,0.0,0.007182236228697291,3.0405938609757555,0.0,0.0,0.0,0.0,0.0,0.0,0.0,0.0,0.0,0.0,0.0,0.0,0.0,0.0,
0.8637,3.0555572019356387,3.019446612118569,3.0481561089081004,0.0,0.0,0.007166853003582031,3.041053307654103,0.0,0.0,0.0,0.0,0.0,0.0,0.0,0.0,0.0,0.0,0.0,0.0,0.0,0.0,
0.8791,3.05604034521295,3.0198772678332286,3.0486463766192506,0.0,0.0,0.00715116681718005,3.0415213298884765,0.0,0.0,0.0,0.0,0.0,0.0,0.0,0.0,0.0,0.0,0.0,0.0,0.0,0.0,
0.8945,3.0565323684407026,3.020315804004502,3.0491456614574757,0.0,0.0,0.007135176216798522,3.0419979446342267,0.0,0.0,0.0,0.0,0.0,0.0,0.0,0.0,0.0,0.0,0.0,0.0,0.0,0.0,
0.9099,3.0570332900061605,3.0207622351135677,3.0496539824231204,0.0,0.0,0.007118879719453644,3.0424831691809495,0.0,0.0,0.0,0.0,0.0,0.0,0.0,0.0,0.0,0.0,0.0,0.0,0.0,0.0,
0.9254,3.0575464684766605,3.0212195520660465,3.0501747481096353,0.0,0.0,0.007102166986103037,3.0429802562174473,0.0,0.0,0.0,0.0,0.0,0.0,0.0,0.0,0.0,0.0,0.0,0.0,0.0,0.0,
0.9408,3.0580653014053336,3.0216818691214646,3.0507012588122917,0.0,0.0,0.007085252112103304,3.0434828097796967,0.0,0.0,0.0,0.0,0.0,0.0,0.0,0.0,0.0,0.0,0.0,0.0,0.0,0.0,
0.9562,3.0585930901198735,3.0221521263396145,3.05123686500945,0.0,0.0,0.0070680266974977495,3.0439940271563124,0.0,0.0,0.0,0.0,0.0,0.0,0.0,0.0,0.0,0.0,0.0,0.0,0.0,0.0,
0.9716,3.059129854456309,3.022630339329295,3.0517815872009297,0.0,0.0,0.007050489135291903,3.0445139269955113,0.0,0.0,0.0,0.0,0.0,0.0,0.0,0.0,0.0,0.0,0.0,0.0,0.0,0.0,
0.9871,3.0596791879566343,3.02311970711314,3.0523390726581736,0.0,0.0,0.007032520839963985,3.045045989242649,0.0,0.0,0.0,0.0,0.0,0.0,0.0,0.0,0.0,0.0,0.0,0.0,0.0,0.0,
1.0025,3.0602340231319682,3.0236139315379353,3.0529021493993276,0.0,0.0,0.007014351980758359,3.045583368023077,0.0,0.0,0.0,0.0,0.0,0.0,0.0,0.0,0.0,0.0,0.0,0.0,0.0,0.0,
1.0179,3.060797895786724,3.0241161603871523,3.053474406066389,0.0,0.0,0.0069958659507805285,3.0461294874134217,0.0,0.0,0.0,0.0,0.0,0.0,0.0,0.0,0.0,0.0,0.0,0.0,0.0,0.0,
1.0333,3.061370827241996,3.02462641042283,3.054055864696736,0.0,0.0,0.0069770610144905525,3.0466843674538535,0.0,0.0,0.0,0.0,0.0,0.0,0.0,0.0,0.0,0.0,0.0,0.0,0.0,0.0,
1.0487,3.061952839195575,3.0251446986990143,3.0546465477178333,0.0,0.0,0.006957935403509999,3.0472480285374743,0.0,0.0,0.0,0.0,0.0,0.0,0.0,0.0,0.0,0.0,0.0,0.0,0.0,0.0,
1.0642,3.0625478219250435,3.0256744867436374,3.055250403869634,0.0,0.0,0.00693835997223451,3.047824237512772,0.0,0.0,0.0,0.0,0.0,0.0,0.0,0.0,0.0,0.0,0.0,0.0,0.0,0.0,
1.0796,3.0631481208155424,3.0262089563220185,3.055859664802431,0.0,0.0,0.006918585461815053,3.048405580646664,0.0,0.0,0.0,0.0,0.0,0.0,0.0,0.0,0.0,0.0,0.0,0.0,0.0,0.0,
1.095,3.0637575677325994,3.0267515171907498,3.0564782199299514,0.0,0.0,0.006898484759111469,3.0489957682844335,0.0,0.0,0.0,0.0,0.0,0.0,0.0,0.0,0.0,0.0,0.0,0.0,0.0,0.0,
1.1104,3.0643761859087535,3.027302187592081,3.0571060932692897,0.0,0.0,0.006878055960955453,3.049594822256708,0.0,0.0,0.0,0.0,0.0,0.0,0.0,0.0,0.0,0.0,0.0,0.0,0.0,0.0,
1.1259,3.0650081057740124,3.027864641233262,3.0577474775915796,0.0,0.0,0.006857161249304458,3.0502067415329512,0.0,0.0,0.0,0.0,0.0,0.0,0.0,0.0,0.0,0.0,0.0,0.0,0.0,0.0,
1.1413,3.0656451976697614,3.0284316395977138,3.058394121933401,0.0,0.0,0.006836068250058307,3.0508236530669586,0.0,0.0,0.0,0.0,0.0,0.0,0.0,0.0,0.0,0.0,0.0,0.0,0.0,0.0,
1.1567,3.0662915330312432,3.0290068041619933,3.059050159137599,0.0,0.0,0.006814641224408235,3.0514494987769454,0.0,0.0,0.0,0.0,0.0,0.0,0.0,0.0,0.0,0.0,0.0,0.0,0.0,0.0,
1.1721,3.06694713666915,3.029590154387052,3.0597156148564424,0.0,0.0,0.006792878128903955,3.0520843019708814,0.0,0.0,0.0,0.0,0.0,0.0,0.0,0.0,0.0,0.0,0.0,0.0,0.0,0.0,
1.1876,3.067616381734377,3.0301855781712193,3.0603949285483703,0.0,0.0,0.006770632259974792,3.0527322961513224,0.0,0.0,0.0,0.0,0.0,0.0,0.0,0.0,0.0,0.0,0.0,0.0,0.0,0.0,
1.203,3.0682906585626135,3.0307854128182425,3.061079361507009,0.0,0.0,0.006748188533831142,3.053385144295955,0.0,0.0,0.0,0.0,0.0,0.0,0.0,0.0,0.0,0.0,0.0,0.0,0.0,0.0,
1.2184,3.068974280687937,3.0313934935059152,3.0617732926196948,0.0,0.0,0.00672540237631971,3.0540470222711824,0.0,0.0,0.0,0.0,0.0,0.0,0.0,0.0,0.0,0.0,0.0,0.0,0.0,0.0,
1.2338,3.069667274546021,3.0320098409467215,3.0624767492230256,0.0,0.0,0.006702271597749171,3.054717954905256,0.0,0.0,0.0,0.0,0.0,0.0,0.0,0.0,0.0,0.0,0.0,0.0,0.0,0.0,
1.2492,3.0703696669858394,3.0326344761709563,3.0631897590821104,0.0,0.0,0.006678793970940269,3.0553979674129685,0.0,0.0,0.0,0.0,0.0,0.0,0.0,0.0,0.0,0.0,0.0,0.0,0.0,0.0,
1.2647,3.0710861383319656,3.0332715577573266,3.063917073918242,0.0,0.0,0.0066548113658650414,3.0560915900025116,0.0,0.0,0.0,0.0,0.0,0.0,0.0,0.0,0.0,0.0,0.0,0.0,0.0,0.0,
1.2801,3.0718074716295143,3.033912887089377,3.0646493378126607,0.0,0.0,0.006630630919490968,3.0567898988438507,0.0,0.0,0.0,0.0,0.0,0.0,0.0,0.0,0.0,0.0,0.0,0.0,0.0,0.0,
1.2955,3.0725382867518594,3.034562569369034,3.0653912410532773,0.0,0.0,0.006606096698931456,3.0574973657247235,0.0,0.0,0.0,0.0,0.0,0.0,0.0,0.0,0.0,0.0,0.0,0.0,0.0,0.0,
1.3109,3.0732786122366322,3.035220626922712,3.0661428131562785,0.0,0.0,0.006581206322613,3.058214017438541,0.0,0.0,0.0,0.0,0.0,0.0,0.0,0.0,0.0,0.0,0.0,0.0,0.0,0.0,
1.3264,3.074033377540452,3.0358914375323884,3.0669090591619574,0.0,0.0,0.006555792237965598,3.058944624744933,0.0,0.0,0.0,0.0,0.0,0.0,0.0,0.0,0.0,0.0,0.0,0.0,0.0,0.0,
1.3418,3.0747928733179317,3.0365663686907034,3.067680122603109,0.0,0.0,0.006530179893915742,3.059679788203915,0.0,0.0,0.0,0.0,0.0,0.0,0.0,0.0,0.0,0.0,0.0,0.0,0.0,0.0,
1.3572,3.0755619678596653,3.03724974424124,3.0684609463477024,0.0,0.0,0.006504203993430443,3.060424219482869,0.0,0.0,0.0,0.0,0.0,0.0,0.0,0.0,0.0,0.0,0.0,0.0,0.0,0.0,
1.3726,3.0763406914472404,3.037941587845255,3.0692515617210843,0.0,0.0,0.006477861993410662,3.061177947004527,0.0,0.0,0.0,0.0,0.0,0.0,0.0,0.0,0.0,0.0,0.0,0.0,0.0,0.0,
1.388,3.07712907480654,3.0386419235034245,3.0700520005096745,0.0,0.0,0.006451151309263057,3.0619409996065463,0.0,0.0,0.0,0.0,0.0,0.0,0.0,0.0,0.0,0.0,0.0,0.0,0.0,0.0,
1.4035,3.0779323631496585,3.0393554063779624,3.070867588895258,0.0,0.0,0.006423892238107265,3.0627184528076263,0.0,0.0,0.0,0.0,0.0,0.0,0.0,0.0,0.0,0.0,0.0,0.0,0.0,0.0,
1.4189,3.0787402232645684,3.04007285506077,3.071687836056108,0.0,0.0,0.006396433826230786,3.063500304793816,0.0,0.0,0.0,0.0,0.0,0.0,0.0,0.0,0.0,0.0,0.0,0.0,0.0,0.0,
1.4343,3.0795578382430384,3.040798870027053,3.0725180050150547,0.0,0.0,0.006368598704780395,3.064291571095049,0.0,0.0,0.0,0.0,0.0,0.0,0.0,0.0,0.0,0.0,0.0,0.0,0.0,0.0,
1.4497,3.0803852406298016,3.0415334766644677,3.073358129446289,0.0,0.0,0.0063403841179070575,3.065092282246853,0.0,0.0,0.0,0.0,0.0,0.0,0.0,0.0,0.0,0.0,0.0,0.0,0.0,0.0,
1.4652,3.0812279321096194,3.0422815550611984,3.074213796446664,0.0,0.0,0.0063116003164989404,3.065907761205827,0.0,0.0,0.0,0.0,0.0,0.0,0.0,0.0,0.0,0.0,0.0,0.0,0.0,0.0,
1.4806,3.0820750729035926,3.043033478832047,3.0750739999826355,0.0,0.0,0.006282615844410628,3.066727517239425,0.0,0.0,0.0,0.0,0.0,0.0,0.0,0.0,0.0,0.0,0.0,0.0,0.0,0.0,
1.496,3.082932101761949,3.0437940727402197,3.0759442631501397,0.0,0.0,0.006253243354009312,3.0675568125507695,0.0,0.0,0.0,0.0,0.0,0.0,0.0,0.0,0.0,0.0,0.0,0.0,0.0,0.0,
1.5114,3.0837990531130273,3.044563363605525,3.0768246215791852,0.0,0.0,0.006223479909695303,3.068395679432579,0.0,0.0,0.0,0.0,0.0,0.0,0.0,0.0,0.0,0.0,0.0,0.0,0.0,0.0,
1.5269,3.084681688694963,3.0453464592272232,3.0777209269880994,0.0,0.0,0.006193125408545986,3.0692496916367618,0.0,0.0,0.0,0.0,0.0,0.0,0.0,0.0,0.0,0.0,0.0,0.0,0.0,0.0,
1.5423,3.0855686552493093,3.046133282848748,3.0786216509793336,0.0,0.0,0.006162568476261354,3.0701078630257967,0.0,0.0,0.0,0.0,0.0,0.0,0.0,0.0,0.0,0.0,0.0,0.0,0.0,0.0,
1.5577,3.086465650718673,3.046928886270796,3.0795325803797993,0.0,0.0,0.006131611483185857,3.070975705789756,0.0,0.0,0.0,0.0,0.0,0.0,0.0,0.0,0.0,0.0,0.0,0.0,0.0,0.0,
1.5731,3.0873727114846323,3.0477332977936076,3.0804537528484497,0.0,0.0,0.006100251304795632,3.07185325404223,0.0,0.0,0.0,0.0,0.0,0.0,0.0,0.0,0.0,0.0,0.0,0.0,0.0,0.0,
1.5885,3.088289874427651,3.0485465460947925,3.081385206562593,0.0,0.0,0.006068484767897285,3.0727405423616787,0.0,0.0,0.0,0.0,0.0,0.0,0.0,0.0,0.0,0.0,0.0,0.0,0.0,0.0,
1.604,3.0892232315937025,3.049374027672448,3.082333129445661,0.0,0.0,0.006036098368600422,3.0736434629039375,0.0,0.0,0.0,0.0,0.0,0.0,0.0,0.0,0.0,0.0,0.0,0.0,0.0,0.0,
1.6194,3.090160777764045,3.050205094948039,3.0832853296780445,0.0,0.0,0.0060035067056031875,3.0745504007967095,0.0,0.0,0.0,0.0,0.0,0.0,0.0,0.0,0.0,0.0,0.0,0.0,0.0,0.0,
1.6348,3.09110854004521,3.051045087527432,3.08424792910833,0.0,0.0,0.00597049884440974,3.075467185560324,0.0,0.0,0.0,0.0,0.0,0.0,0.0,0.0,0.0,0.0,0.0,0.0,0.0,0.0,
1.6502,3.0920665573648125,3.0518940356337394,3.0852209680414995,0.0,0.0,0.005937071410406042,3.076393853680017,0.0,0.0,0.0,0.0,0.0,0.0,0.0,0.0,0.0,0.0,0.0,0.0,0.0,0.0,
1.6657,3.0930411906406703,3.0527575703188785,3.0862109081537312,0.0,0.0,0.00590299977916017,3.0773365563710935,0.0,0.0,0.0,0.0,0.0,0.0,0.0,0.0,0.0,0.0,0.0,0.0,0.0,0.0,
1.6811,3.094019904157479,3.0536245803845548,3.087205017648971,0.0,0.0,0.005868720086412163,3.0782831673970015,0.0,0.0,0.0,0.0,0.0,0.0,0.0,0.0,0.0,0.0,0.0,0.0,0.0,0.0,
1.6965,3.095008992921493,3.0545006392322027,3.08820969112267,0.0,0.0,0.005834010359473822,3.079239774425455,0.0,0.0,0.0,0.0,0.0,0.0,0.0,0.0,0.0,0.0,0.0,0.0,0.0,0.0,
1.7119,3.0960084979886733,3.055385778686564,3.0892249710928024,0.0,0.0,0.005798867011412203,3.08020641592268,0.0,0.0,0.0,0.0,0.0,0.0,0.0,0.0,0.0,0.0,0.0,0.0,0.0,0.0,
1.7274,3.097025053427172,3.05628586766478,3.09025759742007,0.0,0.0,0.005763053920620218,3.081189506170674,0.0,0.0,0.0,0.0,0.0,0.0,0.0,0.0,0.0,0.0,0.0,0.0,0.0,0.0,
1.7428,3.0980455847734207,3.057189324940167,3.0912942897887095,0.0,0.0,0.0057270294740137655,3.082176399834099,0.0,0.0,0.0,0.0,0.0,0.0,0.0,0.0,0.0,0.0,0.0,0.0,0.0,0.0,
1.7582,3.0990766591593326,3.0581019609813973,3.0923417199182506,0.0,0.0,0.0056905602891690575,3.083173446686327,0.0,0.0,0.0,0.0,0.0,0.0,0.0,0.0,0.0,0.0,0.0,0.0,0.0,0.0,
1.7736,3.1001183198562057,3.0590238092747803,3.0933999326311254,0.0,0.0,0.005653642555071256,3.084180687254037,0.0,0.0,0.0,0.0,0.0,0.0,0.0,0.0,0.0,0.0,0.0,0.0,0.0,0.0,
1.789,3.101170610702535,3.0599549037310867,3.094468973339929,0.0,0.0,0.005616272402834629,3.0851981625911833,0.0,0.0,0.0,0.0,0.0,0.0,0.0,0.0,0.0,0.0,0.0,0.0,0.0,0.0,
1.8045,3.102240513463441,3.0609014154235616,3.095555936122895,0.0,0.0,0.005578198778340428,3.0862326216699656,0.0,0.0,0.0,0.0,0.0,0.0,0.0,0.0,0.0,0.0,0.0,0.0,0.0,0.0,
