energies(eV),real_xx,real_yy,real_zz,real_xy,real_yz,real_xz,real_ave,imag_xx,imag_yy,imag_zz,imag_xy,imag_yz,imag_xz,imag_ave,absorption_xx,absorption_yy,absorption_zz,absorption_xy,absorption_yz,absorption_xz,absorption_ave,band_gap
0.0,3.7450922898745045,3.7162940406180858,3.84349040010621,0.0,0.0,0.0,3.7682922435329336,0.0,0.0,0.0,0.0,0.0,0.0,0.0,0.0,0.0,0.0,0.0,0.0,0.0,0.0,2.4345999999999997
0.016,3.745104526443808,3.716305519542585,3.843502951989411,0.0,0.0,0.0,3.7683043326586017,0.0,0.0,0.0,0.0,0.0,0.0,0.0,0.0,0.0,0.0,0.0,0.0,0.0,0.0,
0.032,3.745141237480592,3.7163399575611566,3.843540608886652,0.0,0.0,0.0,3.768340601309467,0.0,0.0,0.0,0.0,0.0,0.0,0.0,0.0,0.0,0.0,0.0,0.0,0.0,0.0,
0.0479,3.745201968508482,3.7163969283321716,3.84360290426966,0.0,0.0,0.0,3.768400600370105,0.0,0.0,0.0,0.0,0.0,0.0,0.0,0.0,0.0,0.0,0.0,0.0,0.0,0.0,
0.0639,3.7452874900442072,3.716477154656742,3.843690627928095,0.0,0.0,0.0,3.768485090876348,0.0,0.0,0.0,0.0,0.0,0.0,0.0,0.0,0.0,0.0,0.0,0.0,0.0,0.0,
0.0799,3.745397505925608,3.716580358699034,3.8438034752607178,0.0,0.0,0.0,3.768593779961787,0.0,0.0,0.0,0.0,0.0,0.0,0.0,0.0,0.0,0.0,0.0,0.0,0.0,0.0,
0.0959,3.745532028112492,3.7167065516644917,3.8439414574931687,0.0,0.0,0.0,3.768726679090051,0.0,0.0,0.0,0.0,0.0,0.0,0.0,0.0,0.0,0.0,0.0,0.0,0.0,0.0,
0.1118,3.7456900010330916,3.716854743323172,3.844103490658921,0.0,0.0,0.0,3.7688827450050617,0.0,0.0,0.0,0.0,0.0,0.0,0.0,0.0,0.0,0.0,0.0,0.0,0.0,0.0,
0.1278,3.7458734289782263,3.7170268138465703,3.8442916290615248,0.0,0.0,0.0,3.7690639572954403,0.0,0.0,0.0,0.0,0.0,0.0,0.0,0.0,0.0,0.0,0.0,0.0,0.0,0.0,
0.1438,3.746081415027629,3.717221921828199,3.844504950972952,0.0,0.0,0.0,3.7692694292762603,0.0,0.0,0.0,0.0,0.0,0.0,0.0,0.0,0.0,0.0,0.0,0.0,0.0,0.0,
0.1598,3.7463139818495756,3.717440088509739,3.844743477660134,0.0,0.0,0.0,3.7694991826731497,0.0,0.0,0.0,0.0,0.0,0.0,0.0,0.0,0.0,0.0,0.0,0.0,0.0,0.0,
0.1758,3.74657115481394,3.7176813376657654,3.845007232920667,0.0,0.0,0.0,3.769753241800124,0.0,0.0,0.0,0.0,0.0,0.0,0.0,0.0,0.0,0.0,0.0,0.0,0.0,0.0,
0.1917,3.746851124144651,3.717943971554865,3.8452943582910506,0.0,0.0,0.0,3.7700298179968557,0.0,0.0,0.0,0.0,0.0,0.0,0.0,0.0,0.0,0.0,0.0,0.0,0.0,0.0,
0.2077,3.747157442105131,3.718231322461728,3.845608494138206,0.0,0.0,0.0,3.770332419568355,0.0,0.0,0.0,0.0,0.0,0.0,0.0,0.0,0.0,0.0,0.0,0.0,0.0,0.0,
0.2237,3.747488458418552,3.718541842266712,3.845947945019933,0.0,0.0,0.0,3.770659415235066,0.0,0.0,0.0,0.0,0.0,0.0,0.0,0.0,0.0,0.0,0.0,0.0,0.0,0.0,
0.2397,3.747844209359036,3.7188755649723726,3.8463127449338645,0.0,0.0,0.0,3.771010839755091,0.0,0.0,0.0,0.0,0.0,0.0,0.0,0.0,0.0,0.0,0.0,0.0,0.0,0.0,
0.2557,3.748224733965533,3.7192325271760143,3.8467029304594504,0.0,0.0,0.0,3.7713867305336657,0.0,0.0,0.0,0.0,0.0,0.0,0.0,0.0,0.0,0.0,0.0,0.0,0.0,0.0,
0.2716,3.748627463527973,3.7196103192033947,3.8471158641657937,0.0,0.0,0.0,3.7717845489657207,0.0,0.0,0.0,0.0,0.0,0.0,0.0,0.0,0.0,0.0,0.0,0.0,0.0,0.0,
0.2876,3.7490575082042237,3.720013734764884,3.8475567817453755,0.0,0.0,0.0,3.7722093415714943,0.0,0.0,0.0,0.0,0.0,0.0,0.0,0.0,0.0,0.0,0.0,0.0,0.0,0.0,
0.3036,3.749512460113914,3.7204405150618856,3.848023210015609,0.0,0.0,0.0,3.7726587283971362,0.0,0.0,0.0,0.0,0.0,0.0,0.0,0.0,0.0,0.0,0.0,0.0,0.0,0.0,
0.3196,3.7499923695106125,3.720890707223463,3.8485151960068515,0.0,0.0,0.0,3.7731327575803086,0.0,0.0,0.0,0.0,0.0,0.0,0.0,0.0,0.0,0.0,0.0,0.0,0.0,0.0,
0.3355,3.750494055971601,3.7213613277612567,3.8490294748176765,0.0,0.0,0.0,3.7736282861835115,0.0,0.0,0.0,0.0,0.0,0.0,0.0,0.0,0.0,0.0,0.0,0.0,0.0,0.0,
0.3515,3.751023885708795,3.721858348670527,3.849572567444813,0.0,0.0,0.0,3.774151600608045,0.0,0.0,0.0,0.0,0.0,0.0,0.0,0.0,0.0,0.0,0.0,0.0,0.0,0.0,
0.3675,3.7515788405513173,3.7223789386792534,3.850141374544172,0.0,0.0,0.0,3.774699717924914,0.0,0.0,0.0,0.0,0.0,0.0,0.0,0.0,0.0,0.0,0.0,0.0,0.0,0.0,
0.3835,3.7521589823028574,3.7229231557771727,3.8507359538673778,0.0,0.0,0.0,3.7752726973158026,0.0,0.0,0.0,0.0,0.0,0.0,0.0,0.0,0.0,0.0,0.0,0.0,0.0,0.0,
0.3995,3.7527643757213456,3.7234910607345264,3.851356365900574,0.0,0.0,0.0,3.7758706007854825,0.0,0.0,0.0,0.0,0.0,0.0,0.0,0.0,0.0,0.0,0.0,0.0,0.0,0.0,
0.4154,3.7533910678182734,3.724078945381488,3.851998553907638,0.0,0.0,0.0,3.776489522369133,0.0,0.0,0.0,0.0,0.0,0.0,0.0,0.0,0.0,0.0,0.0,0.0,0.0,0.0,
0.4314,3.7540470118862235,3.724694270552789,3.8526706613955315,0.0,0.0,0.0,3.777137314611515,0.0,0.0,0.0,0.0,0.0,0.0,0.0,0.0,0.0,0.0,0.0,0.0,0.0,0.0,
0.4474,3.7547284194325234,3.7253334824120854,3.853368799246344,0.0,0.0,0.0,3.777810233696984,0.0,0.0,0.0,0.0,0.0,0.0,0.0,0.0,0.0,0.0,0.0,0.0,0.0,0.0,
0.4634,3.755435367302767,3.7259966531176145,3.8540930390984944,0.0,0.0,0.0,3.7785083531729584,0.0,0.0,0.0,0.0,0.0,0.0,0.0,0.0,0.0,0.0,0.0,0.0,0.0,0.0,
0.4793,3.75616327716521,3.7266794879321132,3.854838683895917,0.0,0.0,0.0,3.7792271496644134,0.0,0.0,0.0,0.0,0.0,0.0,0.0,0.0,0.0,0.0,0.0,0.0,0.0,0.0,
0.4953,3.75692138776973,3.7273906536092687,3.8556151897852327,0.0,0.0,0.0,3.7799757437214105,0.0,0.0,0.0,0.0,0.0,0.0,0.0,0.0,0.0,0.0,0.0,0.0,0.0,0.0,
0.5113,3.7577052874648667,3.7281260118079973,3.856418029329086,0.0,0.0,0.0,3.78074977620065,0.0,0.0,0.0,0.0,0.0,0.0,0.0,0.0,0.0,0.0,0.0,0.0,0.0,0.0,
0.5273,3.7585150657168147,3.728885646597955,3.8572472857432576,0.0,0.0,0.0,3.781549332686009,0.0,0.0,0.0,0.0,0.0,0.0,0.0,0.0,0.0,0.0,0.0,0.0,0.0,0.0,
0.5433,3.7593508152469663,3.729669645124778,3.8581030452178084,0.0,0.0,0.0,3.7823745018631842,0.0,0.0,0.0,0.0,0.0,0.0,0.0,0.0,0.0,0.0,0.0,0.0,0.0,0.0,
0.5592,3.7602071645636115,3.7304729686901648,3.858979799481373,0.0,0.0,0.0,3.783219977578383,0.0,0.0,0.0,0.0,0.0,0.0,0.0,0.0,0.0,0.0,0.0,0.0,0.0,0.0,
0.5752,3.7610949841864563,3.731305814918556,3.8598886686384635,0.0,0.0,0.0,3.784096489247825,0.0,0.0,0.0,0.0,0.0,0.0,0.0,0.0,0.0,0.0,0.0,0.0,0.0,0.0,
0.5912,3.7620090725523205,3.732163304578137,3.8608243170009384,0.0,0.0,0.0,3.7849988980437987,0.0,0.0,0.0,0.0,0.0,0.0,0.0,0.0,0.0,0.0,0.0,0.0,0.0,0.0,
0.6072,3.7629495358129423,3.733045537522358,3.861786842977453,0.0,0.0,0.0,3.785927305437584,0.0,0.0,0.0,0.0,0.0,0.0,0.0,0.0,0.0,0.0,0.0,0.0,0.0,0.0,
0.6232,3.7639164835996524,3.733952616901555,3.862776348127891,0.0,0.0,0.0,3.7868818162096995,0.0,0.0,0.0,0.0,0.0,0.0,0.0,0.0,0.0,0.0,0.0,0.0,0.0,0.0,
0.6391,3.764903736577261,3.7348787462950774,3.863786499191998,0.0,0.0,0.0,3.787856327354779,0.0,0.0,0.0,0.0,0.0,0.0,0.0,0.0,0.0,0.0,0.0,0.0,0.0,0.0,
0.6551,3.7659238291476718,3.735835684442189,3.8648301098834623,0.0,0.0,0.0,3.788863207824441,0.0,0.0,0.0,0.0,0.0,0.0,0.0,0.0,0.0,0.0,0.0,0.0,0.0,0.0,
0.6711,3.7669707557669123,3.7368177980446418,3.865901023034572,0.0,0.0,0.0,3.7898965256153754,0.0,0.0,0.0,0.0,0.0,0.0,0.0,0.0,0.0,0.0,0.0,0.0,0.0,0.0,
0.6871,3.768044640486773,3.737825203935928,3.8669993532009013,0.0,0.0,0.0,3.7909563992078676,0.0,0.0,0.0,0.0,0.0,0.0,0.0,0.0,0.0,0.0,0.0,0.0,0.0,0.0,
0.703,3.769138645660934,3.738851488226875,3.868118095888004,0.0,0.0,0.0,3.7920360765919376,0.0,0.0,0.0,0.0,0.0,0.0,0.0,0.0,0.0,0.0,0.0,0.0,0.0,0.0,
0.719,3.770266663281805,3.7399096835227517,3.869271444020832,0.0,0.0,0.0,3.7931492636084627,0.0,0.0,0.0,0.0,0.0,0.0,0.0,0.0,0.0,0.0,0.0,0.0,0.0,0.0,
0.735,3.771422033060699,3.740993542436774,3.8704525724225154,0.0,0.0,0.0,3.7942893826399957,0.0,0.0,0.0,0.0,0.0,0.0,0.0,0.0,0.0,0.0,0.0,0.0,0.0,0.0,
0.751,3.7726048944102426,3.742103196413432,3.8716616093755523,0.0,0.0,0.0,3.7954565667330757,0.0,0.0,0.0,0.0,0.0,0.0,0.0,0.0,0.0,0.0,0.0,0.0,0.0,0.0,
0.767,3.7738153907536907,3.7432387807182073,3.872898686726551,0.0,0.0,0.0,3.7966509527328163,0.0,0.0,0.0,0.0,0.0,0.0,0.0,0.0,0.0,0.0,0.0,0.0,0.0,0.0,
0.7829,3.775045843764698,3.744393092920223,3.8741559443237743,0.0,0.0,0.0,3.797864960336232,0.0,0.0,0.0,0.0,0.0,0.0,0.0,0.0,0.0,0.0,0.0,0.0,0.0,0.0,
0.7989,3.7763118816977013,3.745580795033159,3.8754493351332275,0.0,0.0,0.0,3.799114003954696,0.0,0.0,0.0,0.0,0.0,0.0,0.0,0.0,0.0,0.0,0.0,0.0,0.0,0.0,
0.8149,3.777606008693561,3.7467948559782984,3.8767711829156313,0.0,0.0,0.0,3.8003906825291636,0.0,0.0,0.0,0.0,0.0,0.0,0.0,0.0,0.0,0.0,0.0,0.0,0.0,0.0,
0.8309,3.7789283849271995,3.748035427006924,3.878121634314785,0.0,0.0,0.0,3.8016951487496358,0.0,0.0,0.0,0.0,0.0,0.0,0.0,0.0,0.0,0.0,0.0,0.0,0.0,0.0,
0.8468,3.7802706439434615,3.7492946602038995,3.8794921301843606,0.0,0.0,0.0,3.8030191447772403,0.0,0.0,0.0,0.0,0.0,0.0,0.0,0.0,0.0,0.0,0.0,0.0,0.0,0.0,
0.8628,3.781649837654692,3.7505885538685715,3.880900063070743,0.0,0.0,0.0,3.8043794848646684,0.0,0.0,0.0,0.0,0.0,0.0,0.0,0.0,0.0,0.0,0.0,0.0,0.0,0.0,
0.8788,3.783057786726477,3.751909435862442,3.8823370618990225,0.0,0.0,0.0,3.805768094829314,0.0,0.0,0.0,0.0,0.0,0.0,0.0,0.0,0.0,0.0,0.0,0.0,0.0,0.0,
0.8948,3.7844946693971195,3.7532574747212943,3.883803289107709,0.0,0.0,0.0,3.8071851444087077,0.0,0.0,0.0,0.0,0.0,0.0,0.0,0.0,0.0,0.0,0.0,0.0,0.0,0.0,
0.9108,3.7859606686566956,3.754632843535757,3.885298911262864,0.0,0.0,0.0,3.8086308078184388,0.0,0.0,0.0,0.0,0.0,0.0,0.0,0.0,0.0,0.0,0.0,0.0,0.0,0.0,
0.9267,3.78744653529835,3.756026866272409,3.8868144745332707,0.0,0.0,0.0,3.810095958701343,0.0,0.0,0.0,0.0,0.0,0.0,0.0,0.0,0.0,0.0,0.0,0.0,0.0,0.0,
0.9427,3.788971151243125,3.7574572593414337,3.8883692167291306,0.0,0.0,0.0,3.8115992091045627,0.0,0.0,0.0,0.0,0.0,0.0,0.0,0.0,0.0,0.0,0.0,0.0,0.0,0.0,
0.9587,3.7905254610097154,3.7589155287771487,3.8899538779512834,0.0,0.0,0.0,3.8131316225793825,0.0,0.0,0.0,0.0,0.0,0.0,0.0,0.0,0.0,0.0,0.0,0.0,0.0,0.0,
0.9747,3.7921096675862427,3.760401866873778,3.8915686420124818,0.0,0.0,0.0,3.814693392157501,0.0,0.0,0.0,0.0,0.0,0.0,0.0,0.0,0.0,0.0,0.0,0.0,0.0,0.0,
0.9907,3.7937239792430795,3.761916471007127,3.893213697248079,0.0,0.0,0.0,3.8162847158327615,0.0,0.0,0.0,0.0,0.0,0.0,0.0,0.0,0.0,0.0,0.0,0.0,0.0,0.0,
1.0066,3.7953582361081235,3.763449810713225,3.894878669409583,0.0,0.0,0.0,3.8178955720769774,0.0,0.0,0.0,0.0,0.0,0.0,0.0,0.0,0.0,0.0,0.0,0.0,0.0,0.0,
1.0226,3.797033212909111,3.7650213800828025,3.8965846981460284,0.0,0.0,0.0,3.819546430379314,0.0,0.0,0.0,0.0,0.0,0.0,0.0,0.0,0.0,0.0,0.0,0.0,0.0,0.0,
1.0386,3.7987389510808858,3.7666218379568788,3.898321609807657,0.0,0.0,0.0,3.821227466281807,0.0,0.0,0.0,0.0,0.0,0.0,0.0,0.0,0.0,0.0,0.0,0.0,0.0,0.0,
1.0546,3.8004756812181535,3.768251403227,3.9000896116942134,0.0,0.0,0.0,3.8229388987131223,0.0,0.0,0.0,0.0,0.0,0.0,0.0,0.0,0.0,0.0,0.0,0.0,0.0,0.0,
1.0705,3.802232492618821,3.7698998408315956,3.901877572788126,0.0,0.0,0.0,3.8246699687461807,0.0,0.0,0.0,0.0,0.0,0.0,0.0,0.0,0.0,0.0,0.0,0.0,0.0,0.0,
1.0865,3.8040317248384095,3.7715881150855073,3.9037081994027676,0.0,0.0,0.0,3.8264426797755617,0.0,0.0,0.0,0.0,0.0,0.0,0.0,0.0,0.0,0.0,0.0,0.0,0.0,0.0,
1.1025,3.8058626753373157,3.773306186790636,3.9055705670927363,0.0,0.0,0.0,3.828246476406896,0.0,0.0,0.0,0.0,0.0,0.0,0.0,0.0,0.0,0.0,0.0,0.0,0.0,0.0,
1.1185,3.8077255992347885,3.77505429854469,3.9074649037205877,0.0,0.0,0.0,3.8300816005000224,0.0,0.0,0.0,0.0,0.0,0.0,0.0,0.0,0.0,0.0,0.0,0.0,0.0,0.0,
1.1345,3.8096207581766115,3.7768326992655505,3.909391442574586,0.0,0.0,0.0,3.831948300005583,0.0,0.0,0.0,0.0,0.0,0.0,0.0,0.0,0.0,0.0,0.0,0.0,0.0,0.0,
1.1504,3.8115362711093055,3.7786302430586063,3.911338077616613,0.0,0.0,0.0,3.8338348639281747,0.0,0.0,0.0,0.0,0.0,0.0,0.0,0.0,0.0,0.0,0.0,0.0,0.0,0.0,
1.1664,3.813496506287031,3.7804698012166256,3.913329538032351,0.0,0.0,0.0,3.8357652818453354,0.0,0.0,0.0,0.0,0.0,0.0,0.0,0.0,0.0,0.0,0.0,0.0,0.0,0.0,
1.1824,3.815489800518184,3.782340433009022,3.9153539327189235,0.0,0.0,0.0,3.837728055415377,0.0,0.0,0.0,0.0,0.0,0.0,0.0,0.0,0.0,0.0,0.0,0.0,0.0,0.0,
1.1984,3.81751644324262,3.7842424143196136,3.9174115178599003,0.0,0.0,0.0,3.8397234584740443,0.0,0.0,0.0,0.0,0.0,0.0,0.0,0.0,0.0,0.0,0.0,0.0,0.0,0.0,
1.2143,3.8195637494185037,3.7861638443350114,3.919489382277301,0.0,0.0,0.0,3.841738992010272,0.0,0.0,0.0,0.0,0.0,0.0,0.0,0.0,0.0,0.0,0.0,0.0,0.0,0.0,
1.2303,3.8216577742150837,3.788129180977114,3.9216139296634114,0.0,0.0,0.0,3.8438002949518695,0.0,0.0,0.0,0.0,0.0,0.0,0.0,0.0,0.0,0.0,0.0,0.0,0.0,0.0,
1.2463,3.823786059234701,3.7901267370377805,3.9237724712598703,0.0,0.0,0.0,3.8458950891774504,0.0,0.0,0.0,0.0,0.0,0.0,0.0,0.0,0.0,0.0,0.0,0.0,0.0,0.0,
1.2623,3.8259489248289125,3.7921568184791723,3.9259652883262075,0.0,0.0,0.0,3.848023677211431,0.0,0.0,0.0,0.0,0.0,0.0,0.0,0.0,0.0,0.0,0.0,0.0,0.0,0.0,
1.2783,3.828146699639137,3.7942197393440407,3.928192668779884,0.0,0.0,0.0,3.850186369254354,0.0,0.0,0.0,0.0,0.0,0.0,0.0,0.0,0.0,0.0,0.0,0.0,0.0,0.0,
1.2942,3.830365654286995,3.7963026178163837,3.93044065949861,0.0,0.0,0.0,3.852369643867329,0.0,0.0,0.0,0.0,0.0,0.0,0.0,0.0,0.0,0.0,0.0,0.0,0.0,0.0,
1.3102,3.8326340442718005,3.7984319828067443,3.9327378372324606,0.0,0.0,0.0,3.854601288103668,0.0,0.0,0.0,0.0,0.0,0.0,0.0,0.0,0.0,0.0,0.0,0.0,0.0,0.0,
1.3262,3.8349383793274403,3.8005951781182645,3.9350704817625997,0.0,0.0,0.0,3.8568680130694344,0.0,0.0,0.0,0.0,0.0,0.0,0.0,0.0,0.0,0.0,0.0,0.0,0.0,0.0,
1.3422,3.837279023687139,3.8027925525485378,3.9374389092848565,0.0,0.0,0.0,3.859170161840178,0.0,0.0,0.0,0.0,0.0,0.0,0.0,0.0,0.0,0.0,0.0,0.0,0.0,0.0,
1.3582,3.839656351172605,3.805024464273733,3.9398434435302585,0.0,0.0,0.0,3.861508086325532,0.0,0.0,0.0,0.0,0.0,0.0,0.0,0.0,0.0,0.0,0.0,0.0,0.0,0.0,
1.3741,3.842055539606859,3.8072770043666853,3.94226904602963,0.0,0.0,0.0,3.8638671966677247,0.0,0.0,0.0,0.0,0.0,0.0,0.0,0.0,0.0,0.0,0.0,0.0,0.0,0.0,
1.3901,3.8445071592753246,3.8095788824985304,3.944746565112807,0.0,0.0,0.0,3.866277535628887,0.0,0.0,0.0,0.0,0.0,0.0,0.0,0.0,0.0,0.0,0.0,0.0,0.0,0.0,
1.4061,3.8469966415181074,3.811916429280349,3.9472612071242104,0.0,0.0,0.0,3.8687247593075558,0.0,0.0,0.0,0.0,0.0,0.0,0.0,0.0,0.0,0.0,0.0,0.0,0.0,0.0,
1.4221,3.8495244015237042,3.814290043416614,3.949813327919844,0.0,0.0,0.0,3.871209257620054,0.0,0.0,0.0,0.0,0.0,0.0,0.0,0.0,0.0,0.0,0.0,0.0,0.0,0.0,
1.438,3.8520747041852013,3.8166849573882926,3.952386986386177,0.0,0.0,0.0,3.8737155493198903,0.0,0.0,0.0,0.0,0.0,0.0,0.0,0.0,0.0,0.0,0.0,0.0,0.0,0.0,
1.454,3.8546800644182184,3.819131714720284,3.955014926893818,0.0,0.0,0.0,3.8762755686774404,0.0,0.0,0.0,0.0,0.0,0.0,0.0,0.0,0.0,0.0,0.0,0.0,0.0,0.0,
1.47,3.857325013803968,3.8216158001903464,3.9576814638472,0.0,0.0,0.0,3.878874092613838,0.0,0.0,0.0,0.0,0.0,0.0,0.0,0.0,0.0,0.0,0.0,0.0,0.0,0.0,
1.486,3.860010014518236,3.8241376586494478,3.9603869888733327,0.0,0.0,0.0,3.881511554013672,0.0,0.0,0.0,0.0,0.0,0.0,0.0,0.0,0.0,0.0,0.0,0.0,0.0,0.0,
1.502,3.862735541508278,3.826697747508698,3.963131903196709,0.0,0.0,0.0,3.884188397404562,0.0,0.0,0.0,0.0,0.0,0.0,0.0,0.0,0.0,0.0,0.0,0.0,0.0,0.0,
1.5179,3.8654846636533096,3.8292801735694724,3.965899088986971,0.0,0.0,0.0,3.8868879754032513,0.0,0.0,0.0,0.0,0.0,0.0,0.0,0.0,0.0,0.0,0.0,0.0,0.0,0.0,
1.5339,3.868292460289405,3.8319179014948475,3.9687237726527007,0.0,0.0,0.0,3.8896447114789843,0.0,0.0,0.0,0.0,0.0,0.0,0.0,0.0,0.0,0.0,0.0,0.0,0.0,0.0,
1.5499,3.871142285929023,3.8345953087784923,3.9715891069765425,0.0,0.0,0.0,3.892442233894686,0.0,0.0,0.0,0.0,0.0,0.0,0.0,0.0,0.0,0.0,0.0,0.0,0.0,0.0,
1.5659,3.8740346711513625,3.8373129076110457,3.9744955343981716,0.0,0.0,0.0,3.8952810377201934,0.0,0.0,0.0,0.0,0.0,0.0,0.0,0.0,0.0,0.0,0.0,0.0,0.0,0.0,
1.5818,3.87695167991124,3.8400538581238868,3.977424953647941,0.0,0.0,0.0,3.8981434972276894,0.0,0.0,0.0,0.0,0.0,0.0,0.0,0.0,0.0,0.0,0.0,0.0,0.0,0.0,
1.5978,3.8799305627228327,3.842853177536644,3.9804146753000786,0.0,0.0,0.0,3.9010661385198517,0.0,0.0,0.0,0.0,0.0,0.0,0.0,0.0,0.0,0.0,0.0,0.0,0.0,0.0,
1.6138,3.8829536866991785,3.845694313725472,3.9834468823539693,0.0,0.0,0.0,3.904031627592873,0.0,0.0,0.0,0.0,0.0,0.0,0.0,0.0,0.0,0.0,0.0,0.0,0.0,0.0,
1.6298,3.8860216466241133,3.8485778422059833,3.986522063693438,0.0,0.0,0.0,3.907040517507845,0.0,0.0,0.0,0.0,0.0,0.0,0.0,0.0,0.0,0.0,0.0,0.0,0.0,0.0,
1.6458,3.889135054913783,3.8515043558980775,3.989640720759328,0.0,0.0,0.0,3.910093377190396,0.0,0.0,0.0,0.0,0.0,0.0,0.0,0.0,0.0,0.0,0.0,0.0,0.0,0.0,
1.6617,3.8922746510821256,3.8544557659477143,3.9927834637173345,0.0,0.0,0.0,3.913171293582391,0.0,0.0,0.0,0.0,0.0,0.0,0.0,0.0,0.0,0.0,0.0,0.0,0.0,0.0,
1.6777,3.8954805732513296,3.857469823494045,3.9959903489252317,0.0,0.0,0.0,3.916313581890202,0.0,0.0,0.0,0.0,0.0,0.0,0.0,0.0,0.0,0.0,0.0,0.0,0.0,0.0,
1.6937,3.898733889666294,3.86052875235346,3.9992422902366256,0.0,0.0,0.0,3.9195016440854595,0.0,0.0,0.0,0.0,0.0,0.0,0.0,0.0,0.0,0.0,0.0,0.0,0.0,0.0,
1.7097,3.902035290424267,3.863633222161746,4.002539843466542,0.0,0.0,0.0,3.9227361186841847,0.0,0.0,0.0,0.0,0.0,0.0,0.0,0.0,0.0,0.0,0.0,0.0,0.0,0.0,
1.7257,3.90538548709737,3.866783923768358,4.005883579201786,0.0,0.0,0.0,3.926017663355838,0.0,0.0,0.0,0.0,0.0,0.0,0.0,0.0,0.0,0.0,0.0,0.0,0.0,0.0,
1.7416,3.9087638099808375,3.8699614375469764,4.009252746186672,0.0,0.0,0.0,3.929325997904828,0.0,0.0,0.0,0.0,0.0,0.0,0.0,0.0,0.0,0.0,0.0,0.0,0.0,0.0,
1.7576,3.9122135069716917,3.873206464326572,4.012690322376692,0.0,0.0,0.0,3.932703431224985,0.0,0.0,0.0,0.0,0.0,0.0,0.0,0.0,0.0,0.0,0.0,0.0,0.0,0.0,
1.7736,3.915714267776667,3.876499927087676,4.016175882745063,0.0,0.0,0.0,3.936130025869802,0.0,0.0,0.0,0.0,0.0,0.0,0.0,0.0,0.0,0.0,0.0,0.0,0.0,0.0,
1.7896,3.9192668992784925,3.879842610819805,4.0197100621817885,0.0,0.0,0.0,3.939606524093362,0.0,0.0,0.0,0.0,0.0,0.0,0.0,0.0,0.0,0.0,0.0,0.0,0.0,0.0,
1.8055,3.9228495361242,3.8832139651571884,4.023270962185854,0.0,0.0,0.0,3.9431114878224136,0.0,0.0,0.0,0.0,0.0,0.0,0.0,0.0,0.0,0.0,0.0,0.0,0.0,0.0,
1.8215,3.9265080995389727,3.886657231210826,4.026904041066247,0.0,0.0,0.0,3.946689790605349,0.0,0.0,0.0,0.0,0.0,0.0,0.0,0.0,0.0,0.0,0.0,0.0,0.0,0.0,
1.8375,3.930221112812886,3.8901522297411097,4.03058774730512,0.0,0.0,0.0,3.9503203632863717,0.0,0.0,0.0,0.0,0.0,0.0,0.0,0.0,0.0,0.0,0.0,0.0,0.0,0.0,
1.8535,3.933989496356224,3.8936998577598816,4.034322789922301,0.0,0.0,0.0,3.954004048012802,0.0,0.0,0.0,0.0,0.0,0.0,0.0,0.0,0.0,0.0,0.0,0.0,0.0,0.0,
1.8695,3.937814202412637,3.897301043653457,4.038109898281613,0.0,0.0,0.0,3.957741714782569,0.0,0.0,0.0,0.0,0.0,0.0,0.0,0.0,0.0,0.0,0.0,0.0,0.0,0.0,
1.8854,3.941671773957205,3.900933729181718,4.041925657751051,0.0,0.0,0.0,3.9615103869633246,0.0,0.0,0.0,0.0,0.0,0.0,0.0,0.0,0.0,0.0,0.0,0.0,0.0,0.0,
1.9014,3.945611749123053,3.9046445989410383,4.045818833683338,0.0,0.0,0.0,3.96535839391581,0.0,0.0,0.0,0.0,0.0,0.0,0.0,0.0,0.0,0.0,0.0,0.0,0.0,0.0,
1.9174,3.9496111037595076,3.9084120088955427,4.049766388593788,0.0,0.0,0.0,3.9692631670829464,0.0,0.0,0.0,0.0,0.0,0.0,0.0,0.0,0.0,0.0,0.0,0.0,0.0,0.0,
1.9334,3.9536709336982874,3.91223702867435,4.05376914142213,0.0,0.0,0.0,3.973225701264923,0.0,0.0,0.0,0.0,0.0,0.0,0.0,0.0,0.0,0.0,0.0,0.0,0.0,0.0,
1.9493,3.9577664226699767,3.9160963097257957,4.057802392579403,0.0,0.0,0.0,3.9772217083250587,0.0,0.0,0.0,0.0,0.0,0.0,0.0,0.0,0.0,0.0,0.0,0.0,0.0,0.0,
1.9653,3.9619502592788844,3.920039541817252,4.0619177396636825,0.0,0.0,0.0,3.981302513586606,0.0,0.0,0.0,0.0,0.0,0.0,0.0,0.0,0.0,0.0,0.0,0.0,0.0,0.0,
1.9813,3.9661981035779954,3.9240438327497213,4.066090888532157,0.0,0.0,0.0,3.9854442749532915,0.0,0.0,0.0,0.0,0.0,0.0,0.0,0.0,0.0,0.0,0.0,0.0,0.0,0.0,
1.9973,3.9705112272645033,3.9281104243674596,4.070322763443713,0.0,0.0,0.0,3.9896481383585587,0.0,0.0,0.0,0.0,0.0,0.0,0.0,0.0,0.0,0.0,0.0,0.0,0.0,0.0,
2.0133,3.974890952281749,3.932240607532577,4.0746143179495276,0.0,0.0,0.0,3.993915292587951,0.0,0.0,0.0,0.0,0.0,0.0,0.0,0.0,0.0,0.0,0.0,0.0,0.0,0.0,
2.0292,3.979310641535719,3.9364093008415333,4.0789391443770775,0.0,0.0,0.0,3.9982196955847766,0.0,0.0,0.0,0.0,0.0,0.0,0.0,0.0,0.0,0.0,0.0,0.0,0.0,0.0,
2.0452,3.9838273122554573,3.9406703304554487,4.083352653843898,0.0,0.0,0.0,4.002616765518268,0.0,0.0,0.0,0.0,0.0,0.0,0.0,0.0,0.0,0.0,0.0,0.0,0.0,0.0,
2.0612,3.9884148719878714,3.9449991370950577,4.087828886253892,0.0,0.0,0.0,4.007080965112274,0.0,0.0,0.0,0.0,0.0,0.0,0.0,0.0,0.0,0.0,0.0,0.0,0.0,0.0,
2.0772,3.99307487437053,3.949397236439903,4.092368926169133,0.0,0.0,0.0,4.011613678993188,0.0,0.0,0.0,0.0,0.0,0.0,0.0,0.0,0.0,0.0,0.0,0.0,0.0,0.0,
