energies(eV),real_xx,real_yy,real_zz,real_xy,real_yz,real_xz,real_ave,imag_xx,imag_yy,imag_zz,imag_xy,imag_yz,imag_xz,imag_ave,absorption_xx,absorption_yy,absorption_zz,absorption_xy,absorption_yz,absorption_xz,absorption_ave,band_gap
0.0,4.694125338325863,4.830864381486721,5.065278063250063,0.0,0.0,0.0,4.8634225943542155,0.0,0.0,0.0,0.0,0.0,0.0,0.0,0.0,0.0,0.0,0.0,0.0,0.0,0.0,1.7444999999999995
0.0132,4.694146330341452,4.830887690324671,5.065305306582824,0.0,0.0,0.0,4.863446442416316,0.0,0.0,0.0,0.0,0.0,0.0,0.0,0.0,0.0,0.0,0.0,0.0,0.0,0.0,
0.0265,4.694209945891755,4.830958327260003,5.065387867606661,0.0,0.0,0.0,4.8635187135861395,0.0,0.0,0.0,0.0,0.0,0.0,0.0,0.0,0.0,0.0,0.0,0.0,0.0,0.0,
0.0397,4.694315234826598,4.831075238277667,5.0655245164213865,0.0,0.0,0.0,4.8636383298418835,0.0,0.0,0.0,0.0,0.0,0.0,0.0,0.0,0.0,0.0,0.0,0.0,0.0,0.0,
0.0529,4.694462527145369,4.831238791465352,5.0657156866332445,0.0,0.0,0.0,4.863805668414655,0.0,0.0,0.0,0.0,0.0,0.0,0.0,0.0,0.0,0.0,0.0,0.0,0.0,0.0,
0.0661,4.694651837863567,4.831449005829494,5.065961405197711,0.0,0.0,0.0,4.864020749630257,0.0,0.0,0.0,0.0,0.0,0.0,0.0,0.0,0.0,0.0,0.0,0.0,0.0,0.0,
0.0794,4.694885099423223,4.831708030272448,5.066264190216162,0.0,0.0,0.0,4.864285773303944,0.0,0.0,0.0,0.0,0.0,0.0,0.0,0.0,0.0,0.0,0.0,0.0,0.0,0.0,
0.0926,4.695158827898102,4.832011999779702,5.066619531223205,0.0,0.0,0.0,4.8645967863003365,0.0,0.0,0.0,0.0,0.0,0.0,0.0,0.0,0.0,0.0,0.0,0.0,0.0,0.0,
0.1058,4.69547464581027,4.8323627204048005,5.067029548201307,0.0,0.0,0.0,4.864955638138793,0.0,0.0,0.0,0.0,0.0,0.0,0.0,0.0,0.0,0.0,0.0,0.0,0.0,0.0,
0.1191,4.695835457924725,4.8327634231506895,5.067498029037533,0.0,0.0,0.0,4.865365636704316,0.0,0.0,0.0,0.0,0.0,0.0,0.0,0.0,0.0,0.0,0.0,0.0,0.0,0.0,
0.1323,4.6962358753169635,4.833208129055324,5.068017995153031,0.0,0.0,0.0,4.86582066650844,0.0,0.0,0.0,0.0,0.0,0.0,0.0,0.0,0.0,0.0,0.0,0.0,0.0,0.0,
0.1455,4.696678492206816,4.833699725498225,5.068592835263652,0.0,0.0,0.0,4.866323684322897,0.0,0.0,0.0,0.0,0.0,0.0,0.0,0.0,0.0,0.0,0.0,0.0,0.0,0.0,
0.1587,4.697163353886759,4.834238269880055,5.069222630968106,0.0,0.0,0.0,4.866874751578307,0.0,0.0,0.0,0.0,0.0,0.0,0.0,0.0,0.0,0.0,0.0,0.0,0.0,0.0,
0.172,4.69769466517637,4.834828440767257,5.069912870316815,0.0,0.0,0.0,4.867478658753481,0.0,0.0,0.0,0.0,0.0,0.0,0.0,0.0,0.0,0.0,0.0,0.0,0.0,0.0,
0.1852,4.698264490829583,4.835461432388761,5.0706532719380375,0.0,0.0,0.0,4.868126398385461,0.0,0.0,0.0,0.0,0.0,0.0,0.0,0.0,0.0,0.0,0.0,0.0,0.0,0.0,
0.1984,4.6988767238674445,4.836141578134141,5.071448922598728,0.0,0.0,0.0,4.868822408200105,0.0,0.0,0.0,0.0,0.0,0.0,0.0,0.0,0.0,0.0,0.0,0.0,0.0,0.0,
0.2116,4.699531427181498,4.836868957807673,5.072299936020806,0.0,0.0,0.0,4.869566773669992,0.0,0.0,0.0,0.0,0.0,0.0,0.0,0.0,0.0,0.0,0.0,0.0,0.0,0.0,
0.2249,4.700234112760819,4.837649706640457,5.073213513588841,0.0,0.0,0.0,4.870365777663372,0.0,0.0,0.0,0.0,0.0,0.0,0.0,0.0,0.0,0.0,0.0,0.0,0.0,0.0,
0.2381,4.700974286171764,4.838472175820992,5.074176048268731,0.0,0.0,0.0,4.871207503420496,0.0,0.0,0.0,0.0,0.0,0.0,0.0,0.0,0.0,0.0,0.0,0.0,0.0,0.0,
0.2513,4.7017571458658765,4.839342153246472,5.075194337225544,0.0,0.0,0.0,4.8720978787792975,0.0,0.0,0.0,0.0,0.0,0.0,0.0,0.0,0.0,0.0,0.0,0.0,0.0,0.0,
0.2646,4.7025891908625645,4.840266875068873,5.076276878884975,0.0,0.0,0.0,4.873044314938805,0.0,0.0,0.0,0.0,0.0,0.0,0.0,0.0,0.0,0.0,0.0,0.0,0.0,0.0,
0.2778,4.703457995137563,4.841232544970904,5.077407550791962,0.0,0.0,0.0,4.874032696966809,0.0,0.0,0.0,0.0,0.0,0.0,0.0,0.0,0.0,0.0,0.0,0.0,0.0,0.0,
0.291,4.704369742544029,4.842246049748669,5.078594444397047,0.0,0.0,0.0,4.875070078896582,0.0,0.0,0.0,0.0,0.0,0.0,0.0,0.0,0.0,0.0,0.0,0.0,0.0,0.0,
0.3042,4.705324527662854,4.843307509802518,5.079837732339471,0.0,0.0,0.0,4.876156589934947,0.0,0.0,0.0,0.0,0.0,0.0,0.0,0.0,0.0,0.0,0.0,0.0,0.0,0.0,
0.3175,4.7063301746225585,4.844425640964253,5.0811476598769225,0.0,0.0,0.0,4.877301158487911,0.0,0.0,0.0,0.0,0.0,0.0,0.0,0.0,0.0,0.0,0.0,0.0,0.0,0.0,
0.3307,4.707371665471433,4.845583762488241,5.082504720355477,0.0,0.0,0.0,4.8784867161050505,0.0,0.0,0.0,0.0,0.0,0.0,0.0,0.0,0.0,0.0,0.0,0.0,0.0,0.0,
0.3439,4.708456506562122,4.846790237607405,5.083918747630945,0.0,0.0,0.0,4.8797218306001575,0.0,0.0,0.0,0.0,0.0,0.0,0.0,0.0,0.0,0.0,0.0,0.0,0.0,0.0,
0.3572,4.709593525206332,4.848054903842093,5.0854013143584424,0.0,0.0,0.0,4.881016581135622,0.0,0.0,0.0,0.0,0.0,0.0,0.0,0.0,0.0,0.0,0.0,0.0,0.0,0.0,
0.3704,4.710765742295489,4.849358895505887,5.086930345358478,0.0,0.0,0.0,4.882351661053285,0.0,0.0,0.0,0.0,0.0,0.0,0.0,0.0,0.0,0.0,0.0,0.0,0.0,0.0,
0.3836,4.7119816650705,4.850711694665055,5.088516997980106,0.0,0.0,0.0,4.88373678590522,0.0,0.0,0.0,0.0,0.0,0.0,0.0,0.0,0.0,0.0,0.0,0.0,0.0,0.0,
0.3968,4.7132414214113005,4.852113464853552,5.090161508800213,0.0,0.0,0.0,4.885172131688355,0.0,0.0,0.0,0.0,0.0,0.0,0.0,0.0,0.0,0.0,0.0,0.0,0.0,0.0,
0.4101,4.714555188948058,4.85357555576716,5.091877245050243,0.0,0.0,0.0,4.88666932992182,0.0,0.0,0.0,0.0,0.0,0.0,0.0,0.0,0.0,0.0,0.0,0.0,0.0,0.0,
0.4233,4.71590335042243,4.855076158654349,5.093638663865929,0.0,0.0,0.0,4.888206057647569,0.0,0.0,0.0,0.0,0.0,0.0,0.0,0.0,0.0,0.0,0.0,0.0,0.0,0.0,
0.4365,4.717295759876052,4.856626263374378,5.095458711167842,0.0,0.0,0.0,4.8897935781394235,0.0,0.0,0.0,0.0,0.0,0.0,0.0,0.0,0.0,0.0,0.0,0.0,0.0,0.0,
0.4497,4.718732565174151,4.858226059636104,5.097337663151274,0.0,0.0,0.0,4.891432095987176,0.0,0.0,0.0,0.0,0.0,0.0,0.0,0.0,0.0,0.0,0.0,0.0,0.0,0.0,
0.463,4.720225312101992,4.859888432411399,5.099290715884118,0.0,0.0,0.0,4.893134820132503,0.0,0.0,0.0,0.0,0.0,0.0,0.0,0.0,0.0,0.0,0.0,0.0,0.0,0.0,
0.4762,4.72175171251003,4.861588588201787,5.101288799072993,0.0,0.0,0.0,4.894876366594937,0.0,0.0,0.0,0.0,0.0,0.0,0.0,0.0,0.0,0.0,0.0,0.0,0.0,0.0,
0.4894,4.723322984536702,4.863339047077589,5.103346680517537,0.0,0.0,0.0,4.89666957071061,0.0,0.0,0.0,0.0,0.0,0.0,0.0,0.0,0.0,0.0,0.0,0.0,0.0,0.0,
0.5027,4.724951714026577,4.865153863478966,5.105480954609117,0.0,0.0,0.0,4.89852884403822,0.0,0.0,0.0,0.0,0.0,0.0,0.0,0.0,0.0,0.0,0.0,0.0,0.0,0.0,
0.5159,4.726613583994235,4.867005972778881,5.107659858913251,0.0,0.0,0.0,4.900426471895456,0.0,0.0,0.0,0.0,0.0,0.0,0.0,0.0,0.0,0.0,0.0,0.0,0.0,0.0,
0.5291,4.728320849225069,4.86890906025018,5.109899553679428,0.0,0.0,0.0,4.902376487718226,0.0,0.0,0.0,0.0,0.0,0.0,0.0,0.0,0.0,0.0,0.0,0.0,0.0,0.0,
0.5423,4.730073694731656,4.870863364920151,5.11220039168673,0.0,0.0,0.0,4.904379150446179,0.0,0.0,0.0,0.0,0.0,0.0,0.0,0.0,0.0,0.0,0.0,0.0,0.0,0.0,
0.5556,4.731886112150218,4.872884525547867,5.1145808697948905,0.0,0.0,0.0,4.906450502497658,0.0,0.0,0.0,0.0,0.0,0.0,0.0,0.0,0.0,0.0,0.0,0.0,0.0,0.0,
0.5688,4.733731044544727,4.874942404439509,5.117005570440426,0.0,0.0,0.0,4.908559673141554,0.0,0.0,0.0,0.0,0.0,0.0,0.0,0.0,0.0,0.0,0.0,0.0,0.0,0.0,
0.582,4.7356221474393045,4.877052264858221,5.119492547605688,0.0,0.0,0.0,4.910722319967738,0.0,0.0,0.0,0.0,0.0,0.0,0.0,0.0,0.0,0.0,0.0,0.0,0.0,0.0,
0.5953,4.737574484001087,4.879230956222333,5.122061758866895,0.0,0.0,0.0,4.912955733030105,0.0,0.0,0.0,0.0,0.0,0.0,0.0,0.0,0.0,0.0,0.0,0.0,0.0,0.0,
0.6085,4.7395589107561555,4.881445995672463,5.124674986800931,0.0,0.0,0.0,4.915226631076517,0.0,0.0,0.0,0.0,0.0,0.0,0.0,0.0,0.0,0.0,0.0,0.0,0.0,0.0,
0.6217,4.741590150574341,4.8837138518788565,5.127351738838851,0.0,0.0,0.0,4.917551913764016,0.0,0.0,0.0,0.0,0.0,0.0,0.0,0.0,0.0,0.0,0.0,0.0,0.0,0.0,
0.6349,4.743668429086111,4.886034818904838,5.130092456532613,0.0,0.0,0.0,4.919931901507854,0.0,0.0,0.0,0.0,0.0,0.0,0.0,0.0,0.0,0.0,0.0,0.0,0.0,0.0,
0.6482,4.745810261709048,4.88842739160051,5.132919093440866,0.0,0.0,0.0,4.922385582250141,0.0,0.0,0.0,0.0,0.0,0.0,0.0,0.0,0.0,0.0,0.0,0.0,0.0,0.0,
0.6614,4.7479836799435375,4.890855904475666,5.135789616471009,0.0,0.0,0.0,4.924876400296738,0.0,0.0,0.0,0.0,0.0,0.0,0.0,0.0,0.0,0.0,0.0,0.0,0.0,0.0,
0.6746,4.750204852787336,4.8933384639328,5.138725518356412,0.0,0.0,0.0,4.927422945025516,0.0,0.0,0.0,0.0,0.0,0.0,0.0,0.0,0.0,0.0,0.0,0.0,0.0,0.0,
0.6878,4.752474031010374,4.895875398732697,5.141727298550332,0.0,0.0,0.0,4.930025576097801,0.0,0.0,0.0,0.0,0.0,0.0,0.0,0.0,0.0,0.0,0.0,0.0,0.0,0.0,
0.7011,4.754809213146668,4.898486890120363,5.144818970409145,0.0,0.0,0.0,4.932705024558725,0.0,0.0,0.0,0.0,0.0,0.0,0.0,0.0,0.0,0.0,0.0,0.0,0.0,0.0,
0.7143,4.757175549299156,4.901134016906261,5.147954576777092,0.0,0.0,0.0,4.93542138099417,0.0,0.0,0.0,0.0,0.0,0.0,0.0,0.0,0.0,0.0,0.0,0.0,0.0,0.0,
0.7275,4.759590684808323,4.903836563348375,5.1511576583102965,0.0,0.0,0.0,4.938194968822331,0.0,0.0,0.0,0.0,0.0,0.0,0.0,0.0,0.0,0.0,0.0,0.0,0.0,0.0,
0.7408,4.762073753569155,4.90661600611603,5.15445382131767,0.0,0.0,0.0,4.941047860334285,0.0,0.0,0.0,0.0,0.0,0.0,0.0,0.0,0.0,0.0,0.0,0.0,0.0,0.0,
0.754,4.764587702602738,4.909430927725769,5.157794084398181,0.0,0.0,0.0,4.943937571575563,0.0,0.0,0.0,0.0,0.0,0.0,0.0,0.0,0.0,0.0,0.0,0.0,0.0,0.0,
0.7672,4.767151307079418,4.912302400871608,5.161203571425492,0.0,0.0,0.0,4.946885759792173,0.0,0.0,0.0,0.0,0.0,0.0,0.0,0.0,0.0,0.0,0.0,0.0,0.0,0.0,
0.7804,4.769764865977238,4.915230822304913,5.164682899898079,0.0,0.0,0.0,4.949892862726743,0.0,0.0,0.0,0.0,0.0,0.0,0.0,0.0,0.0,0.0,0.0,0.0,0.0,0.0,
0.7937,4.772449058721477,4.918239438838892,5.168259869356397,0.0,0.0,0.0,4.952982788972256,0.0,0.0,0.0,0.0,0.0,0.0,0.0,0.0,0.0,0.0,0.0,0.0,0.0,0.0,
0.8069,4.775163837391275,4.921283428957444,5.171881350958978,0.0,0.0,0.0,4.956109539102566,0.0,0.0,0.0,0.0,0.0,0.0,0.0,0.0,0.0,0.0,0.0,0.0,0.0,0.0,
0.8201,4.777929514691326,4.924385625374266,5.175574647692886,0.0,0.0,0.0,4.9592965959194935,0.0,0.0,0.0,0.0,0.0,0.0,0.0,0.0,0.0,0.0,0.0,0.0,0.0,0.0,
0.8334,4.780767956579173,4.927570639531146,5.1793692640941495,0.0,0.0,0.0,4.962569286734823,0.0,0.0,0.0,0.0,0.0,0.0,0.0,0.0,0.0,0.0,0.0,0.0,0.0,0.0,
0.8466,4.783636819241579,4.930791031705322,5.183208861547569,0.0,0.0,0.0,4.965878904164824,0.0,0.0,0.0,0.0,0.0,0.0,0.0,0.0,0.0,0.0,0.0,0.0,0.0,0.0,
0.8598,4.786557595423762,4.934070991002734,5.187122436550328,0.0,0.0,0.0,4.969250340992275,0.0,0.0,0.0,0.0,0.0,0.0,0.0,0.0,0.0,0.0,0.0,0.0,0.0,0.0,
0.873,4.789530638972863,4.937410994023679,5.191110753308395,0.0,0.0,0.0,4.972684128768313,0.0,0.0,0.0,0.0,0.0,0.0,0.0,0.0,0.0,0.0,0.0,0.0,0.0,0.0,
0.8863,4.7925794357822085,4.940837523879225,5.1952056769842665,0.0,0.0,0.0,4.976207545548566,0.0,0.0,0.0,0.0,0.0,0.0,0.0,0.0,0.0,0.0,0.0,0.0,0.0,0.0,
0.8995,4.7956585126353914,4.944299559113098,5.199346447925596,0.0,0.0,0.0,4.979768173224695,0.0,0.0,0.0,0.0,0.0,0.0,0.0,0.0,0.0,0.0,0.0,0.0,0.0,0.0,
0.9127,4.7987909728752784,4.947823148631829,5.203564406734368,0.0,0.0,0.0,4.9833928427471585,0.0,0.0,0.0,0.0,0.0,0.0,0.0,0.0,0.0,0.0,0.0,0.0,0.0,0.0,
0.9259,4.80197720542583,4.951408821524545,5.20786041894147,0.0,0.0,0.0,4.987082148630615,0.0,0.0,0.0,0.0,0.0,0.0,0.0,0.0,0.0,0.0,0.0,0.0,0.0,0.0,
0.9392,4.805242364744398,4.955084999972327,5.212268825090815,0.0,0.0,0.0,4.990865396602514,0.0,0.0,0.0,0.0,0.0,0.0,0.0,0.0,0.0,0.0,0.0,0.0,0.0,0.0,
0.9524,4.80853776093132,4.9587969642279734,5.216724261420231,0.0,0.0,0.0,4.994686328859842,0.0,0.0,0.0,0.0,0.0,0.0,0.0,0.0,0.0,0.0,0.0,0.0,0.0,0.0,
0.9656,4.811888155728994,4.962572689330022,5.221260525993859,0.0,0.0,0.0,4.998573790350958,0.0,0.0,0.0,0.0,0.0,0.0,0.0,0.0,0.0,0.0,0.0,0.0,0.0,0.0,
0.9789,4.815319990749122,4.966442101709113,5.225913902667804,0.0,0.0,0.0,5.002558665042013,0.0,0.0,0.0,0.0,0.0,0.0,0.0,0.0,0.0,0.0,0.0,0.0,0.0,0.0,
0.9921,4.818782099699883,4.970347622215318,5.230615438590885,0.0,0.0,0.0,5.006581720168695,0.0,0.0,0.0,0.0,0.0,0.0,0.0,0.0,0.0,0.0,0.0,0.0,0.0,0.0,
1.0053,4.822300523279654,4.97431871969617,5.235400860801067,0.0,0.0,0.0,5.01067336792563,0.0,0.0,0.0,0.0,0.0,0.0,0.0,0.0,0.0,0.0,0.0,0.0,0.0,0.0,
1.0185,4.825875720085013,4.978356030987461,5.240271255187579,0.0,0.0,0.0,5.014834335420018,0.0,0.0,0.0,0.0,0.0,0.0,0.0,0.0,0.0,0.0,0.0,0.0,0.0,0.0,
1.0318,4.8295358978279985,4.98249155945904,5.245265625390763,0.0,0.0,0.0,5.019097694225934,0.0,0.0,0.0,0.0,0.0,0.0,0.0,0.0,0.0,0.0,0.0,0.0,0.0,0.0,
1.045,4.83322650009208,4.986663793156964,5.250310037294604,0.0,0.0,0.0,5.023400110181217,0.0,0.0,0.0,0.0,0.0,0.0,0.0,0.0,0.0,0.0,0.0,0.0,0.0,0.0,
1.0582,4.836975321956203,4.990904262954395,5.255442917542943,0.0,0.0,0.0,5.027774167484513,0.0,0.0,0.0,0.0,0.0,0.0,0.0,0.0,0.0,0.0,0.0,0.0,0.0,0.0,
1.0715,4.840811938125359,4.995246590936684,5.2607054219773906,0.0,0.0,0.0,5.032254650346478,0.0,0.0,0.0,0.0,0.0,0.0,0.0,0.0,0.0,0.0,0.0,0.0,0.0,0.0,
1.0847,4.844679174834599,4.999626213513254,5.266019713172073,0.0,0.0,0.0,5.036775033839976,0.0,0.0,0.0,0.0,0.0,0.0,0.0,0.0,0.0,0.0,0.0,0.0,0.0,0.0,
1.0979,4.848606184740783,5.004076268322456,5.2714263541855715,0.0,0.0,0.0,5.04136960241627,0.0,0.0,0.0,0.0,0.0,0.0,0.0,0.0,0.0,0.0,0.0,0.0,0.0,0.0,
1.1111,4.852593509735986,5.008597527369666,5.276926731010218,0.0,0.0,0.0,5.046039256038623,0.0,0.0,0.0,0.0,0.0,0.0,0.0,0.0,0.0,0.0,0.0,0.0,0.0,0.0,
1.1244,4.856672606878,5.013225859102673,5.282565038929801,0.0,0.0,0.0,5.05082116830349,0.0,0.0,0.0,0.0,0.0,0.0,0.0,0.0,0.0,0.0,0.0,0.0,0.0,0.0,
1.1376,4.860782708821285,5.017892487026934,5.288257993244692,0.0,0.0,0.0,5.055644396364303,0.0,0.0,0.0,0.0,0.0,0.0,0.0,0.0,0.0,0.0,0.0,0.0,0.0,0.0,
1.1508,4.864954837179011,5.022632778235281,5.294049175008239,0.0,0.0,0.0,5.06054559680751,0.0,0.0,0.0,0.0,0.0,0.0,0.0,0.0,0.0,0.0,0.0,0.0,0.0,0.0,
1.164,4.869189589475713,5.027447599022756,5.299940195050044,0.0,0.0,0.0,5.065525794516172,0.0,0.0,0.0,0.0,0.0,0.0,0.0,0.0,0.0,0.0,0.0,0.0,0.0,0.0,
1.1773,4.87352038168983,5.032375179134389,5.305978518164163,0.0,0.0,0.0,5.070624692996128,0.0,0.0,0.0,0.0,0.0,0.0,0.0,0.0,0.0,0.0,0.0,0.0,0.0,0.0,
1.1905,4.877882721160063,5.037342344891641,5.312075096653391,0.0,0.0,0.0,5.075766720901698,0.0,0.0,0.0,0.0,0.0,0.0,0.0,0.0,0.0,0.0,0.0,0.0,0.0,0.0,
1.2037,4.882309574040019,5.042386806757979,5.318276760111633,0.0,0.0,0.0,5.080991046969877,0.0,0.0,0.0,0.0,0.0,0.0,0.0,0.0,0.0,0.0,0.0,0.0,0.0,0.0,
1.217,4.886835881996138,5.047548652013323,5.324633606314634,0.0,0.0,0.0,5.086339380108032,0.0,0.0,0.0,0.0,0.0,0.0,0.0,0.0,0.0,0.0,0.0,0.0,0.0,0.0,
1.2302,4.891394262446823,5.052751273719657,5.33105202936788,0.0,0.0,0.0,5.091732521844787,0.0,0.0,0.0,0.0,0.0,0.0,0.0,0.0,0.0,0.0,0.0,0.0,0.0,0.0,
1.2434,4.896019195809416,5.05803422590641,5.337581477515618,0.0,0.0,0.0,5.097211633077149,0.0,0.0,0.0,0.0,0.0,0.0,0.0,0.0,0.0,0.0,0.0,0.0,0.0,0.0,
1.2566,4.900711396279581,5.0633985834658155,5.3442241030713875,0.0,0.0,0.0,5.102778027605595,0.0,0.0,0.0,0.0,0.0,0.0,0.0,0.0,0.0,0.0,0.0,0.0,0.0,0.0,
1.2699,4.905507920766164,5.0688870389887155,5.351033800702736,0.0,0.0,0.0,5.108476253485872,0.0,0.0,0.0,0.0,0.0,0.0,0.0,0.0,0.0,0.0,0.0,0.0,0.0,0.0,
1.2831,4.9103373991618025,5.074418214789463,5.357910540436837,0.0,0.0,0.0,5.114222051462701,0.0,0.0,0.0,0.0,0.0,0.0,0.0,0.0,0.0,0.0,0.0,0.0,0.0,0.0,
1.2963,4.915236411135282,5.080034251330632,5.364907552840413,0.0,0.0,0.0,5.120059405102109,0.0,0.0,0.0,0.0,0.0,0.0,0.0,0.0,0.0,0.0,0.0,0.0,0.0,0.0,
1.3096,4.92024366938367,5.085779907916738,5.372081843537947,0.0,0.0,0.0,5.126035140279451,0.0,0.0,0.0,0.0,0.0,0.0,0.0,0.0,0.0,0.0,0.0,0.0,0.0,0.0,
1.3228,4.92528470023691,5.091570065558728,5.37932826818616,0.0,0.0,0.0,5.132061011327266,0.0,0.0,0.0,0.0,0.0,0.0,0.0,0.0,0.0,0.0,0.0,0.0,0.0,0.0,
1.336,4.93039772669092,5.097448917611208,5.386703163981175,0.0,0.0,0.0,5.138183269427768,0.0,0.0,0.0,0.0,0.0,0.0,0.0,0.0,0.0,0.0,0.0,0.0,0.0,0.0,
1.3492,4.9355836152073085,5.1034178341889165,5.3942095472211165,0.0,0.0,0.0,5.144403665539113,0.0,0.0,0.0,0.0,0.0,0.0,0.0,0.0,0.0,0.0,0.0,0.0,0.0,0.0,
1.3625,4.9408833876041225,5.109524503051171,5.401909008451069,0.0,0.0,0.0,5.150772299702121,0.0,0.0,0.0,0.0,0.0,0.0,0.0,0.0,0.0,0.0,0.0,0.0,0.0,0.0,
1.3757,4.946218273220819,5.115678582873356,5.409689148895677,0.0,0.0,0.0,5.157195334996618,0.0,0.0,0.0,0.0,0.0,0.0,0.0,0.0,0.0,0.0,0.0,0.0,0.0,0.0,
1.3889,4.951628787308806,5.121927179025459,5.417610902345268,0.0,0.0,0.0,5.163722289559844,0.0,0.0,0.0,0.0,0.0,0.0,0.0,0.0,0.0,0.0,0.0,0.0,0.0,0.0,
1.4021,4.957115907661187,5.1282718944955645,5.425678039562472,0.0,0.0,0.0,5.170355280573075,0.0,0.0,0.0,0.0,0.0,0.0,0.0,0.0,0.0,0.0,0.0,0.0,0.0,0.0,
1.4154,4.962723099599636,5.13476358547295,5.4339573922835065,0.0,0.0,0.0,5.177148025785364,0.0,0.0,0.0,0.0,0.0,0.0,0.0,0.0,0.0,0.0,0.0,0.0,0.0,0.0,
1.4286,4.968367093920715,5.141306389494733,5.4423287482261005,0.0,0.0,0.0,5.1840007438805165,0.0,0.0,0.0,0.0,0.0,0.0,0.0,0.0,0.0,0.0,0.0,0.0,0.0,0.0,
1.4418,4.974090833054021,5.1479505697104955,5.450858333667265,0.0,0.0,0.0,5.190966578810594,0.0,0.0,0.0,0.0,0.0,0.0,0.0,0.0,0.0,0.0,0.0,0.0,0.0,0.0,
1.4551,4.979939718798924,5.15474955512814,5.459617497913426,0.0,0.0,0.0,5.198102257280163,0.0,0.0,0.0,0.0,0.0,0.0,0.0,0.0,0.0,0.0,0.0,0.0,0.0,0.0,
1.4683,4.9858269615543085,5.161603125007959,5.468479767037521,0.0,0.0,0.0,5.2053032845332625,0.0,0.0,0.0,0.0,0.0,0.0,0.0,0.0,0.0,0.0,0.0,0.0,0.0,0.0,
1.4815,4.991797429425061,5.168564115792659,5.47751597523639,0.0,0.0,0.0,5.21262584015137,0.0,0.0,0.0,0.0,0.0,0.0,0.0,0.0,0.0,0.0,0.0,0.0,0.0,0.0,
1.4947,4.997852367628544,5.175634750045695,5.486732158110268,0.0,0.0,0.0,5.220073091928168,0.0,0.0,0.0,0.0,0.0,0.0,0.0,0.0,0.0,0.0,0.0,0.0,0.0,0.0,
1.508,5.0040399220409375,5.182872221769368,5.496206803537042,0.0,0.0,0.0,5.2277063157824495,0.0,0.0,0.0,0.0,0.0,0.0,0.0,0.0,0.0,0.0,0.0,0.0,0.0,0.0,
1.5212,5.010268403541394,5.190170196777045,5.505804563473135,0.0,0.0,0.0,5.235414387930525,0.0,0.0,0.0,0.0,0.0,0.0,0.0,0.0,0.0,0.0,0.0,0.0,0.0,0.0,
1.5344,5.016585415003932,5.197585302489575,5.515603677865958,0.0,0.0,0.0,5.2432581317864875,0.0,0.0,0.0,0.0,0.0,0.0,0.0,0.0,0.0,0.0,0.0,0.0,0.0,0.0,
1.5477,5.02304131142309,5.2051778966841065,5.525689236210345,0.0,0.0,0.0,5.251302814772514,0.0,0.0,0.0,0.0,0.0,0.0,0.0,0.0,0.0,0.0,0.0,0.0,0.0,0.0,
1.5609,5.029540560542624,5.21283682661005,5.535918912460526,0.0,0.0,0.0,5.259432099871066,0.0,0.0,0.0,0.0,0.0,0.0,0.0,0.0,0.0,0.0,0.0,0.0,0.0,0.0,
1.5741,5.036132975854513,5.220621944258121,5.546377981852444,0.0,0.0,0.0,5.267710967321693,0.0,0.0,0.0,0.0,0.0,0.0,0.0,0.0,0.0,0.0,0.0,0.0,0.0,0.0,
1.5873,5.042820257723098,5.228536723895961,5.557077827945469,0.0,0.0,0.0,5.276144936521509,0.0,0.0,0.0,0.0,0.0,0.0,0.0,0.0,0.0,0.0,0.0,0.0,0.0,0.0,
1.6006,5.049655968173737,5.2366464211718595,5.568115154963242,0.0,0.0,0.0,5.284805848102946,0.0,0.0,0.0,0.0,0.0,0.0,0.0,0.0,0.0,0.0,0.0,0.0,0.0,0.0,
1.6138,5.056539228094676,5.244833217445506,5.579338400855026,0.0,0.0,0.0,5.293570282131736,0.0,0.0,0.0,0.0,0.0,0.0,0.0,0.0,0.0,0.0,0.0,0.0,0.0,0.0,
1.627,5.063523087870623,5.253162085792326,5.59084582582167,0.0,0.0,0.0,5.302510333161539,0.0,0.0,0.0,0.0,0.0,0.0,0.0,0.0,0.0,0.0,0.0,0.0,0.0,0.0,
1.6402,5.070609708252367,5.2616380141595,5.602656019661409,0.0,0.0,0.0,5.311634580691092,0.0,0.0,0.0,0.0,0.0,0.0,0.0,0.0,0.0,0.0,0.0,0.0,0.0,0.0,
1.6535,5.0778562998090155,5.270332537046123,5.614883680436309,0.0,0.0,0.0,5.321024172430483,0.0,0.0,0.0,0.0,0.0,0.0,0.0,0.0,0.0,0.0,0.0,0.0,0.0,0.0,
1.6667,5.0851564157250575,5.279121233273467,5.627370170490055,0.0,0.0,0.0,5.33054927316286,0.0,0.0,0.0,0.0,0.0,0.0,0.0,0.0,0.0,0.0,0.0,0.0,0.0,0.0,
1.6799,5.092566871976122,5.288076060446881,5.640235785773625,0.0,0.0,0.0,5.340292906065542,0.0,0.0,0.0,0.0,0.0,0.0,0.0,0.0,0.0,0.0,0.0,0.0,0.0,0.0,
1.6932,5.100148105695242,5.297275139848608,5.653618130264919,0.0,0.0,0.0,5.3503471252695896,0.0,0.0,0.0,0.0,0.0,0.0,0.0,0.0,0.0,0.0,0.0,0.0,0.0,0.0,
1.7064,5.107789456577581,5.30658981980821,5.667358585675932,0.0,0.0,0.0,5.360579287353907,0.0,0.0,0.0,0.0,0.0,0.0,0.0,0.0,0.0,0.0,0.0,0.0,0.0,0.0,
1.7196,5.115551209315962,5.316099705963538,5.68160629838639,0.0,0.0,0.0,5.37108573788863,0.0,0.0,0.0,0.0,0.0,0.0,0.0,0.0,0.0,0.0,0.0,0.0,0.0,0.0,
1.7328,5.123437544997749,5.325816902368365,5.696416385816767,0.0,0.0,0.0,5.381890277727627,0.0,0.0,0.0,0.0,0.0,0.0,0.0,0.0,0.0,0.0,0.0,0.0,0.0,0.0,
1.7461,5.131514357787837,5.335827784337641,5.7119528292143205,0.0,0.0,0.0,5.393098323779934,0.0,0.0,0.0,0.0,-0.0,-0.0,0.0,0.0,0.0,0.0,0.0,0.0,0.0,0.0,
