energies(eV),real_xx,real_yy,real_zz,real_xy,real_yz,real_xz,real_ave,imag_xx,imag_yy,imag_zz,imag_xy,imag_yz,imag_xz,imag_ave,absorption_xx,absorption_yy,absorption_zz,absorption_xy,absorption_yz,absorption_xz,absorption_ave,band_gap
0.0,3.4764794436854034,3.3814903696711656,3.6186025932625823,0.0,0.0,0.0,3.492190802206384,0.0,0.0,0.0,0.0,0.0,0.0,0.0,0.0,0.0,0.0,0.0,0.0,0.0,0.0,4.4269
0.0145,3.4764856823716546,3.381496647005089,3.618610183791907,0.0,0.0,0.0,3.49219750438955,0.0,0.0,0.0,0.0,0.0,0.0,0.0,0.0,0.0,0.0,0.0,0.0,0.0,0.0,
0.0291,3.4765045710977542,3.381515652775074,3.6186331655363984,0.0,0.0,0.0,3.492217796469742,0.0,0.0,0.0,0.0,0.0,0.0,0.0,0.0,0.0,0.0,0.0,0.0,0.0,0.0,
0.0436,3.4765358519143685,3.381547127526479,3.6186712248729163,0.0,0.0,0.0,3.492251401437921,0.0,0.0,0.0,0.0,0.0,0.0,0.0,0.0,0.0,0.0,0.0,0.0,0.0,0.0,
0.0581,3.4765796124963373,3.381591159631618,3.618724468841709,0.0,0.0,0.0,3.4922984136565547,0.0,0.0,0.0,0.0,0.0,0.0,0.0,0.0,0.0,0.0,0.0,0.0,0.0,0.0,
0.0727,3.476636285919609,3.381648185073959,3.6187934248954807,0.0,0.0,0.0,3.492359298629683,0.0,0.0,0.0,0.0,0.0,0.0,0.0,0.0,0.0,0.0,0.0,0.0,0.0,0.0,
0.0872,3.476705098237837,3.3817174253793127,3.6188771520183445,0.0,0.0,0.0,3.4924332252118315,0.0,0.0,0.0,0.0,0.0,0.0,0.0,0.0,0.0,0.0,0.0,0.0,0.0,0.0,
0.1017,3.4767863975027344,3.381799231099807,3.6189760744998245,0.0,0.0,0.0,3.4925205677007884,0.0,0.0,0.0,0.0,0.0,0.0,0.0,0.0,0.0,0.0,0.0,0.0,0.0,0.0,
0.1163,3.4768808773664737,3.381894300622662,3.619091037340179,0.0,0.0,0.0,3.492622071776438,0.0,0.0,0.0,0.0,0.0,0.0,0.0,0.0,0.0,0.0,0.0,0.0,0.0,0.0,
0.1308,3.476987247590646,3.3820013361235053,3.619220471691328,0.0,0.0,0.0,3.492736351801826,0.0,0.0,0.0,0.0,0.0,0.0,0.0,0.0,0.0,0.0,0.0,0.0,0.0,0.0,
0.1454,3.477106979935237,3.3821218191013287,3.619366169704521,0.0,0.0,0.0,3.492864989580362,0.0,0.0,0.0,0.0,0.0,0.0,0.0,0.0,0.0,0.0,0.0,0.0,0.0,0.0,
0.1599,3.4772384393107423,3.3822541048079318,3.6195261431071457,0.0,0.0,0.0,3.4930062290752733,0.0,0.0,0.0,0.0,0.0,0.0,0.0,0.0,0.0,0.0,0.0,0.0,0.0,0.0,
0.1744,3.477382408281476,3.3823989813591027,3.6197013457099874,0.0,0.0,0.0,3.4931609117835225,0.0,0.0,0.0,0.0,0.0,0.0,0.0,0.0,0.0,0.0,0.0,0.0,0.0,0.0,
0.189,3.4775400156410057,3.382557585412328,3.619893152975452,0.0,0.0,0.0,3.493330251342929,0.0,0.0,0.0,0.0,0.0,0.0,0.0,0.0,0.0,0.0,0.0,0.0,0.0,0.0,
0.2035,3.477709109077267,3.3827277518261085,3.6200989474123784,0.0,0.0,0.0,3.4935119361052513,0.0,0.0,0.0,0.0,0.0,0.0,0.0,0.0,0.0,0.0,0.0,0.0,0.0,0.0,
0.218,3.4778907321190258,3.3829105315582906,3.620320000964875,0.0,0.0,0.0,3.4937070882140637,0.0,0.0,0.0,0.0,0.0,0.0,0.0,0.0,0.0,0.0,0.0,0.0,0.0,0.0,
0.2326,3.4780862750800554,3.3831073247330297,3.620558008060623,0.0,0.0,0.0,3.4939172026245693,0.0,0.0,0.0,0.0,0.0,0.0,0.0,0.0,0.0,0.0,0.0,0.0,0.0,0.0,
0.2471,3.4782930676034374,3.383315444893587,3.620809720764374,0.0,0.0,0.0,3.494139411087133,0.0,0.0,0.0,0.0,0.0,0.0,0.0,0.0,0.0,0.0,0.0,0.0,0.0,0.0,
0.2616,3.4785124145892534,3.383536206298368,3.6210767297655364,0.0,0.0,0.0,3.494375116884386,0.0,0.0,0.0,0.0,0.0,0.0,0.0,0.0,0.0,0.0,0.0,0.0,0.0,0.0,
0.2762,3.478745968412582,3.383771273147957,3.6213610492708965,0.0,0.0,0.0,3.494626096943812,0.0,0.0,0.0,0.0,0.0,0.0,0.0,0.0,0.0,0.0,0.0,0.0,0.0,0.0,
0.2907,3.478990539650594,3.384017436525049,3.6216587993781246,0.0,0.0,0.0,3.4948889251845894,0.0,0.0,0.0,0.0,0.0,0.0,0.0,0.0,0.0,0.0,0.0,0.0,0.0,0.0,
0.3052,3.4792476950835862,3.3842762745623833,3.62197189028807,0.0,0.0,0.0,3.49516528664468,0.0,0.0,0.0,0.0,0.0,0.0,0.0,0.0,0.0,0.0,0.0,0.0,0.0,0.0,
0.3198,3.4795193497925005,3.3845497162635074,3.6223026569565198,0.0,0.0,0.0,3.495457241004176,0.0,0.0,0.0,0.0,0.0,0.0,0.0,0.0,0.0,0.0,0.0,0.0,0.0,0.0,
0.3343,3.4798017940669825,3.384834028879855,3.622646585690974,0.0,0.0,0.0,3.495760802879271,0.0,0.0,0.0,0.0,0.0,0.0,0.0,0.0,0.0,0.0,0.0,0.0,0.0,0.0,
0.3488,3.4800968571795927,3.385131055108699,3.6230059071254597,0.0,0.0,0.0,3.496077939804584,0.0,0.0,0.0,0.0,0.0,0.0,0.0,0.0,0.0,0.0,0.0,0.0,0.0,0.0,
0.3634,3.480406717665387,3.385442989600508,3.6233832780920467,0.0,0.0,0.0,3.4964109951193136,0.0,0.0,0.0,0.0,0.0,0.0,0.0,0.0,0.0,0.0,0.0,0.0,0.0,0.0,
0.3779,3.4807271441033114,3.3857655741779356,3.6237735489823932,0.0,0.0,0.0,3.4967554224212134,0.0,0.0,0.0,0.0,0.0,0.0,0.0,0.0,0.0,0.0,0.0,0.0,0.0,0.0,
0.3925,3.481062570094489,3.386103273952606,3.6241821237314524,0.0,0.0,0.0,3.497115989259516,0.0,0.0,0.0,0.0,0.0,0.0,0.0,0.0,0.0,0.0,0.0,0.0,0.0,0.0,
0.407,3.4814084151193043,3.3864514790572944,3.624603426966798,0.0,0.0,0.0,3.497487773714466,0.0,0.0,0.0,0.0,0.0,0.0,0.0,0.0,0.0,0.0,0.0,0.0,0.0,0.0,
0.4215,3.4817669477813458,3.3868124751864337,3.625040226099915,0.0,0.0,0.0,3.4978732163558983,0.0,0.0,0.0,0.0,0.0,0.0,0.0,0.0,0.0,0.0,0.0,0.0,0.0,0.0,
0.4361,3.482140787857,3.3871889021390125,3.625495717610199,0.0,0.0,0.0,3.4982751358687376,0.0,0.0,0.0,0.0,0.0,0.0,0.0,0.0,0.0,0.0,0.0,0.0,0.0,0.0,
0.4506,3.4825248302895546,3.3875756214441624,3.625963685982747,0.0,0.0,0.0,3.4986880459054883,0.0,0.0,0.0,0.0,0.0,0.0,0.0,0.0,0.0,0.0,0.0,0.0,0.0,0.0,
0.4651,3.482921608316783,3.3879751857784854,3.626447222293448,0.0,0.0,0.0,3.499114672129572,0.0,0.0,0.0,0.0,0.0,0.0,0.0,0.0,0.0,0.0,0.0,0.0,0.0,0.0,
0.4797,3.4833340076809094,3.3883905034240103,3.626949848689401,0.0,0.0,0.0,3.4995581199314407,0.0,0.0,0.0,0.0,0.0,0.0,0.0,0.0,0.0,0.0,0.0,0.0,0.0,0.0,
0.4942,3.4837563968181393,3.3888159050915165,3.6274647065631345,0.0,0.0,0.0,3.500012336157597,0.0,0.0,0.0,0.0,0.0,0.0,0.0,0.0,0.0,0.0,0.0,0.0,0.0,0.0,
0.5087,3.484191574597193,3.3892542115660786,3.6279952121613244,0.0,0.0,0.0,3.5004803327748655,0.0,0.0,0.0,0.0,0.0,0.0,0.0,0.0,0.0,0.0,0.0,0.0,0.0,0.0,
0.5233,3.484642693864235,3.389708600899502,3.628545215020933,0.0,0.0,0.0,3.5009655032615563,0.0,0.0,0.0,0.0,0.0,0.0,0.0,0.0,0.0,0.0,0.0,0.0,0.0,0.0,
0.5378,3.485103594369405,3.390172870533014,3.6291072101746833,0.0,0.0,0.0,3.5014612250257002,0.0,0.0,0.0,0.0,0.0,0.0,0.0,0.0,0.0,0.0,0.0,0.0,0.0,0.0,
0.5523,3.4855773417165867,3.3906501106087514,3.6296849407112477,0.0,0.0,0.0,3.5019707976788617,0.0,0.0,0.0,0.0,0.0,0.0,0.0,0.0,0.0,0.0,0.0,0.0,0.0,0.0,
0.5669,3.4860673571032863,3.391143770359707,3.6302825854475533,0.0,0.0,0.0,3.5024979043035156,0.0,0.0,0.0,0.0,0.0,0.0,0.0,0.0,0.0,0.0,0.0,0.0,0.0,0.0,
0.5814,3.4865669492029796,3.3916471112663555,3.630891989467405,0.0,0.0,0.0,3.5030353499789135,0.0,0.0,0.0,0.0,0.0,0.0,0.0,0.0,0.0,0.0,0.0,0.0,0.0,0.0,
0.5959,3.4870794515677805,3.3921634942005685,3.631517224539914,0.0,0.0,0.0,3.503586723436088,0.0,0.0,0.0,0.0,0.0,0.0,0.0,0.0,0.0,0.0,0.0,0.0,0.0,0.0,
0.6105,3.487608555104683,3.392696641114814,3.6321628008233775,0.0,0.0,0.0,3.504155999014292,0.0,0.0,0.0,0.0,0.0,0.0,0.0,0.0,0.0,0.0,0.0,0.0,0.0,0.0,
0.625,3.488147034805522,3.393239274593731,3.632819909535923,0.0,0.0,0.0,3.5047354063117258,0.0,0.0,0.0,0.0,0.0,0.0,0.0,0.0,0.0,0.0,0.0,0.0,0.0,0.0,
0.6396,3.4887023417766936,3.3937989061331573,3.633497650226656,0.0,0.0,0.0,3.505332966045502,0.0,0.0,0.0,0.0,0.0,0.0,0.0,0.0,0.0,0.0,0.0,0.0,0.0,0.0,
0.6541,3.48926689325732,3.3943678968862914,3.6341867753589923,0.0,0.0,0.0,3.5059405218342015,0.0,0.0,0.0,0.0,0.0,0.0,0.0,0.0,0.0,0.0,0.0,0.0,0.0,0.0,
0.6686,3.489844472583114,3.3949500625450195,3.634891909307099,0.0,0.0,0.0,3.5065621481450773,0.0,0.0,0.0,0.0,0.0,0.0,0.0,0.0,0.0,0.0,0.0,0.0,0.0,0.0,
0.6832,3.4904392237098993,3.3955495835751552,3.6356181197790627,0.0,0.0,0.0,3.507202309021372,0.0,0.0,0.0,0.0,0.0,0.0,0.0,0.0,0.0,0.0,0.0,0.0,0.0,0.0,
0.6977,3.4910430253662583,3.396158276786822,3.6363554980959947,0.0,0.0,0.0,3.507852266749692,0.0,0.0,0.0,0.0,0.0,0.0,0.0,0.0,0.0,0.0,0.0,0.0,0.0,0.0,
0.7122,3.491659932615955,3.39678023288638,3.637109003058892,0.0,0.0,0.0,3.508516389520409,0.0,0.0,0.0,0.0,0.0,0.0,0.0,0.0,0.0,0.0,0.0,0.0,0.0,0.0,
0.7268,3.4922943633021335,3.397419909799838,3.637884040080409,0.0,0.0,0.0,3.5091994377274602,0.0,0.0,0.0,0.0,0.0,0.0,0.0,0.0,0.0,0.0,0.0,0.0,0.0,0.0,
0.7413,3.492937654449997,3.3980685763878498,3.638670034516944,0.0,0.0,0.0,3.509892088451597,0.0,0.0,0.0,0.0,0.0,0.0,0.0,0.0,0.0,0.0,0.0,0.0,0.0,0.0,
0.7558,3.4935941344774535,3.3987306002179314,3.639472282076566,0.0,0.0,0.0,3.51059900559065,0.0,0.0,0.0,0.0,0.0,0.0,0.0,0.0,0.0,0.0,0.0,0.0,0.0,0.0,
0.7704,3.49426849689477,3.399410718700119,3.6402965285977382,0.0,0.0,0.0,3.511325248064209,0.0,0.0,0.0,0.0,0.0,0.0,0.0,0.0,0.0,0.0,0.0,0.0,0.0,0.0,
0.7849,3.4949515336038988,3.400099648878549,3.641131528296348,0.0,0.0,0.0,3.512060903592932,0.0,0.0,0.0,0.0,0.0,0.0,0.0,0.0,0.0,0.0,0.0,0.0,0.0,0.0,
0.7994,3.4956478481198703,3.400802037163696,3.6419829164521658,0.0,0.0,0.0,3.512810933911911,0.0,0.0,0.0,0.0,0.0,0.0,0.0,0.0,0.0,0.0,0.0,0.0,0.0,0.0,
0.814,3.4963624115199767,3.401522902612767,3.642856782240609,0.0,0.0,0.0,3.513580698791117,0.0,0.0,0.0,0.0,0.0,0.0,0.0,0.0,0.0,0.0,0.0,0.0,0.0,0.0,
0.8285,3.4970854669315354,3.402252406319796,3.643741203199819,0.0,0.0,0.0,3.5143596921503835,0.0,0.0,0.0,0.0,0.0,0.0,0.0,0.0,0.0,0.0,0.0,0.0,0.0,0.0,
0.843,3.4978218948290523,3.402995475658417,3.644642157034478,0.0,0.0,0.0,3.515153175840649,0.0,0.0,0.0,0.0,0.0,0.0,0.0,0.0,0.0,0.0,0.0,0.0,0.0,0.0,
0.8576,3.4985769458789973,3.4037574136383864,3.6455660793632734,0.0,0.0,0.0,3.515966812960219,0.0,0.0,0.0,0.0,0.0,0.0,0.0,0.0,0.0,0.0,0.0,0.0,0.0,0.0,
0.8721,3.499340310546939,3.4045278209978265,3.646500365138612,0.0,0.0,0.0,3.5167894988944592,0.0,0.0,0.0,0.0,0.0,0.0,0.0,0.0,0.0,0.0,0.0,0.0,0.0,0.0,
0.8867,3.5001225526116504,3.405317363423069,3.64745795402733,0.0,0.0,0.0,3.5176326233540167,0.0,0.0,0.0,0.0,0.0,0.0,0.0,0.0,0.0,0.0,0.0,0.0,0.0,0.0,
0.9012,3.5009129913931907,3.406115265063893,3.6484257819273838,0.0,0.0,0.0,3.5184846794614892,0.0,0.0,0.0,0.0,0.0,0.0,0.0,0.0,0.0,0.0,0.0,0.0,0.0,0.0,
0.9157,3.5017169736502725,3.4069269268817144,3.6494104043877647,0.0,0.0,0.0,3.51935143497325,0.0,0.0,0.0,0.0,0.0,0.0,0.0,0.0,0.0,0.0,0.0,0.0,0.0,0.0,
0.9303,3.502540221083073,3.407758130883322,3.65041884215355,0.0,0.0,0.0,3.5202390647066486,0.0,0.0,0.0,0.0,0.0,0.0,0.0,0.0,0.0,0.0,0.0,0.0,0.0,0.0,
0.9448,3.503371493330496,3.4085975328923825,3.6514373378342353,0.0,0.0,0.0,3.5211354546857048,0.0,0.0,0.0,0.0,0.0,0.0,0.0,0.0,0.0,0.0,0.0,0.0,0.0,0.0,
0.9593,3.504216419680253,3.409450821190348,3.652472797976736,0.0,0.0,0.0,3.5220466796157788,0.0,0.0,0.0,0.0,0.0,0.0,0.0,0.0,0.0,0.0,0.0,0.0,0.0,0.0,
0.9739,3.5050810074345944,3.410324068610874,3.653532599052764,0.0,0.0,0.0,3.5229792250327443,0.0,0.0,0.0,0.0,0.0,0.0,0.0,0.0,0.0,0.0,0.0,0.0,0.0,0.0,
0.9884,3.5059534520104982,3.4112053574859766,3.6546022834360627,0.0,0.0,0.0,3.5239203643108454,0.0,0.0,0.0,0.0,0.0,0.0,0.0,0.0,0.0,0.0,0.0,0.0,0.0,0.0,
1.0029,3.5068396675460947,3.4121006660739237,3.6556891122626545,0.0,0.0,0.0,3.524876481960891,0.0,0.0,0.0,0.0,0.0,0.0,0.0,0.0,0.0,0.0,0.0,0.0,0.0,0.0,
1.0175,3.507745949440224,3.4130163608956683,3.6568008216028463,0.0,0.0,0.0,3.5258543773129127,0.0,0.0,0.0,0.0,0.0,0.0,0.0,0.0,0.0,0.0,0.0,0.0,0.0,0.0,
1.032,3.508659924091976,3.413939945327322,3.6579222462369017,0.0,0.0,0.0,3.526840705218733,0.0,0.0,0.0,0.0,0.0,0.0,0.0,0.0,0.0,0.0,0.0,0.0,0.0,0.0,
1.0465,3.5095877929430785,3.4148776904164544,3.659061005696426,0.0,0.0,0.0,3.527842163018653,0.0,0.0,0.0,0.0,0.0,0.0,0.0,0.0,0.0,0.0,0.0,0.0,0.0,0.0,
1.0611,3.5105361421198458,3.4158362593931897,3.66022519974705,0.0,0.0,0.0,3.528865867086695,0.0,0.0,0.0,0.0,0.0,0.0,0.0,0.0,0.0,0.0,0.0,0.0,0.0,0.0,
1.0756,3.511492023945947,3.4168025709064493,3.6613989477941438,0.0,0.0,0.0,3.5298978475488467,0.0,0.0,0.0,0.0,0.0,0.0,0.0,0.0,0.0,0.0,0.0,0.0,0.0,0.0,
1.0901,3.512461929755289,3.417783191765724,3.6625902317940624,0.0,0.0,0.0,3.530945117771692,0.0,0.0,0.0,0.0,0.0,0.0,0.0,0.0,0.0,0.0,0.0,0.0,0.0,0.0,
1.1047,3.513452739172031,3.418785085098667,3.663807519536642,0.0,0.0,0.0,3.5320151146024465,0.0,0.0,0.0,0.0,0.0,0.0,0.0,0.0,0.0,0.0,0.0,0.0,0.0,0.0,
1.1192,3.5144509251191605,3.419794578739716,3.665034206833721,0.0,0.0,0.0,3.533093236897533,0.0,0.0,0.0,0.0,0.0,0.0,0.0,0.0,0.0,0.0,0.0,0.0,0.0,0.0,
1.1338,3.5154703025238248,3.4208256505401806,3.66628728643131,0.0,0.0,0.0,3.534194413165105,0.0,0.0,0.0,0.0,0.0,0.0,0.0,0.0,0.0,0.0,0.0,0.0,0.0,0.0,
1.1483,3.5164969544998894,3.4218642304585254,3.6675496663961287,0.0,0.0,0.0,3.5353036171181813,0.0,0.0,0.0,0.0,0.0,0.0,0.0,0.0,0.0,0.0,0.0,0.0,0.0,0.0,
1.1628,3.5175378618914874,3.422917385528623,3.668829942592551,0.0,0.0,0.0,3.536428396670887,0.0,0.0,0.0,0.0,0.0,0.0,0.0,0.0,0.0,0.0,0.0,0.0,0.0,0.0,
1.1774,3.518600400263414,3.42399258649663,3.6701372067503275,0.0,0.0,0.0,3.5375767311701236,0.0,0.0,0.0,0.0,0.0,0.0,0.0,0.0,0.0,0.0,0.0,0.0,0.0,0.0,
1.1919,3.5196700638340572,3.4250751616271935,3.671453628625574,0.0,0.0,0.0,3.538732951362275,0.0,0.0,0.0,0.0,0.0,0.0,0.0,0.0,0.0,0.0,0.0,0.0,0.0,0.0,
1.2064,3.5207541309327066,3.4261724824669497,3.6727881784030187,0.0,0.0,0.0,3.539904930600892,0.0,0.0,0.0,0.0,0.0,0.0,0.0,0.0,0.0,0.0,0.0,0.0,0.0,0.0,
1.221,3.5218602787250046,3.4272923290199664,3.6741503285847004,0.0,0.0,0.0,3.541100978776557,0.0,0.0,0.0,0.0,0.0,0.0,0.0,0.0,0.0,0.0,0.0,0.0,0.0,0.0,
1.2355,3.5229734064585005,3.4284194208780323,3.675521501155923,0.0,0.0,0.0,3.5423047761641517,0.0,0.0,0.0,0.0,0.0,0.0,0.0,0.0,0.0,0.0,0.0,0.0,0.0,0.0,
1.25,3.524101093063463,3.429561437704982,3.676911045536474,0.0,0.0,0.0,3.5435245254349734,0.0,0.0,0.0,0.0,0.0,0.0,0.0,0.0,0.0,0.0,0.0,0.0,0.0,0.0,
1.2646,3.5252513206234557,3.4307264726098543,3.6783288202571205,0.0,0.0,0.0,3.544768871163477,0.0,0.0,0.0,0.0,0.0,0.0,0.0,0.0,0.0,0.0,0.0,0.0,0.0,0.0,
1.2791,3.5264083870440444,3.431898629178075,3.6797554895752653,0.0,0.0,0.0,3.5460208352657947,0.0,0.0,0.0,0.0,0.0,0.0,0.0,0.0,0.0,0.0,0.0,0.0,0.0,0.0,
1.2936,3.5275801751258604,3.433085898981076,3.6812007873235655,0.0,0.0,0.0,3.5472889538101673,0.0,0.0,0.0,0.0,0.0,0.0,0.0,0.0,0.0,0.0,0.0,0.0,0.0,0.0,
1.3082,3.528774975346947,3.4342966922744447,3.6826749635945286,0.0,0.0,0.0,3.548582210405307,0.0,0.0,0.0,0.0,0.0,0.0,0.0,0.0,0.0,0.0,0.0,0.0,0.0,0.0,
1.3227,3.5299764775954805,3.4355144889370415,3.6841579144447643,0.0,0.0,0.0,3.5498829603257622,0.0,0.0,0.0,0.0,0.0,0.0,0.0,0.0,0.0,0.0,0.0,0.0,0.0,0.0,
1.3372,3.5311928719698584,3.436747596430976,3.6856597635712856,0.0,0.0,0.0,3.55120007732404,0.0,0.0,0.0,0.0,0.0,0.0,0.0,0.0,0.0,0.0,0.0,0.0,0.0,0.0,
1.3518,3.5324327609838018,3.4380047464018193,3.687191158449464,0.0,0.0,0.0,3.552542888611695,0.0,0.0,0.0,0.0,0.0,0.0,0.0,0.0,0.0,0.0,0.0,0.0,0.0,0.0,
1.3663,3.5336792195188567,3.439268786941951,3.6887312159259955,0.0,0.0,0.0,3.5538930741289345,0.0,0.0,0.0,0.0,0.0,0.0,0.0,0.0,0.0,0.0,0.0,0.0,0.0,0.0,
1.3809,3.5349495012292964,3.440557224173806,3.6903012754998907,0.0,0.0,0.0,3.5552693336343313,0.0,0.0,0.0,0.0,0.0,0.0,0.0,0.0,0.0,0.0,0.0,0.0,0.0,0.0,
1.3954,3.5362262664733244,3.4418524798256223,3.691879927547741,0.0,0.0,0.0,3.5566528912822286,0.0,0.0,0.0,0.0,0.0,0.0,0.0,0.0,0.0,0.0,0.0,0.0,0.0,0.0,
1.4099,3.5375182258154885,3.4431633974900753,3.6934779587425104,0.0,0.0,0.0,3.558053194016025,0.0,0.0,0.0,0.0,0.0,0.0,0.0,0.0,0.0,0.0,0.0,0.0,0.0,0.0,
1.4245,3.538834510629498,3.4444992547185236,3.695106692936636,0.0,0.0,0.0,3.559480152761553,0.0,0.0,0.0,0.0,0.0,0.0,0.0,0.0,0.0,0.0,0.0,0.0,0.0,0.0,
1.439,3.540157153888608,3.445841827097595,3.6967439216874056,0.0,0.0,0.0,3.5609143008912025,0.0,0.0,0.0,0.0,0.0,0.0,0.0,0.0,0.0,0.0,0.0,0.0,0.0,0.0,
1.4535,3.5414951834100625,3.4472002857335244,3.698400837501542,0.0,0.0,0.0,3.5623654355483763,0.0,0.0,0.0,0.0,0.0,0.0,0.0,0.0,0.0,0.0,0.0,0.0,0.0,0.0,
1.4681,3.5428580531623974,3.448584241934301,3.700089178648596,0.0,0.0,0.0,3.563843824581765,0.0,0.0,0.0,0.0,0.0,0.0,0.0,0.0,0.0,0.0,0.0,0.0,0.0,0.0,
1.4826,3.5442271608586218,3.449974815981876,3.7017859253161025,0.0,0.0,0.0,3.565329300718867,0.0,0.0,0.0,0.0,0.0,0.0,0.0,0.0,0.0,0.0,0.0,0.0,0.0,0.0,
1.4971,3.5456118556209812,3.4513815112506623,3.703502682403877,0.0,0.0,0.0,3.566832016425174,0.0,0.0,0.0,0.0,0.0,0.0,0.0,0.0,0.0,0.0,0.0,0.0,0.0,0.0,
1.5117,3.547021918305851,3.452814277859256,3.7052516095897734,0.0,0.0,0.0,3.5683626019182935,0.0,0.0,0.0,0.0,0.0,0.0,0.0,0.0,0.0,0.0,0.0,0.0,0.0,0.0,
1.5262,3.548438103138154,3.4542535711866993,3.7070088625172515,0.0,0.0,0.0,3.569900178947368,0.0,0.0,0.0,0.0,0.0,0.0,0.0,0.0,0.0,0.0,0.0,0.0,0.0,0.0,
1.5407,3.54987008478148,3.4557092318605402,3.708786465372826,0.0,0.0,0.0,3.5714552606716157,0.0,0.0,0.0,0.0,0.0,0.0,0.0,0.0,0.0,0.0,0.0,0.0,0.0,0.0,
1.5553,3.5513279754655604,3.4571915541069616,3.710597006588802,0.0,0.0,0.0,3.5730388453871083,0.0,0.0,0.0,0.0,0.0,0.0,0.0,0.0,0.0,0.0,0.0,0.0,0.0,0.0,
1.5698,3.5527918773346676,3.458680318350827,3.7124158034377372,0.0,0.0,0.0,3.574629333041077,0.0,0.0,0.0,0.0,0.0,0.0,0.0,0.0,0.0,0.0,0.0,0.0,0.0,0.0,
1.5843,3.5542717950207248,3.460185707698249,3.7142553066371375,0.0,0.0,0.0,3.5762376031187038,0.0,0.0,0.0,0.0,0.0,0.0,0.0,0.0,0.0,0.0,0.0,0.0,0.0,0.0,
1.5989,3.5557781768119674,3.4617183660332134,3.716128541091855,0.0,0.0,0.0,3.5778750279790117,0.0,0.0,0.0,0.0,0.0,0.0,0.0,0.0,0.0,0.0,0.0,0.0,0.0,0.0,
1.6134,3.55729046380188,3.4632573883038624,3.7180099711943755,0.0,0.0,0.0,3.579519274433373,0.0,0.0,0.0,0.0,0.0,0.0,0.0,0.0,0.0,0.0,0.0,0.0,0.0,0.0,
1.628,3.558829593393899,3.4648240949090736,3.7199256760579824,0.0,0.0,0.0,3.581193121453652,0.0,0.0,0.0,0.0,0.0,0.0,0.0,0.0,0.0,0.0,0.0,0.0,0.0,0.0,
1.6425,3.5603745602912307,3.4663971171907026,3.721849542410554,0.0,0.0,0.0,3.5828737399641626,0.0,0.0,0.0,0.0,0.0,0.0,0.0,0.0,0.0,0.0,0.0,0.0,0.0,0.0,
1.657,3.5619359297109745,3.467987221621011,3.723794749299108,0.0,0.0,0.0,3.5845726335436976,0.0,0.0,0.0,0.0,0.0,0.0,0.0,0.0,0.0,0.0,0.0,0.0,0.0,0.0,
1.6716,3.5635247212815386,3.469605648183316,3.7257750676524735,0.0,0.0,0.0,3.5863018123724424,0.0,0.0,0.0,0.0,0.0,0.0,0.0,0.0,0.0,0.0,0.0,0.0,0.0,0.0,
1.6861,3.565119252821154,3.471230324092917,3.727763505518593,0.0,0.0,0.0,3.5880376941442216,0.0,0.0,0.0,0.0,0.0,0.0,0.0,0.0,0.0,0.0,0.0,0.0,0.0,0.0,
1.7006,3.56673043231082,3.4728723734955,3.7297736896485763,0.0,0.0,0.0,3.589792165151632,0.0,0.0,0.0,0.0,0.0,0.0,0.0,0.0,0.0,0.0,0.0,0.0,0.0,0.0,
1.7152,3.5683696289696183,3.4745434021665345,3.731819849999475,0.0,0.0,0.0,3.591577627045209,0.0,0.0,0.0,0.0,0.0,0.0,0.0,0.0,0.0,0.0,0.0,0.0,0.0,0.0,
1.7297,3.5700144736845867,3.4762206213123497,3.73387409944476,0.0,0.0,0.0,3.5933697314805655,0.0,0.0,0.0,0.0,0.0,0.0,0.0,0.0,0.0,0.0,0.0,0.0,0.0,0.0,
1.7442,3.5716762223897027,3.4779155189535755,3.7359505211270583,0.0,0.0,0.0,3.595180754156779,0.0,0.0,0.0,0.0,0.0,0.0,0.0,0.0,0.0,0.0,0.0,0.0,0.0,0.0,
1.7588,3.573366599380111,3.4796400732416393,3.7380638132872863,0.0,0.0,0.0,3.5970234953030125,0.0,0.0,0.0,0.0,0.0,0.0,0.0,0.0,0.0,0.0,0.0,0.0,0.0,0.0,
1.7733,3.5750625381333574,3.4813707669394085,3.7401851763163996,0.0,0.0,0.0,3.5988728271297217,0.0,0.0,0.0,0.0,0.0,0.0,0.0,0.0,0.0,0.0,0.0,0.0,0.0,0.0,
1.7878,3.5767756479528607,3.4831194584398615,3.742329158879087,0.0,0.0,0.0,3.6007414217572697,0.0,0.0,0.0,0.0,0.0,0.0,0.0,0.0,0.0,0.0,0.0,0.0,0.0,0.0,
1.8024,3.5785180139339787,3.484898505168336,3.744510937229653,0.0,0.0,0.0,3.602642485443989,0.0,0.0,0.0,0.0,0.0,0.0,0.0,0.0,0.0,0.0,0.0,0.0,0.0,0.0,
1.8169,3.5802658612178457,3.4866836484319665,3.74670078111248,0.0,0.0,0.0,3.6045500969207644,0.0,0.0,0.0,0.0,0.0,0.0,0.0,0.0,0.0,0.0,0.0,0.0,0.0,0.0,
1.8314,3.5820311581300244,3.4884871238038597,3.7489137143128053,0.0,0.0,0.0,3.6064773320822296,0.0,0.0,0.0,0.0,0.0,0.0,0.0,0.0,0.0,0.0,0.0,0.0,0.0,0.0,
1.846,3.5838263565395025,3.490321675211168,3.751165401328616,0.0,0.0,0.0,3.608437811026429,0.0,0.0,0.0,0.0,0.0,0.0,0.0,0.0,0.0,0.0,0.0,0.0,0.0,0.0,
1.8605,3.585626961857113,3.492162288887893,3.7534251621924866,0.0,0.0,0.0,3.610404804312498,0.0,0.0,0.0,0.0,0.0,0.0,0.0,0.0,0.0,0.0,0.0,0.0,0.0,0.0,
1.8751,3.5874579094680876,3.494034472594092,3.7557243353743686,0.0,0.0,0.0,3.6124055724788495,0.0,0.0,0.0,0.0,0.0,0.0,0.0,0.0,0.0,0.0,0.0,0.0,0.0,0.0,
1.8896,3.589294217832981,3.4959127007142885,3.7580315959624344,0.0,0.0,0.0,3.614412838169901,0.0,0.0,0.0,0.0,0.0,0.0,0.0,0.0,0.0,0.0,0.0,0.0,0.0,0.0,
