energies(eV),real_xx,real_yy,real_zz,real_xy,real_yz,real_xz,real_ave,imag_xx,imag_yy,imag_zz,imag_xy,imag_yz,imag_xz,imag_ave,absorption_xx,absorption_yy,absorption_zz,absorption_xy,absorption_yz,absorption_xz,absorption_ave,band_gap
0.0,3.8379723195230215,3.8379723195230215,4.144696798967374,0.0,0.0,0.0,3.9402138126711392,0.0,0.0,0.0,0.0,0.0,0.0,0.0,0.0,0.0,0.0,0.0,0.0,0.0,0.0,3.4816000000000003
0.0203,3.83798942566852,3.83798942566852,4.144716530794558,0.0,0.0,0.0,3.940231794043866,0.0,0.0,0.0,0.0,0.0,0.0,0.0,0.0,0.0,0.0,0.0,0.0,0.0,0.0,
0.0405,3.838040409508906,3.838040409508906,4.144775340282445,0.0,0.0,0.0,3.9402853864334184,0.0,0.0,0.0,0.0,0.0,0.0,0.0,0.0,0.0,0.0,0.0,0.0,0.0,0.0,
0.0608,3.838125782038372,3.838125782038372,4.144873816740374,0.0,0.0,0.0,3.9403751269390397,0.0,0.0,0.0,0.0,0.0,0.0,0.0,0.0,0.0,0.0,0.0,0.0,0.0,0.0,
0.081,3.838244712419009,3.838244712419009,4.145011001607649,0.0,0.0,0.0,3.9405001421485557,0.0,0.0,0.0,0.0,0.0,0.0,0.0,0.0,0.0,0.0,0.0,0.0,0.0,0.0,
0.1013,3.8383983926568956,3.8383983926568956,4.145188269572635,0.0,0.0,0.0,3.940661684962142,0.0,0.0,0.0,0.0,0.0,0.0,0.0,0.0,0.0,0.0,0.0,0.0,0.0,0.0,
0.1215,3.8385853271607338,3.8385853271607338,4.145403895137308,0.0,0.0,0.0,3.940858183152925,0.0,0.0,0.0,0.0,0.0,0.0,0.0,0.0,0.0,0.0,0.0,0.0,0.0,0.0,
0.1418,3.838807389540652,3.838807389540652,4.145660039039612,0.0,0.0,0.0,3.9410916060403047,0.0,0.0,0.0,0.0,0.0,0.0,0.0,0.0,0.0,0.0,0.0,0.0,0.0,0.0,
0.1621,3.839063765834071,3.839063765834071,4.14595576186614,0.0,0.0,0.0,3.941361097844761,0.0,0.0,0.0,0.0,0.0,0.0,0.0,0.0,0.0,0.0,0.0,0.0,0.0,0.0,
0.1823,3.839352970924764,3.839352970924764,4.146289349989265,0.0,0.0,0.0,3.9416650972795977,0.0,0.0,0.0,0.0,0.0,0.0,0.0,0.0,0.0,0.0,0.0,0.0,0.0,0.0,
0.2026,3.8396779035260713,3.8396779035260713,4.146664146292922,0.0,0.0,0.0,3.942006651115021,0.0,0.0,0.0,0.0,0.0,0.0,0.0,0.0,0.0,0.0,0.0,0.0,0.0,0.0,
0.2228,3.840035401564739,3.840035401564739,4.147076502696265,0.0,0.0,0.0,3.9423824352752477,0.0,0.0,0.0,0.0,0.0,0.0,0.0,0.0,0.0,0.0,0.0,0.0,0.0,0.0,
0.2431,3.8404290483286077,3.8404290483286077,4.147530551496093,0.0,0.0,0.0,3.9427962160511023,0.0,0.0,0.0,0.0,0.0,0.0,0.0,0.0,0.0,0.0,0.0,0.0,0.0,0.0,
0.2633,3.8408550131405708,3.8408550131405708,4.148021873299298,0.0,0.0,0.0,3.943243966526813,0.0,0.0,0.0,0.0,0.0,0.0,0.0,0.0,0.0,0.0,0.0,0.0,0.0,0.0,
0.2836,3.841317565650814,3.841317565650814,4.148555391839589,0.0,0.0,0.0,3.9437301743804056,0.0,0.0,0.0,0.0,0.0,0.0,0.0,0.0,0.0,0.0,0.0,0.0,0.0,0.0,
0.3039,3.8418147388432153,3.8418147388432153,4.149128837172203,0.0,0.0,0.0,3.9442527716195444,0.0,0.0,0.0,0.0,0.0,0.0,0.0,0.0,0.0,0.0,0.0,0.0,0.0,0.0,
0.3241,3.84234388862743,3.84234388862743,4.149739158418347,0.0,0.0,0.0,3.944808978557736,0.0,0.0,0.0,0.0,0.0,0.0,0.0,0.0,0.0,0.0,0.0,0.0,0.0,0.0,
0.3444,3.8429103191624034,3.8429103191624034,4.150392472105008,0.0,0.0,0.0,3.945404370143271,0.0,0.0,0.0,0.0,0.0,0.0,0.0,0.0,0.0,0.0,0.0,0.0,0.0,0.0,
0.3646,3.8435085187846703,3.8435085187846703,4.151082419778583,0.0,0.0,0.0,3.9460331524493077,0.0,0.0,0.0,0.0,0.0,0.0,0.0,0.0,0.0,0.0,0.0,0.0,0.0,0.0,
0.3849,3.8441444840142562,3.8441444840142562,4.151815916192044,0.0,0.0,0.0,3.946701628073519,0.0,0.0,0.0,0.0,0.0,0.0,0.0,0.0,0.0,0.0,0.0,0.0,0.0,0.0,
0.4051,3.8448120268142105,3.8448120268142105,4.152585822754563,0.0,0.0,0.0,3.9474032921276616,0.0,0.0,0.0,0.0,0.0,0.0,0.0,0.0,0.0,0.0,0.0,0.0,0.0,0.0,
0.4254,3.845517839084496,3.845517839084496,4.153399855860405,0.0,0.0,0.0,3.948145178009799,0.0,0.0,0.0,0.0,0.0,0.0,0.0,0.0,0.0,0.0,0.0,0.0,0.0,0.0,
0.4457,3.8462587897306193,3.8462587897306193,4.154254402476913,0.0,0.0,0.0,3.9489239939793834,0.0,0.0,0.0,0.0,0.0,0.0,0.0,0.0,0.0,0.0,0.0,0.0,0.0,0.0,
0.4659,3.8470310605952953,3.8470310605952953,4.155145057306267,0.0,0.0,0.0,3.949735726165619,0.0,0.0,0.0,0.0,0.0,0.0,0.0,0.0,0.0,0.0,0.0,0.0,0.0,0.0,
0.4862,3.8478423939680924,3.8478423939680924,4.156080747502198,0.0,0.0,0.0,3.950588511812794,0.0,0.0,0.0,0.0,0.0,0.0,0.0,0.0,0.0,0.0,0.0,0.0,0.0,0.0,
0.5064,3.848684896362026,3.848684896362026,4.157052367635429,0.0,0.0,0.0,3.95147405345316,0.0,0.0,0.0,0.0,0.0,0.0,0.0,0.0,0.0,0.0,0.0,0.0,0.0,0.0,
0.5267,3.849567014592316,3.849567014592316,4.1580696568432325,0.0,0.0,0.0,3.952401228675955,0.0,0.0,0.0,0.0,0.0,0.0,0.0,0.0,0.0,0.0,0.0,0.0,0.0,0.0,
0.5469,3.850480166968857,3.850480166968857,4.159122716131325,0.0,0.0,0.0,3.95336101668968,0.0,0.0,0.0,0.0,0.0,0.0,0.0,0.0,0.0,0.0,0.0,0.0,0.0,0.0,
0.5672,3.851433509142316,3.851433509142316,4.1602221014918,0.0,0.0,0.0,3.9543630399254774,0.0,0.0,0.0,0.0,0.0,0.0,0.0,0.0,0.0,0.0,0.0,0.0,0.0,0.0,
0.5875,3.8524227281998655,3.8524227281998655,4.161362836611669,0.0,0.0,0.0,3.9554027643371334,0.0,0.0,0.0,0.0,0.0,0.0,0.0,0.0,0.0,0.0,0.0,0.0,0.0,0.0,
0.6077,3.8534428099227136,3.8534428099227136,4.162539136768672,0.0,0.0,0.0,3.956474918871366,0.0,0.0,0.0,0.0,0.0,0.0,0.0,0.0,0.0,0.0,0.0,0.0,0.0,0.0,
0.628,3.854503983023977,3.854503983023977,4.163762794339389,0.0,0.0,0.0,3.9575902534624476,0.0,0.0,0.0,0.0,0.0,0.0,0.0,0.0,0.0,0.0,0.0,0.0,0.0,0.0,
0.6482,3.855595925495017,3.855595925495017,4.165021903928444,0.0,0.0,0.0,3.9587379183061593,0.0,0.0,0.0,0.0,0.0,0.0,0.0,0.0,0.0,0.0,0.0,0.0,0.0,0.0,
0.6685,3.856729587361066,3.856729587361066,4.166329088860213,0.0,0.0,0.0,3.959929421194115,0.0,0.0,0.0,0.0,0.0,0.0,0.0,0.0,0.0,0.0,0.0,0.0,0.0,0.0,
0.6887,3.8578939423036593,3.8578939423036593,4.167671631907687,0.0,0.0,0.0,3.961153172171669,0.0,0.0,0.0,0.0,0.0,0.0,0.0,0.0,0.0,0.0,0.0,0.0,0.0,0.0,
0.709,3.8591006673488684,3.8591006673488684,4.1690629937641255,0.0,0.0,0.0,3.9624214428206206,0.0,0.0,0.0,0.0,0.0,0.0,0.0,0.0,0.0,0.0,0.0,0.0,0.0,0.0,
0.7293,3.860344243007352,3.860344243007352,4.170496806675724,0.0,0.0,0.0,3.9637284308968095,0.0,0.0,0.0,0.0,0.0,0.0,0.0,0.0,0.0,0.0,0.0,0.0,0.0,0.0,
0.7495,3.861618429715091,3.861618429715091,4.171965873228979,0.0,0.0,0.0,3.9650675775530537,0.0,0.0,0.0,0.0,0.0,0.0,0.0,0.0,0.0,0.0,0.0,0.0,0.0,0.0,
0.7698,3.862936007487545,3.862936007487545,4.173484924280529,0.0,0.0,0.0,3.966452313085206,0.0,0.0,0.0,0.0,0.0,0.0,0.0,0.0,0.0,0.0,0.0,0.0,0.0,0.0,
0.79,3.8642841637669227,3.8642841637669227,4.175039184152947,0.0,0.0,0.0,3.9678691705622646,0.0,0.0,0.0,0.0,0.0,0.0,0.0,0.0,0.0,0.0,0.0,0.0,0.0,0.0,
0.8103,3.865676421635079,3.865676421635079,4.176644239191065,0.0,0.0,0.0,3.9693323608204074,0.0,0.0,0.0,0.0,0.0,0.0,0.0,0.0,0.0,0.0,0.0,0.0,0.0,0.0,
0.8305,3.8670992435379143,3.8670992435379143,4.178284478452711,0.0,0.0,0.0,3.97082765517618,0.0,0.0,0.0,0.0,0.0,0.0,0.0,0.0,0.0,0.0,0.0,0.0,0.0,0.0,
0.8508,3.8685669028105467,3.8685669028105467,4.179976351869204,0.0,0.0,0.0,3.972370052496766,0.0,0.0,0.0,0.0,0.0,0.0,0.0,0.0,0.0,0.0,0.0,0.0,0.0,0.0,
0.8711,3.8700726411799686,3.8700726411799686,4.181712063645107,0.0,0.0,0.0,3.973952448668348,0.0,0.0,0.0,0.0,0.0,0.0,0.0,0.0,0.0,0.0,0.0,0.0,0.0,0.0,
0.8913,3.871608956636806,3.871608956636806,4.183482961573228,0.0,0.0,0.0,3.9755669582822803,0.0,0.0,0.0,0.0,0.0,0.0,0.0,0.0,0.0,0.0,0.0,0.0,0.0,0.0,
0.9116,3.8731912633157126,3.8731912633157126,4.185306808351541,0.0,0.0,0.0,3.9772297783276556,0.0,0.0,0.0,0.0,0.0,0.0,0.0,0.0,0.0,0.0,0.0,0.0,0.0,0.0,
0.9318,3.8748041795755164,3.8748041795755164,4.1871658691055735,0.0,0.0,0.0,3.978924742752202,0.0,0.0,0.0,0.0,0.0,0.0,0.0,0.0,0.0,0.0,0.0,0.0,0.0,0.0,
0.9521,3.876463889802034,3.876463889802034,4.189078792630593,0.0,0.0,0.0,3.9806688574115534,0.0,0.0,0.0,0.0,0.0,0.0,0.0,0.0,0.0,0.0,0.0,0.0,0.0,0.0,
0.9723,3.8781542616918774,3.8781542616918774,4.1910269797562645,0.0,0.0,0.0,3.98244516771334,0.0,0.0,0.0,0.0,0.0,0.0,0.0,0.0,0.0,0.0,0.0,0.0,0.0,0.0,
0.9926,3.8798922587236504,3.8798922587236504,4.193029975316751,0.0,0.0,0.0,3.984271497588017,0.0,0.0,0.0,0.0,0.0,0.0,0.0,0.0,0.0,0.0,0.0,0.0,0.0,0.0,
1.0129,3.8816698436105748,3.8816698436105748,4.19507850980655,0.0,0.0,0.0,3.9861393990092338,0.0,0.0,0.0,0.0,0.0,0.0,0.0,0.0,0.0,0.0,0.0,0.0,0.0,0.0,
1.0331,3.8834782062964774,3.8834782062964774,4.197162424541577,0.0,0.0,0.0,3.988039612378177,0.0,0.0,0.0,0.0,0.0,0.0,0.0,0.0,0.0,0.0,0.0,0.0,0.0,0.0,
1.0534,3.8853354975777026,3.8853354975777026,4.1993026294248015,0.0,0.0,0.0,3.989991208193402,0.0,0.0,0.0,0.0,0.0,0.0,0.0,0.0,0.0,0.0,0.0,0.0,0.0,0.0,
1.0736,3.887223670152186,3.887223670152186,4.201478321214376,0.0,0.0,0.0,3.9919752205062493,0.0,0.0,0.0,0.0,0.0,0.0,0.0,0.0,0.0,0.0,0.0,0.0,0.0,0.0,
1.0939,3.8891616782849643,3.8891616782849643,4.203711333225499,0.0,0.0,0.0,3.994011563265142,0.0,0.0,0.0,0.0,0.0,0.0,0.0,0.0,0.0,0.0,0.0,0.0,0.0,0.0,
1.1141,3.8911306928528253,3.8911306928528253,4.2059799627392,0.0,0.0,0.0,3.996080449481617,0.0,0.0,0.0,0.0,0.0,0.0,0.0,0.0,0.0,0.0,0.0,0.0,0.0,0.0,
1.1344,3.8931504822876035,3.8931504822876035,4.2083069784801275,0.0,0.0,0.0,3.998202647685112,0.0,0.0,0.0,0.0,0.0,0.0,0.0,0.0,0.0,0.0,0.0,0.0,0.0,0.0,
1.1547,3.8952116812989117,3.8952116812989117,4.210681581692675,0.0,0.0,0.0,4.0003683147635,0.0,0.0,0.0,0.0,0.0,0.0,0.0,0.0,0.0,0.0,0.0,0.0,0.0,0.0,
1.1749,3.8973041168116036,3.8973041168116036,4.213092045008985,0.0,0.0,0.0,4.002566759544064,0.0,0.0,0.0,0.0,0.0,0.0,0.0,0.0,0.0,0.0,0.0,0.0,0.0,0.0,
1.1952,3.8994488008636607,3.8994488008636607,4.215562565342072,0.0,0.0,0.0,4.004820055689798,0.0,0.0,0.0,0.0,0.0,0.0,0.0,0.0,0.0,0.0,0.0,0.0,0.0,0.0,
1.2154,3.9016249039101853,3.9016249039101853,4.2180691395522425,0.0,0.0,0.0,4.007106315790871,0.0,0.0,0.0,0.0,0.0,0.0,0.0,0.0,0.0,0.0,0.0,0.0,0.0,0.0,
1.2357,3.903854281480421,3.903854281480421,4.220636932796088,0.0,0.0,0.0,4.009448498585644,0.0,0.0,0.0,0.0,0.0,0.0,0.0,0.0,0.0,0.0,0.0,0.0,0.0,0.0,
1.2559,3.906115284907052,3.906115284907052,4.223241000430851,0.0,0.0,0.0,4.011823856748318,0.0,0.0,0.0,0.0,0.0,0.0,0.0,0.0,0.0,0.0,0.0,0.0,0.0,0.0,
1.2762,3.908430626022469,3.908430626022469,4.225907490178219,0.0,0.0,0.0,4.014256247407719,0.0,0.0,0.0,0.0,0.0,0.0,0.0,0.0,0.0,0.0,0.0,0.0,0.0,0.0,
1.2964,3.910777825146233,3.910777825146233,4.22861050251621,0.0,0.0,0.0,4.016722050936225,0.0,0.0,0.0,0.0,0.0,0.0,0.0,0.0,0.0,0.0,0.0,0.0,0.0,0.0,
1.3167,3.913180463886076,3.913180463886076,4.231377182775575,0.0,0.0,0.0,4.019246036849243,0.0,0.0,0.0,0.0,0.0,0.0,0.0,0.0,0.0,0.0,0.0,0.0,0.0,0.0,
1.337,3.9156273819626275,3.9156273819626275,4.234194666929945,0.0,0.0,0.0,4.0218164769517335,0.0,0.0,0.0,0.0,0.0,0.0,0.0,0.0,0.0,0.0,0.0,0.0,0.0,0.0,
1.3572,3.918106556241399,3.918106556241399,4.23704910050952,0.0,0.0,0.0,4.024420737664106,0.0,0.0,0.0,0.0,0.0,0.0,0.0,0.0,0.0,0.0,0.0,0.0,0.0,0.0,
1.3775,3.9206429008782293,3.9206429008782293,4.239969156391,0.0,0.0,0.0,4.027084986049153,0.0,0.0,0.0,0.0,0.0,0.0,0.0,0.0,0.0,0.0,0.0,0.0,0.0,0.0,
1.3977,3.9232118016472914,3.9232118016472914,4.242926483768343,0.0,0.0,0.0,4.0297833623543085,0.0,0.0,0.0,0.0,0.0,0.0,0.0,0.0,0.0,0.0,0.0,0.0,0.0,0.0,
1.418,3.9258390792607343,3.9258390792607343,4.245950794117505,0.0,0.0,0.0,4.032542984212991,0.0,0.0,0.0,0.0,0.0,0.0,0.0,0.0,0.0,0.0,0.0,0.0,0.0,0.0,
1.4382,3.9284992420573452,3.9284992420573452,4.2490127296262905,0.0,0.0,0.0,4.035337071246993,0.0,0.0,0.0,0.0,0.0,0.0,0.0,0.0,0.0,0.0,0.0,0.0,0.0,0.0,
1.4585,3.9312190333284263,3.9312190333284263,4.252143058188494,0.0,0.0,0.0,4.038193708281782,0.0,0.0,0.0,0.0,0.0,0.0,0.0,0.0,0.0,0.0,0.0,0.0,0.0,0.0,
1.4788,3.9339858145705966,3.9339858145705966,4.255327216688829,0.0,0.0,0.0,4.041099615276674,0.0,0.0,0.0,0.0,0.0,0.0,0.0,0.0,0.0,0.0,0.0,0.0,0.0,0.0,
1.499,3.936786032510218,3.936786032510218,4.258549593490276,0.0,0.0,0.0,4.044040552836904,0.0,0.0,0.0,0.0,0.0,0.0,0.0,0.0,0.0,0.0,0.0,0.0,0.0,0.0,
1.5193,3.93964784730495,3.93964784730495,4.261842577791704,0.0,0.0,0.0,4.047046090800535,0.0,0.0,0.0,0.0,0.0,0.0,0.0,0.0,0.0,0.0,0.0,0.0,0.0,0.0,
1.5395,3.942543506565236,3.942543506565236,4.265174219024992,0.0,0.0,0.0,4.050087077385155,0.0,0.0,0.0,0.0,0.0,0.0,0.0,0.0,0.0,0.0,0.0,0.0,0.0,0.0,
1.5598,3.945502136719911,3.945502136719911,4.268578011278434,0.0,0.0,0.0,4.053194094906085,0.0,0.0,0.0,0.0,0.0,0.0,0.0,0.0,0.0,0.0,0.0,0.0,0.0,0.0,
1.58,3.948495053210266,3.948495053210266,4.272020935710447,0.0,0.0,0.0,4.05633701404366,0.0,0.0,0.0,0.0,0.0,0.0,0.0,0.0,0.0,0.0,0.0,0.0,0.0,0.0,
1.6003,3.951552367758585,3.951552367758585,4.2755376123477635,0.0,0.0,0.0,4.059547449288311,0.0,0.0,0.0,0.0,0.0,0.0,0.0,0.0,0.0,0.0,0.0,0.0,0.0,0.0,
1.6206,3.9546598780716526,3.9546598780716526,4.279111682537836,0.0,0.0,0.0,4.0628104795603805,0.0,0.0,0.0,0.0,0.0,0.0,0.0,0.0,0.0,0.0,0.0,0.0,0.0,0.0,
1.6408,3.9578024058167234,3.9578024058167234,4.282725670826341,0.0,0.0,0.0,4.066110160819929,0.0,0.0,0.0,0.0,0.0,0.0,0.0,0.0,0.0,0.0,0.0,0.0,0.0,0.0,
1.6611,3.96101157969548,3.96101157969548,4.286415929310904,0.0,0.0,0.0,4.069479696233954,0.0,0.0,0.0,0.0,0.0,0.0,0.0,0.0,0.0,0.0,0.0,0.0,0.0,0.0,
1.6813,3.964256305829694,3.964256305829694,4.2901466803636925,0.0,0.0,0.0,4.07288643067436,0.0,0.0,0.0,0.0,0.0,0.0,0.0,0.0,0.0,0.0,0.0,0.0,0.0,0.0,
1.7016,3.9675692500925916,3.9675692500925916,4.293955459257537,0.0,0.0,0.0,4.076364653147574,0.0,0.0,0.0,0.0,0.0,0.0,0.0,0.0,0.0,0.0,0.0,0.0,0.0,0.0,
1.7218,3.9709183220307214,3.9709183220307214,4.2978053482607015,0.0,0.0,0.0,4.079880664107382,0.0,0.0,0.0,0.0,0.0,0.0,0.0,0.0,0.0,0.0,0.0,0.0,0.0,0.0,
1.7421,3.974337247289149,3.974337247289149,4.301735090678203,0.0,0.0,0.0,4.0834698617521665,0.0,0.0,0.0,0.0,0.0,0.0,0.0,0.0,0.0,0.0,0.0,0.0,0.0,0.0,
1.7624,3.9778101596672792,3.9778101596672792,4.305726419711305,0.0,0.0,0.0,4.087115579681954,0.0,0.0,0.0,0.0,0.0,0.0,0.0,0.0,0.0,0.0,0.0,0.0,0.0,0.0,
1.7826,3.9813201446488975,3.9813201446488975,4.3097598715792556,0.0,0.0,0.0,4.090800053625684,0.0,0.0,0.0,0.0,0.0,0.0,0.0,0.0,0.0,0.0,0.0,0.0,0.0,0.0,
1.8029,3.9849025638167586,3.9849025638167586,4.313876052473641,0.0,0.0,0.0,4.094560393369053,0.0,0.0,0.0,0.0,0.0,0.0,0.0,0.0,0.0,0.0,0.0,0.0,0.0,0.0,
1.8231,3.9885227425805487,3.9885227425805487,4.318035091313692,0.0,0.0,0.0,4.098360192158263,0.0,0.0,0.0,0.0,0.0,0.0,0.0,0.0,0.0,0.0,0.0,0.0,0.0,0.0,
1.8434,3.9922171640100057,3.9922171640100057,4.322278869956381,0.0,0.0,0.0,4.102237732658797,0.0,0.0,0.0,0.0,0.0,0.0,0.0,0.0,0.0,0.0,0.0,0.0,0.0,0.0,
1.8636,3.995950081150496,3.995950081150496,4.326566293050902,0.0,0.0,0.0,4.1061554851172986,0.0,0.0,0.0,0.0,0.0,0.0,0.0,0.0,0.0,0.0,0.0,0.0,0.0,0.0,
1.8839,3.9997591254904425,3.9997591254904425,4.330940547520674,0.0,0.0,0.0,4.110152932833853,0.0,0.0,0.0,0.0,0.0,0.0,0.0,0.0,0.0,0.0,0.0,0.0,0.0,0.0,
1.9042,4.003626650008966,4.003626650008966,4.335381327211499,0.0,0.0,0.0,4.1142115424098105,0.0,0.0,0.0,0.0,0.0,0.0,0.0,0.0,0.0,0.0,0.0,0.0,0.0,0.0,
1.9244,4.00753387398169,4.00753387398169,4.339867034772383,0.0,0.0,0.0,4.118311594245255,0.0,0.0,0.0,0.0,0.0,0.0,0.0,0.0,0.0,0.0,0.0,0.0,0.0,0.0,
1.9447,4.011520206613682,4.011520206613682,4.344442874760848,0.0,0.0,0.0,4.122494429329404,0.0,0.0,0.0,0.0,0.0,0.0,0.0,0.0,0.0,0.0,0.0,0.0,0.0,0.0,
1.9649,4.015547110957177,4.015547110957177,4.349064570420642,0.0,0.0,0.0,4.126719597444999,0.0,0.0,0.0,0.0,0.0,0.0,0.0,0.0,0.0,0.0,0.0,0.0,0.0,0.0,
1.9852,4.019655218354128,4.019655218354128,4.353778711494758,0.0,0.0,0.0,4.131029716067672,0.0,0.0,0.0,0.0,0.0,0.0,0.0,0.0,0.0,0.0,0.0,0.0,0.0,0.0,
2.0054,4.023804830157561,4.023804830157561,4.358539698236902,0.0,0.0,0.0,4.135383119517341,0.0,0.0,0.0,0.0,0.0,0.0,0.0,0.0,0.0,0.0,0.0,0.0,0.0,0.0,
2.0257,4.028037832105403,4.028037832105403,4.363395540468403,0.0,0.0,0.0,4.13982373489307,0.0,0.0,0.0,0.0,0.0,0.0,0.0,0.0,0.0,0.0,0.0,0.0,0.0,0.0,
2.046,4.032334659923366,4.032334659923366,4.368323739885337,0.0,0.0,0.0,4.14433101991069,0.0,0.0,0.0,0.0,0.0,0.0,0.0,0.0,0.0,0.0,0.0,0.0,0.0,0.0,
2.0662,4.036674514429139,4.036674514429139,4.373300396038216,0.0,0.0,0.0,4.148883141632164,0.0,0.0,0.0,0.0,0.0,0.0,0.0,0.0,0.0,0.0,0.0,0.0,0.0,0.0,
2.0865,4.0411012289339805,4.0411012289339805,4.378375720059122,0.0,0.0,0.0,4.153526059309027,0.0,0.0,0.0,0.0,0.0,0.0,0.0,0.0,0.0,0.0,0.0,0.0,0.0,0.0,
2.1067,4.045572071798521,4.045572071798521,4.383500663018568,0.0,0.0,0.0,4.1582149355385365,0.0,0.0,0.0,0.0,0.0,0.0,0.0,0.0,0.0,0.0,0.0,0.0,0.0,0.0,
2.127,4.050132219340009,4.050132219340009,4.388726951435489,0.0,0.0,0.0,4.1629971300385025,0.0,0.0,0.0,0.0,0.0,0.0,0.0,0.0,0.0,0.0,0.0,0.0,0.0,0.0,
2.1472,4.054737672586949,4.054737672586949,4.394004097323268,0.0,0.0,0.0,4.167826480832389,0.0,0.0,0.0,0.0,0.0,0.0,0.0,0.0,0.0,0.0,0.0,0.0,0.0,0.0,
2.1675,4.059434989790228,4.059434989790228,4.39938538420556,0.0,0.0,0.0,4.172751787928672,0.0,0.0,0.0,0.0,0.0,0.0,0.0,0.0,0.0,0.0,0.0,0.0,0.0,0.0,
2.1878,4.064202530191263,4.064202530191263,4.404845943597009,0.0,0.0,0.0,4.177750334659845,0.0,0.0,0.0,0.0,0.0,0.0,0.0,0.0,0.0,0.0,0.0,0.0,0.0,0.0,
2.208,4.069017297585772,4.069017297585772,4.410359373741764,0.0,0.0,0.0,4.182797989637769,0.0,0.0,0.0,0.0,0.0,0.0,0.0,0.0,0.0,0.0,0.0,0.0,0.0,0.0,
2.2283,4.073928002818346,4.073928002818346,4.415981378585677,0.0,0.0,0.0,4.18794579474079,0.0,0.0,0.0,0.0,0.0,0.0,0.0,0.0,0.0,0.0,0.0,0.0,0.0,0.0,
2.2485,4.078887325986928,4.078887325986928,4.421657705590794,0.0,0.0,0.0,4.193144119188217,0.0,0.0,0.0,0.0,0.0,0.0,0.0,0.0,0.0,0.0,0.0,0.0,0.0,0.0,
2.2688,4.0839454673075615,4.0839454673075615,4.427445729747699,0.0,0.0,0.0,4.198445554787607,0.0,0.0,0.0,0.0,0.0,0.0,0.0,0.0,0.0,0.0,0.0,0.0,0.0,0.0,
2.289,4.08905371408828,4.08905371408828,4.4332896225045015,0.0,0.0,0.0,4.203799016893687,0.0,0.0,0.0,0.0,0.0,0.0,0.0,0.0,0.0,0.0,0.0,0.0,0.0,0.0,
2.3093,4.094263803363016,4.094263803363016,4.439248479866,0.0,0.0,0.0,4.209258695530678,0.0,0.0,0.0,0.0,0.0,0.0,0.0,0.0,0.0,0.0,0.0,0.0,0.0,0.0,
2.3296,4.099551831991814,4.099551831991814,4.445294855428125,0.0,0.0,0.0,4.214799506470585,0.0,0.0,0.0,0.0,0.0,0.0,0.0,0.0,0.0,0.0,0.0,0.0,0.0,0.0,
2.3498,4.1048923968864575,4.1048923968864575,4.451399613781678,0.0,0.0,0.0,4.220394802518197,0.0,0.0,0.0,0.0,0.0,0.0,0.0,0.0,0.0,0.0,0.0,0.0,0.0,0.0,
2.3701,4.110339637642647,4.110339637642647,4.45762453448504,0.0,0.0,0.0,4.226101269923444,0.0,0.0,0.0,0.0,0.0,0.0,0.0,0.0,0.0,0.0,0.0,0.0,0.0,0.0,
2.3903,4.115841177739441,4.115841177739441,4.463909651454616,0.0,0.0,0.0,4.231864002311165,0.0,0.0,0.0,0.0,0.0,0.0,0.0,0.0,0.0,0.0,0.0,0.0,0.0,0.0,
2.4106,4.121452825367334,4.121452825367334,4.470318602742795,0.0,0.0,0.0,4.237741417825821,0.0,0.0,0.0,0.0,0.0,0.0,0.0,0.0,0.0,0.0,0.0,0.0,0.0,0.0,
2.4308,4.127120661387314,4.127120661387314,4.4767896838752375,0.0,0.0,0.0,4.243677002216622,0.0,0.0,0.0,0.0,0.0,0.0,0.0,0.0,0.0,0.0,0.0,0.0,0.0,0.0,
2.4511,4.13290222118248,4.13290222118248,4.483388451899046,0.0,0.0,0.0,4.249730964754669,0.0,0.0,0.0,0.0,0.0,0.0,0.0,0.0,0.0,0.0,0.0,0.0,0.0,0.0,
2.4714,4.138771122301378,4.138771122301378,4.490084639593334,0.0,0.0,0.0,4.255875628065364,0.0,0.0,0.0,0.0,0.0,0.0,0.0,0.0,0.0,0.0,0.0,0.0,0.0,0.0,
2.4916,4.14469930768076,4.14469930768076,4.496846104613061,0.0,0.0,0.0,4.262081573324861,0.0,0.0,0.0,0.0,0.0,0.0,0.0,0.0,0.0,0.0,0.0,0.0,0.0,0.0,
2.5119,4.150747024124059,4.150747024124059,4.503741406220399,0.0,0.0,0.0,4.2684118181561725,0.0,0.0,0.0,0.0,0.0,0.0,0.0,0.0,0.0,0.0,0.0,0.0,0.0,0.0,
2.5321,4.1568562778709115,4.1568562778709115,4.510704258942598,0.0,0.0,0.0,4.274805604894807,0.0,0.0,0.0,0.0,0.0,0.0,0.0,0.0,0.0,0.0,0.0,0.0,0.0,0.0,
2.5524,4.163089207032449,4.163089207032449,4.517805308323198,0.0,0.0,0.0,4.281327907462699,0.0,0.0,0.0,0.0,0.0,0.0,0.0,0.0,0.0,0.0,0.0,0.0,0.0,0.0,
2.5726,4.169386095167148,4.169386095167148,4.5249763368559455,0.0,0.0,0.0,4.287916175730081,0.0,0.0,0.0,0.0,0.0,0.0,0.0,0.0,0.0,0.0,0.0,0.0,0.0,0.0,
2.5929,4.17581104534599,4.17581104534599,4.532290150373152,0.0,0.0,0.0,4.294637413688377,0.0,0.0,0.0,0.0,0.0,0.0,0.0,0.0,0.0,0.0,0.0,0.0,0.0,0.0,
2.6132,4.182334943450318,4.182334943450318,4.539713376158458,0.0,0.0,0.0,4.301461087686365,0.0,0.0,0.0,0.0,0.0,0.0,0.0,0.0,0.0,0.0,0.0,0.0,0.0,0.0,
2.6334,4.188926787496839,4.188926787496839,4.5472105422489815,0.0,0.0,0.0,4.308354705747553,0.0,0.0,0.0,0.0,0.0,0.0,0.0,0.0,0.0,0.0,0.0,0.0,0.0,0.0,
2.6537,4.1956537804455944,4.1956537804455944,4.554857846606589,0.0,0.0,0.0,4.315388469165926,0.0,0.0,0.0,0.0,0.0,0.0,0.0,0.0,0.0,0.0,0.0,0.0,0.0,0.0,
