energies(eV),real_xx,real_yy,real_zz,real_xy,real_yz,real_xz,real_ave,imag_xx,imag_yy,imag_zz,imag_xy,imag_yz,imag_xz,imag_ave,absorption_xx,absorption_yy,absorption_zz,absorption_xy,absorption_yz,absorption_xz,absorption_ave,band_gap
0.0,6.140313500301447,5.491309195223087,5.5794984556022795,0.0,0.0,0.586840794380057,5.737040383708938,0.0,0.0,0.0,0.0,0.0,0.0,0.0,0.0,0.0,0.0,0.0,0.0,0.0,0.0,2.2632000000000003
0.0186,6.140382808055444,5.491352259223332,5.579547205472158,0.0,0.0,0.5868573867329006,5.737094090916979,0.0,0.0,0.0,0.0,0.0,0.0,0.0,0.0,0.0,0.0,0.0,0.0,0.0,0.0,
0.0371,6.140589265624445,5.491480535182128,5.579692419450606,0.0,0.0,0.586906814114381,5.737254073419059,0.0,0.0,0.0,0.0,0.0,0.0,0.0,0.0,0.0,0.0,0.0,0.0,0.0,0.0,
0.0557,6.140935173818728,5.49169543650259,5.579935701674489,0.0,0.0,0.5869896310131322,5.737522103998603,0.0,0.0,0.0,0.0,0.0,0.0,0.0,0.0,0.0,0.0,0.0,0.0,0.0,0.0,
0.0743,6.141419904665251,5.4919965459671705,5.580276586711832,0.0,0.0,0.5871056932200064,5.737897679114751,0.0,0.0,0.0,0.0,0.0,0.0,0.0,0.0,0.0,0.0,0.0,0.0,0.0,0.0,
0.0929,6.142043619850763,5.4923839261005405,5.580715154984574,0.0,0.0,0.5872550480415434,5.7383809003119595,0.0,0.0,0.0,0.0,0.0,0.0,0.0,0.0,0.0,0.0,0.0,0.0,0.0,0.0,
0.1114,6.142802053394695,5.492854879411742,5.581248364743782,0.0,0.0,0.5874366848097713,5.73896843251674,0.0,0.0,0.0,0.0,0.0,0.0,0.0,0.0,0.0,0.0,0.0,0.0,0.0,0.0,
0.13,6.143703658399291,5.493414595329753,5.58188210655392,0.0,0.0,0.5876526414400314,5.739666786760988,0.0,0.0,0.0,0.0,0.0,0.0,0.0,0.0,0.0,0.0,0.0,0.0,0.0,0.0,
0.1486,6.144745011547277,5.4940608769093595,5.5826139111288,0.0,0.0,0.5879021141980447,5.740473266528479,0.0,0.0,0.0,0.0,0.0,0.0,0.0,0.0,0.0,0.0,0.0,0.0,0.0,0.0,
0.1671,6.145919735086545,5.494789686050083,5.583439226292945,0.0,0.0,0.5881835932678906,5.7413828824765245,0.0,0.0,0.0,0.0,0.0,0.0,0.0,0.0,0.0,0.0,0.0,0.0,0.0,0.0,
0.1857,6.147240924079927,5.495609054074632,5.584367170423739,0.0,0.0,0.5885002373972661,5.742405716192766,0.0,0.0,0.0,0.0,0.0,0.0,0.0,0.0,0.0,0.0,0.0,0.0,0.0,0.0,
0.2043,6.148703050915978,5.4965154460237935,5.585393767223691,0.0,0.0,0.5888507459218055,5.7435374213878205,0.0,0.0,0.0,0.0,0.0,0.0,0.0,0.0,0.0,0.0,0.0,0.0,0.0,0.0,
0.2229,6.150306609729623,5.497509051802042,5.586519261262034,0.0,0.0,0.5892352635364785,5.7447783075979,0.0,0.0,0.0,0.0,0.0,0.0,0.0,0.0,0.0,0.0,0.0,0.0,0.0,0.0,
0.2414,6.1520423788279714,5.4985840338893075,5.587737071413486,0.0,0.0,0.5896516067732169,5.746121161376922,0.0,0.0,0.0,0.0,0.0,0.0,0.0,0.0,0.0,0.0,0.0,0.0,0.0,0.0,
0.26,6.153929714060883,5.499752240098546,5.589060654916182,0.0,0.0,0.5901044497017035,5.747580869691871,0.0,0.0,0.0,0.0,0.0,0.0,0.0,0.0,0.0,0.0,0.0,0.0,0.0,0.0,
0.2786,6.155960259077903,5.5010083412982596,5.590484013434845,0.0,0.0,0.5905918225169654,5.749150871270335,0.0,0.0,0.0,0.0,0.0,0.0,0.0,0.0,0.0,0.0,0.0,0.0,0.0,0.0,
0.2971,6.158122632731235,5.502345139665536,5.591999030410687,0.0,0.0,0.5911110287785376,5.750822267602486,0.0,0.0,0.0,0.0,0.0,0.0,0.0,0.0,0.0,0.0,0.0,0.0,0.0,0.0,
0.3157,6.160440956370496,5.503777370783129,5.5936224503917655,0.0,0.0,0.5916678997253397,5.75261359251513,0.0,0.0,0.0,0.0,0.0,0.0,0.0,0.0,0.0,0.0,0.0,0.0,0.0,0.0,
0.3343,6.162904729712848,5.505298350534298,5.5953467466247835,0.0,0.0,0.5922599571901865,5.75451660895731,0.0,0.0,0.0,0.0,0.0,0.0,0.0,0.0,0.0,0.0,0.0,0.0,0.0,0.0,
0.3529,6.165514807662503,5.506908403399777,5.597172338049578,0.0,0.0,0.5928874519211128,5.756531849703953,0.0,0.0,0.0,0.0,0.0,0.0,0.0,0.0,0.0,0.0,0.0,0.0,0.0,0.0,
0.3714,6.168256880863465,5.50859849735709,5.599089034983423,0.0,0.0,0.5935469893894423,5.758648137734659,0.0,0.0,0.0,0.0,0.0,0.0,0.0,0.0,0.0,0.0,0.0,0.0,0.0,0.0,
0.39,6.171161555281218,5.510387267066625,5.601118028080694,0.0,0.0,0.5942459820420746,5.760888950142846,0.0,0.0,0.0,0.0,0.0,0.0,0.0,0.0,0.0,0.0,0.0,0.0,0.0,0.0,
0.4086,6.174215429060119,5.512266203244879,5.603249729404972,0.0,0.0,0.5949812615421604,5.763243787236656,0.0,0.0,0.0,0.0,0.0,0.0,0.0,0.0,0.0,0.0,0.0,0.0,0.0,0.0,
0.4272,6.177419584550282,5.514235712601316,5.605484665129058,0.0,0.0,0.5957531457567938,5.765713320760219,0.0,0.0,0.0,0.0,0.0,0.0,0.0,0.0,0.0,0.0,0.0,0.0,0.0,0.0,
0.4457,6.180756716484496,5.516284901097042,5.607810537077924,0.0,0.0,0.5965575224193009,5.768284051553155,0.0,0.0,0.0,0.0,0.0,0.0,0.0,0.0,0.0,0.0,0.0,0.0,0.0,0.0,
0.4643,6.184264100424803,5.518436369845558,5.61025306973161,0.0,0.0,0.5974034397179528,5.77098451333399,0.0,0.0,0.0,0.0,0.0,0.0,0.0,0.0,0.0,0.0,0.0,0.0,0.0,0.0,
0.4829,6.187925372675221,5.520679758937477,5.612800581762381,0.0,0.0,0.5982870217205543,5.7738019044583595,0.0,0.0,0.0,0.0,0.0,0.0,0.0,0.0,0.0,0.0,0.0,0.0,0.0,0.0,
0.5014,6.191720928464689,5.523002756542939,5.615439166452327,0.0,0.0,0.5992036025338596,5.776720950486652,0.0,0.0,0.0,0.0,0.0,0.0,0.0,0.0,0.0,0.0,0.0,0.0,0.0,0.0,
0.52,6.195693192306654,5.525430990929377,5.618198017134296,0.0,0.0,0.6001635005850593,5.779774066790108,0.0,0.0,0.0,0.0,0.0,0.0,0.0,0.0,0.0,0.0,0.0,0.0,0.0,0.0,
0.5386,6.1998235319746025,5.52795269459909,5.621063857504264,0.0,0.0,0.6011622955484435,5.782946694692652,0.0,0.0,0.0,0.0,0.0,0.0,0.0,0.0,0.0,0.0,0.0,0.0,0.0,0.0,
0.5572,6.204113483513826,5.530568431727408,5.6240374208336545,0.0,0.0,0.6022004398039513,5.7862397786916295,0.0,0.0,0.0,0.0,0.0,0.0,0.0,0.0,0.0,0.0,0.0,0.0,0.0,0.0,
0.5757,6.208540290210786,5.533263964887857,5.6271026109192395,0.0,0.0,0.6032725043661354,5.78963562200596,0.0,0.0,0.0,0.0,0.0,0.0,0.0,0.0,0.0,0.0,0.0,0.0,0.0,0.0,
0.5943,6.213153484510443,5.536069045443086,5.630293359639316,0.0,0.0,0.6043905729054595,5.793171963197615,0.0,0.0,0.0,0.0,0.0,0.0,0.0,0.0,0.0,0.0,0.0,0.0,0.0,0.0,
0.6129,6.217931331762494,5.538969996323949,5.633594222590384,0.0,0.0,0.6055494767884013,5.796831850225608,0.0,0.0,0.0,0.0,0.0,0.0,0.0,0.0,0.0,0.0,0.0,0.0,0.0,0.0,
0.6314,6.222848639404587,5.541951107098899,5.636987424590266,0.0,0.0,0.6067431937267614,5.800595723697917,0.0,0.0,0.0,0.0,0.0,0.0,0.0,0.0,0.0,0.0,0.0,0.0,0.0,0.0,
0.65,6.227960478976524,5.545045293751486,5.64051054654043,0.0,0.0,0.607985193071054,5.804505439756146,0.0,0.0,0.0,0.0,0.0,0.0,0.0,0.0,0.0,0.0,0.0,0.0,0.0,0.0,
0.6686,6.2332427240721175,5.54823742019651,5.644146483802716,0.0,0.0,0.6092697260716687,5.808542209357114,0.0,0.0,0.0,0.0,0.0,0.0,0.0,0.0,0.0,0.0,0.0,0.0,0.0,0.0,
0.6872,6.238697466605003,5.551528232167487,5.647896211517679,0.0,0.0,0.6105974109554413,5.812707303430057,0.0,0.0,0.0,0.0,0.0,0.0,0.0,0.0,0.0,0.0,0.0,0.0,0.0,0.0,
0.7057,6.2442961523170695,5.5549000092942435,5.651739657248456,0.0,0.0,0.6119614012264291,5.81697860628659,0.0,0.0,0.0,0.0,0.0,0.0,0.0,0.0,0.0,0.0,0.0,0.0,0.0,0.0,
0.7243,6.250101573458257,5.558390003024966,5.655719419712886,0.0,0.0,0.6133771131110788,5.8214036653987025,0.0,0.0,0.0,0.0,0.0,0.0,0.0,0.0,0.0,0.0,0.0,0.0,0.0,0.0,
0.7429,6.256086311561893,5.5619810889267,5.659816126085201,0.0,0.0,0.614837994516191,5.825961175524598,0.0,0.0,0.0,0.0,0.0,0.0,0.0,0.0,0.0,0.0,0.0,0.0,0.0,0.0,
0.7614,6.262219196777271,5.565654001893314,5.66400793313293,0.0,0.0,0.6163365532003684,5.830627043934505,0.0,0.0,0.0,0.0,0.0,0.0,0.0,0.0,0.0,0.0,0.0,0.0,0.0,0.0,
0.78,6.2685690977219926,5.569449340801768,5.668341329890476,0.0,0.0,0.6178897506180236,5.835453256138078,0.0,0.0,0.0,0.0,0.0,0.0,0.0,0.0,0.0,0.0,0.0,0.0,0.0,0.0,
0.7986,6.275106041955467,5.573348455111422,5.672795197947376,0.0,0.0,0.6194904074285906,5.840416565004755,0.0,0.0,0.0,0.0,0.0,0.0,0.0,0.0,0.0,0.0,0.0,0.0,0.0,0.0,
0.8172,6.281832830162805,5.57735230650275,5.677370804464253,0.0,0.0,0.6211393546591408,5.84551864704327,0.0,0.0,0.0,0.0,0.0,0.0,0.0,0.0,0.0,0.0,0.0,0.0,0.0,0.0,
0.8357,6.288714658346125,5.581439512076961,5.68204387063639,0.0,0.0,0.6228281962529758,5.8507326803531585,0.0,0.0,0.0,0.0,0.0,0.0,0.0,0.0,0.0,0.0,0.0,0.0,0.0,0.0,
0.8543,6.295828952185257,5.585655284805657,5.686866272665788,0.0,0.0,0.62457608940792,5.856116836552235,0.0,0.0,0.0,0.0,0.0,0.0,0.0,0.0,0.0,0.0,0.0,0.0,0.0,0.0,
0.8729,6.303142202278433,5.589978884903213,5.691814495438606,0.0,0.0,0.6263749802041282,5.861645194206751,0.0,0.0,0.0,0.0,0.0,0.0,0.0,0.0,0.0,0.0,0.0,0.0,0.0,0.0,
0.8914,6.310616758242435,5.594387294112204,5.69686237290793,0.0,0.0,0.6282157593030466,5.867288808420856,0.0,0.0,0.0,0.0,0.0,0.0,0.0,0.0,0.0,0.0,0.0,0.0,0.0,0.0,
0.91,6.318336852152166,5.5989293104798765,5.702065988109296,0.0,0.0,0.6301193468210126,5.8731107169137795,0.0,0.0,0.0,0.0,0.0,0.0,0.0,0.0,0.0,0.0,0.0,0.0,0.0,0.0,
0.9286,6.326266214425959,5.603582583403632,5.70739997232465,0.0,0.0,0.632077001544152,5.879082923384748,0.0,0.0,0.0,0.0,0.0,0.0,0.0,0.0,0.0,0.0,0.0,0.0,0.0,0.0,
0.9472,6.334408584068731,5.608348339249205,5.712865956756983,0.0,0.0,0.6340898378891406,5.885207626691639,0.0,0.0,0.0,0.0,0.0,0.0,0.0,0.0,0.0,0.0,0.0,0.0,0.0,0.0,
0.9657,6.342722329979586,5.613201306975822,5.718435165980613,0.0,0.0,0.6361477411288813,5.891452934312007,0.0,0.0,0.0,0.0,0.0,0.0,0.0,0.0,0.0,0.0,0.0,0.0,0.0,0.0,
0.9843,6.351301377011378,5.618195258875337,5.724169552468218,0.0,0.0,0.6382741665571634,5.897888729451644,0.0,0.0,0.0,0.0,0.0,0.0,0.0,0.0,0.0,0.0,0.0,0.0,0.0,0.0,
1.0029,6.360105611651606,5.623305629153733,5.730041190042438,0.0,0.0,0.640459408899355,5.904484143615925,0.0,0.0,0.0,0.0,0.0,0.0,0.0,0.0,0.0,0.0,0.0,0.0,0.0,0.0,
1.0214,6.36909026517365,5.628505398810928,5.736019270776131,0.0,0.0,0.6426925546592765,5.911204978253569,0.0,0.0,0.0,0.0,0.0,0.0,0.0,0.0,0.0,0.0,0.0,0.0,0.0,0.0,
1.04,6.378357062535385,5.6338522314775075,5.742170366521462,0.0,0.0,0.6449991197323749,5.918126553511452,0.0,0.0,0.0,0.0,0.0,0.0,0.0,0.0,0.0,0.0,0.0,0.0,0.0,0.0,
1.0586,6.38786287500769,5.639319845783437,5.748464563701717,0.0,0.0,0.64736863714071,5.925215761497614,0.0,0.0,0.0,0.0,0.0,0.0,0.0,0.0,0.0,0.0,0.0,0.0,0.0,0.0,
1.0772,6.397612730708413,5.644909802349016,5.754903962072263,0.0,0.0,0.6498026127206402,5.932475498376564,0.0,0.0,0.0,0.0,0.0,0.0,0.0,0.0,0.0,0.0,0.0,0.0,0.0,0.0,
1.0957,6.407557446137976,5.6505926626173775,5.7614549287968915,0.0,0.0,0.6522889999902349,5.939868345850748,0.0,0.0,0.0,0.0,0.0,0.0,0.0,0.0,0.0,0.0,0.0,0.0,0.0,0.0,
1.1143,6.417809993363017,5.656431528386863,5.7681905343055275,0.0,0.0,0.6548563167853425,5.94747735201847,0.0,0.0,0.0,0.0,0.0,0.0,0.0,0.0,0.0,0.0,0.0,0.0,0.0,0.0,
1.1329,6.428323025474282,5.662397748564945,5.775078110189759,0.0,0.0,0.6574930228060786,5.955266294742995,0.0,0.0,0.0,0.0,0.0,0.0,0.0,0.0,0.0,0.0,0.0,0.0,0.0,0.0,
1.1514,6.4390438594234585,5.6684599981602375,5.782081811886759,0.0,0.0,0.6601861662623469,5.963195223156819,0.0,0.0,0.0,0.0,0.0,0.0,0.0,0.0,0.0,0.0,0.0,0.0,0.0,0.0,
1.17,6.450094638073837,5.674685665449067,5.789279869045307,0.0,0.0,0.6629667382186543,5.971353390856071,0.0,0.0,0.0,0.0,0.0,0.0,0.0,0.0,0.0,0.0,0.0,0.0,0.0,0.0,
1.1886,6.461424693482164,5.681044256125683,5.7966374629564275,0.0,0.0,0.6658223473645215,5.979702137521425,0.0,0.0,0.0,0.0,0.0,0.0,0.0,0.0,0.0,0.0,0.0,0.0,0.0,0.0,
1.2072,6.473040894603599,5.687537766099618,5.804157316843864,0.0,0.0,0.6687550611059376,5.988245325849028,0.0,0.0,0.0,0.0,0.0,0.0,0.0,0.0,0.0,0.0,0.0,0.0,0.0,0.0,
1.2257,6.484885609268688,5.694132246515997,5.811800496555335,0.0,0.0,0.6717506371834008,5.996939450780007,0.0,0.0,0.0,0.0,0.0,0.0,0.0,0.0,0.0,0.0,0.0,0.0,0.0,0.0,
1.2443,6.497094394525554,5.70090112461564,5.819652558088997,0.0,0.0,0.6748437226210175,6.005882692410064,0.0,0.0,0.0,0.0,0.0,0.0,0.0,0.0,0.0,0.0,0.0,0.0,0.0,0.0,
1.2629,6.509611925213785,5.707811349364281,5.827675689733494,0.0,0.0,0.6780207246228398,6.015032988103854,0.0,0.0,0.0,0.0,0.0,0.0,0.0,0.0,0.0,0.0,0.0,0.0,0.0,0.0,
1.2815,6.522446495456241,5.714865228818398,5.835873070229906,0.0,0.0,0.6812841467319681,6.024394931501515,0.0,0.0,0.0,0.0,0.0,0.0,0.0,0.0,0.0,0.0,0.0,0.0,0.0,0.0,
1.3,6.535535171145183,5.7220260540862755,5.844202499458394,0.0,0.0,0.6846183521052684,6.033921241563284,0.0,0.0,0.0,0.0,0.0,0.0,0.0,0.0,0.0,0.0,0.0,0.0,0.0,0.0,
1.3186,6.549028556048172,5.729373714727471,5.85275745179438,0.0,0.0,0.688062138328835,6.043719907523342,0.0,0.0,0.0,0.0,0.0,0.0,0.0,0.0,0.0,0.0,0.0,0.0,0.0,0.0,
1.3372,6.562866396134326,5.7368724801424635,5.8614969671851815,0.0,0.0,0.6916006320278216,6.05374528115399,0.0,0.0,0.0,0.0,0.0,0.0,0.0,0.0,0.0,0.0,0.0,0.0,0.0,0.0,
1.3557,6.576981531939608,5.744483473626178,5.870376269568083,0.0,0.0,0.6952170769081817,6.063947091711289,0.0,0.0,0.0,0.0,0.0,0.0,0.0,0.0,0.0,0.0,0.0,0.0,0.0,0.0,
1.3743,6.591537152744728,5.752291750882436,5.879495224492535,0.0,0.0,0.6989537786430486,6.0744413760399,0.0,0.0,0.0,0.0,0.0,0.0,0.0,0.0,0.0,0.0,0.0,0.0,0.0,0.0,
1.3929,6.60646913015028,5.760259484718932,5.8888104017243785,0.0,0.0,0.7027948518825836,6.085179672197864,0.0,0.0,0.0,0.0,0.0,0.0,0.0,0.0,0.0,0.0,0.0,0.0,0.0,0.0,
1.4115,6.621789278816513,5.768389688903561,5.898326033429716,0.0,0.0,0.7067438806725226,6.096168333716597,0.0,0.0,0.0,0.0,0.0,0.0,0.0,0.0,0.0,0.0,0.0,0.0,0.0,0.0,
1.43,6.637424449085641,5.776640449901857,5.907993720898866,0.0,0.0,0.7107825111318625,6.107352873295454,0.0,0.0,0.0,0.0,0.0,0.0,0.0,0.0,0.0,0.0,0.0,0.0,0.0,0.0,
1.4486,6.653556771044522,5.78510421515787,5.917922573048609,0.0,0.0,0.7149583840287032,6.118861186417,0.0,0.0,0.0,0.0,0.0,0.0,0.0,0.0,0.0,0.0,0.0,0.0,0.0,0.0,
1.4672,6.67011672479845,5.793740234076071,5.928065708596195,0.0,0.0,0.7192542001155945,6.130640889156905,0.0,0.0,0.0,0.0,0.0,0.0,0.0,0.0,0.0,0.0,0.0,0.0,0.0,0.0,
1.4857,6.687026400346832,5.802504198172778,5.938371862354537,0.0,0.0,0.7236503285777086,6.142634153624716,0.0,0.0,0.0,0.0,0.0,0.0,0.0,0.0,0.0,0.0,0.0,0.0,0.0,0.0,
1.5043,6.704484108295646,5.811494530804597,5.9489577051773335,0.0,0.0,0.7281990144650297,6.154978781425858,0.0,0.0,0.0,0.0,0.0,0.0,0.0,0.0,0.0,0.0,0.0,0.0,0.0,0.0,
1.5229,6.72241615031384,5.820668188860317,5.959773647560904,0.0,0.0,0.7328818604570068,6.167619328911687,0.0,0.0,0.0,0.0,0.0,0.0,0.0,0.0,0.0,0.0,0.0,0.0,0.0,0.0,
1.5415,6.740840035387649,5.830029195529144,5.9708254802007446,0.0,0.0,0.7377042036312789,6.180564903705846,0.0,0.0,0.0,0.0,0.0,0.0,0.0,0.0,0.0,0.0,0.0,0.0,0.0,0.0,
1.56,6.7596711633309,5.839529875653156,5.98205789922466,0.0,0.0,0.74264461061554,6.193752979402905,0.0,0.0,0.0,0.0,0.0,0.0,0.0,0.0,0.0,0.0,0.0,0.0,0.0,0.0,
1.5786,6.779132796276132,5.849277311891349,5.993598682361699,0.0,0.0,0.7477624987212002,6.207336263509727,0.0,0.0,0.0,0.0,0.0,0.0,0.0,0.0,0.0,0.0,0.0,0.0,0.0,0.0,
1.5972,6.79914557754131,5.859225261620845,6.005394466273084,0.0,0.0,0.7530379857675733,6.221255101811747,0.0,0.0,0.0,0.0,0.0,0.0,0.0,0.0,0.0,0.0,0.0,0.0,0.0,0.0,
1.6157,6.819619682972637,5.869323387886005,6.017386752099055,0.0,0.0,0.758448227455932,6.235443274319233,0.0,0.0,0.0,0.0,0.0,0.0,0.0,0.0,0.0,0.0,0.0,0.0,0.0,0.0,
1.6343,6.840800282326837,5.879685873273987,6.0297125639220255,0.0,0.0,0.7640589997770586,6.25006623984095,0.0,0.0,0.0,0.0,0.0,0.0,0.0,0.0,0.0,0.0,0.0,0.0,0.0,0.0,
1.6529,6.862603842391632,5.890263968607813,6.042315596576414,0.0,0.0,0.7698493326139071,6.26506113585862,0.0,0.0,0.0,0.0,0.0,0.0,0.0,0.0,0.0,0.0,0.0,0.0,0.0,0.0,
1.6715,6.885057734301256,5.901063212633095,6.055204084505228,0.0,0.0,0.7758276067685992,6.280441677146526,0.0,0.0,0.0,0.0,0.0,0.0,0.0,0.0,0.0,0.0,0.0,0.0,0.0,0.0,
1.69,6.908065048564915,5.912029523400288,6.068315045460358,0.0,0.0,0.7819690669433291,6.2961365391418544,0.0,0.0,0.0,0.0,0.0,0.0,0.0,0.0,0.0,0.0,0.0,0.0,0.0,0.0,
1.7086,6.931905858259142,5.9232875407661885,6.081799368525524,0.0,0.0,0.7883497165417765,6.312330922516952,0.0,0.0,0.0,0.0,0.0,0.0,0.0,0.0,0.0,0.0,0.0,0.0,0.0,0.0,
1.7272,6.956491502144568,5.934785032664939,6.095596707960526,0.0,0.0,0.794947278843879,6.32895774759001,0.0,0.0,0.0,0.0,0.0,0.0,0.0,0.0,0.0,0.0,0.0,0.0,0.0,0.0,
1.7457,6.981719899104218,5.946464961232055,6.109640570038761,0.0,0.0,0.801735615312294,6.345941810125011,0.0,0.0,0.0,0.0,0.0,0.0,0.0,0.0,0.0,0.0,0.0,0.0,0.0,0.0,
1.7643,7.007902943400528,5.958460701586995,6.124093668660392,0.0,0.0,0.808800137447111,6.363485771215973,0.0,0.0,0.0,0.0,0.0,0.0,0.0,0.0,0.0,0.0,0.0,0.0,0.0,0.0,
1.7829,7.034948910329614,5.97071731891428,6.138892592246183,0.0,0.0,0.816117837033509,6.3815196071633595,0.0,0.0,0.0,0.0,0.0,0.0,0.0,0.0,0.0,0.0,0.0,0.0,0.0,0.0,
1.8015,7.062903850454396,5.983242771463581,6.154049712831394,0.0,0.0,0.8237028712813241,6.400065444916457,0.0,0.0,0.0,0.0,0.0,0.0,0.0,0.0,0.0,0.0,0.0,0.0,0.0,0.0,
1.82,7.0916596446717834,5.995975889715182,6.169493717668381,0.0,0.0,0.8315275321337244,6.4190430840184485,0.0,0.0,0.0,0.0,0.0,0.0,0.0,0.0,0.0,0.0,0.0,0.0,0.0,0.0,
1.8386,7.121581299967625,6.009063205999061,6.185405593203315,0.0,0.0,0.8396930701202859,6.438683366389999,0.0,0.0,0.0,0.0,0.0,0.0,0.0,0.0,0.0,0.0,0.0,0.0,0.0,0.0,
1.8572,7.152575292380196,6.02244610265112,6.201717940747823,0.0,0.0,0.8481762192922855,6.458913111926379,0.0,0.0,0.0,0.0,0.0,0.0,0.0,0.0,0.0,0.0,0.0,0.0,0.0,0.0,
1.8757,7.184530532093323,6.036060195578757,6.218355835846814,0.0,0.0,0.8569485847125226,6.479648854506298,0.0,0.0,0.0,0.0,0.0,0.0,0.0,0.0,0.0,0.0,0.0,0.0,0.0,0.0,
1.8943,7.217863207005637,6.050063302563336,6.235516431186383,0.0,0.0,0.8661268008502819,6.501147646918452,0.0,0.0,0.0,0.0,0.0,0.0,0.0,0.0,0.0,0.0,0.0,0.0,0.0,0.0,
1.9129,7.252481787989433,6.064394050536427,6.253129620761475,0.0,0.0,0.8756884529269477,6.523335153095778,0.0,0.0,0.0,0.0,0.0,0.0,0.0,0.0,0.0,0.0,0.0,0.0,0.0,0.0,
1.9315,7.288472381662458,6.079064593997076,6.271215586446993,0.0,0.0,0.8856601039213263,6.546250854035509,0.0,0.0,0.0,0.0,0.0,0.0,0.0,0.0,0.0,0.0,0.0,0.0,0.0,0.0,
1.95,7.325724757478226,6.094006193893555,6.289694915016618,0.0,0.0,0.8960139493919832,6.569808622129467,0.0,0.0,0.0,0.0,0.0,0.0,0.0,0.0,0.0,0.0,0.0,0.0,0.0,0.0,
1.9686,7.3647468981863975,6.109394246290918,6.308790986721211,0.0,0.0,0.9068944208917087,6.594310710399508,0.0,0.0,0.0,0.0,0.0,0.0,0.0,0.0,0.0,0.0,0.0,0.0,0.0,0.0,
1.9872,7.405459255577784,6.125163900229913,6.32843107512981,0.0,0.0,0.9182831417517711,6.619684743645837,0.0,0.0,0.0,0.0,0.0,0.0,0.0,0.0,0.0,0.0,0.0,0.0,0.0,0.0,
2.0058,7.447993609447514,6.141331252038273,6.348643381616132,0.0,0.0,0.9302208333467787,6.645989414367307,0.0,0.0,0.0,0.0,0.0,0.0,0.0,0.0,0.0,0.0,0.0,0.0,0.0,0.0,
2.0243,7.492253217309752,6.157823375247508,6.369345248369036,0.0,0.0,0.9426842152949052,6.673140613642098,0.0,0.0,0.0,0.0,0.0,0.0,0.0,0.0,0.0,0.0,0.0,0.0,0.0,0.0,
2.0429,7.538882948880599,6.174837267290844,6.390794365160105,0.0,0.0,0.9558594822340521,6.7015048604438485,0.0,0.0,0.0,0.0,0.0,0.0,0.0,0.0,0.0,0.0,0.0,0.0,0.0,0.0,
2.0615,7.587838606078737,6.192305296656208,6.4129181096479035,0.0,0.0,0.9697395645502548,6.731020670794283,0.0,0.0,0.0,0.0,0.0,0.0,0.0,0.0,0.0,0.0,0.0,0.0,0.0,0.0,
2.08,7.639052475295604,6.210151862130552,6.4356335017146,0.0,0.0,0.9843104587111497,6.7616126130469185,0.0,0.0,0.0,0.0,0.0,0.0,0.0,0.0,0.0,0.0,0.0,0.0,0.0,0.0,
2.0986,7.693325463915732,6.228594026082667,6.459232600474204,0.0,0.0,0.999806232481044,6.793717363490868,0.0,0.0,0.0,0.0,0.0,0.0,0.0,0.0,0.0,0.0,0.0,0.0,0.0,0.0,
2.1172,7.750674765212351,6.247563193869335,6.483647047014822,0.0,0.0,1.0162391427845434,6.827295002032169,0.0,0.0,0.0,0.0,0.0,0.0,0.0,0.0,0.0,0.0,0.0,0.0,0.0,0.0,
2.1358,7.8114346137362904,6.267088634288402,6.5089361936181085,0.0,0.0,1.033712740781407,6.8624864805476,0.0,0.0,0.0,0.0,0.0,0.0,0.0,0.0,0.0,0.0,0.0,0.0,0.0,0.0,
2.1543,7.8756394482761864,6.287092967191335,6.535024012359999,0.0,0.0,1.052245131495186,6.899252142609174,0.0,0.0,0.0,0.0,0.0,0.0,0.0,0.0,0.0,0.0,0.0,0.0,0.0,0.0,
2.1729,7.94444631300901,6.307828339982909,6.562269931855746,0.0,0.0,1.072180199226712,6.938181528282555,0.0,0.0,0.0,0.0,0.0,0.0,0.0,0.0,0.0,0.0,0.0,0.0,0.0,0.0,
2.1915,8.018075463888113,6.329228592589318,6.59062574715319,0.0,0.0,1.093593688553462,6.97930993454354,0.0,0.0,0.0,0.0,0.0,0.0,0.0,0.0,0.0,0.0,0.0,0.0,0.0,0.0,
2.21,8.096760129368745,6.351218392849995,6.620034899040102,0.0,0.0,1.1165658313405689,7.0226711404196145,0.0,0.0,0.0,0.0,0.0,0.0,0.0,0.0,0.0,0.0,0.0,0.0,0.0,0.0,
2.2286,8.18217566675436,6.374087020897226,6.650940608335866,0.0,0.0,1.1416010184630168,7.069067765329151,0.0,0.0,0.0,0.0,0.0,0.0,0.0,0.0,0.0,0.0,0.0,0.0,0.0,0.0,
