energies(eV),real_xx,real_yy,real_zz,real_xy,real_yz,real_xz,real_ave,imag_xx,imag_yy,imag_zz,imag_xy,imag_yz,imag_xz,imag_ave,absorption_xx,absorption_yy,absorption_zz,absorption_xy,absorption_yz,absorption_xz,absorption_ave,band_gap
0.0,3.6235046909565027,3.6055396375326105,3.458134881252028,0.0,0.0,0.0,3.562393069913714,0.0,0.0,0.0,0.0,0.0,0.0,0.0,0.0,0.0,0.0,0.0,0.0,0.0,0.0,3.1331
0.0122,3.6235167632119203,3.60555222136463,3.458146052731133,0.0,0.0,0.0,3.562405012435894,0.0,0.0,0.0,0.0,0.0,0.0,0.0,0.0,0.0,0.0,0.0,0.0,0.0,0.0,
0.0244,3.623552980910423,3.6055899738817634,3.45817956804161,0.0,0.0,0.0,3.5624408409445985,0.0,0.0,0.0,0.0,0.0,0.0,0.0,0.0,0.0,0.0,0.0,0.0,0.0,0.0,
0.0366,3.62361334684893,3.605652898147502,3.458235429803192,0.0,0.0,0.0,3.562500558266541,0.0,0.0,0.0,0.0,0.0,0.0,0.0,0.0,0.0,0.0,0.0,0.0,0.0,0.0,
0.0488,3.6236978656896244,3.6057409992685208,3.4583136423828007,0.0,0.0,0.0,3.5625841691136486,0.0,0.0,0.0,0.0,0.0,0.0,0.0,0.0,0.0,0.0,0.0,0.0,0.0,0.0,
0.061,3.623806543961047,3.6058542843957904,3.4584142118954966,0.0,0.0,0.0,3.5626916800841113,0.0,0.0,0.0,0.0,0.0,0.0,0.0,0.0,0.0,0.0,0.0,0.0,0.0,0.0,
0.0732,3.6239393900595305,3.6059927627262507,3.4585371462059267,0.0,0.0,0.0,3.5628230996639023,0.0,0.0,0.0,0.0,0.0,0.0,0.0,0.0,0.0,0.0,0.0,0.0,0.0,0.0,
0.0854,3.624096414251057,3.60615644550492,3.458682454930187,0.0,0.0,0.0,3.5629784382287215,0.0,0.0,0.0,0.0,0.0,0.0,0.0,0.0,0.0,0.0,0.0,0.0,0.0,0.0,
0.0976,3.6242776286735308,3.60634534602756,3.458850149437956,0.0,0.0,0.0,3.563157708046349,0.0,0.0,0.0,0.0,0.0,0.0,0.0,0.0,0.0,0.0,0.0,0.0,0.0,0.0,
0.1098,3.624483047339464,3.6065594796437277,3.459040242855211,0.0,0.0,0.0,3.563360923279468,0.0,0.0,0.0,0.0,0.0,0.0,0.0,0.0,0.0,0.0,0.0,0.0,0.0,0.0,
0.122,3.6247126861391794,3.6067988637603032,3.45925275006721,0.0,0.0,0.0,3.563588099988898,0.0,0.0,0.0,0.0,0.0,0.0,0.0,0.0,0.0,0.0,0.0,0.0,0.0,0.0,
0.1341,3.6249643833144547,3.607061245776571,3.4594856707804333,0.0,0.0,0.0,3.563837099957153,0.0,0.0,0.0,0.0,0.0,0.0,0.0,0.0,0.0,0.0,0.0,0.0,0.0,0.0,
0.1463,3.6252423186642955,3.6073509839642934,3.4597428732058977,0.0,0.0,0.0,3.5641120586114954,0.0,0.0,0.0,0.0,0.0,0.0,0.0,0.0,0.0,0.0,0.0,0.0,0.0,0.0,
0.1585,3.625544532938539,3.6076660370581934,3.4600225445016415,0.0,0.0,0.0,3.5644110381661243,0.0,0.0,0.0,0.0,0.0,0.0,0.0,0.0,0.0,0.0,0.0,0.0,0.0,0.0,
0.1707,3.625871049562593,3.6080064307228006,3.4603247066141045,0.0,0.0,0.0,3.5647340622998325,0.0,0.0,0.0,0.0,0.0,0.0,0.0,0.0,0.0,0.0,0.0,0.0,0.0,0.0,
0.1829,3.626221893861476,3.608372192705,3.460649383270494,0.0,0.0,0.0,3.5650811566123237,0.0,0.0,0.0,0.0,0.0,0.0,0.0,0.0,0.0,0.0,0.0,0.0,0.0,0.0,
0.1951,3.6265970930655542,3.608763352840494,3.4609965999841403,0.0,0.0,0.0,3.5654523486300627,0.0,0.0,0.0,0.0,0.0,0.0,0.0,0.0,0.0,0.0,0.0,0.0,0.0,0.0,
0.2073,3.6269966763165877,3.609179943060801,3.461366384060486,0.0,0.0,0.0,3.565847667812625,0.0,0.0,0.0,0.0,0.0,0.0,0.0,0.0,0.0,0.0,0.0,0.0,0.0,0.0,
0.2195,3.6274206746742914,3.6096219974006845,3.4617587646034,0.0,0.0,0.0,3.566267145559459,0.0,0.0,0.0,0.0,0.0,0.0,0.0,0.0,0.0,0.0,0.0,0.0,0.0,0.0,
0.2317,3.6278691211232466,3.610089552006074,3.4621737725221204,0.0,0.0,0.0,3.566710815217147,0.0,0.0,0.0,0.0,0.0,0.0,0.0,0.0,0.0,0.0,0.0,0.0,0.0,0.0,
0.2439,3.6283420505804385,3.610582645142685,3.462611440538349,0.0,0.0,0.0,3.5671787120871574,0.0,0.0,0.0,0.0,0.0,0.0,0.0,0.0,0.0,0.0,0.0,0.0,0.0,0.0,
0.2561,3.62883949990299,3.611101317204781,3.463071803193955,0.0,0.0,0.0,3.5676708734339084,0.0,0.0,0.0,0.0,0.0,0.0,0.0,0.0,0.0,0.0,0.0,0.0,0.0,0.0,
0.2683,3.6293615078964807,3.611645610724892,3.4635548968591583,0.0,0.0,0.0,3.5681873384935106,0.0,0.0,0.0,0.0,0.0,0.0,0.0,0.0,0.0,0.0,0.0,0.0,0.0,0.0,
0.2805,3.6299081153238393,3.6122155703836047,3.4640607597409176,0.0,0.0,0.0,3.568728148482787,0.0,0.0,0.0,0.0,0.0,0.0,0.0,0.0,0.0,0.0,0.0,0.0,0.0,0.0,
0.2927,3.630479364914365,3.612811243020341,3.464589431892056,0.0,0.0,0.0,3.5692933466089207,0.0,0.0,0.0,0.0,0.0,0.0,0.0,0.0,0.0,0.0,0.0,0.0,0.0,0.0,
0.3049,3.6310753013735395,3.613432677644152,3.4651409552206816,0.0,0.0,0.0,3.5698829780794576,0.0,0.0,0.0,0.0,0.0,0.0,0.0,0.0,0.0,0.0,0.0,0.0,0.0,0.0,
0.3171,3.631695971393114,3.614079925445477,3.465715373500052,0.0,0.0,0.0,3.5704970901128807,0.0,0.0,0.0,0.0,0.0,0.0,0.0,0.0,0.0,0.0,0.0,0.0,0.0,0.0,
0.3293,3.6323414236617344,3.6147530398082663,3.4663127323789853,0.0,0.0,0.0,3.571135731949662,0.0,0.0,0.0,0.0,0.0,0.0,0.0,0.0,0.0,0.0,0.0,0.0,0.0,0.0,
0.3415,3.633011708875999,3.6154520763226214,3.46693307939263,0.0,0.0,0.0,3.57179895486375,0.0,0.0,0.0,0.0,0.0,0.0,0.0,0.0,0.0,0.0,0.0,0.0,0.0,0.0,
0.3537,3.63370687975208,3.6161770927979826,3.4675764639738538,0.0,0.0,0.0,3.5724868121746387,0.0,0.0,0.0,0.0,0.0,0.0,0.0,0.0,0.0,0.0,0.0,0.0,0.0,0.0,
0.3659,3.6344269910377167,3.6169281492769865,3.4682429374648804,0.0,0.0,0.0,3.573199359259861,0.0,0.0,0.0,0.0,0.0,0.0,0.0,0.0,0.0,0.0,0.0,0.0,0.0,0.0,
0.3781,3.6351720995247603,3.6177053080497727,3.4689325531296755,0.0,0.0,0.0,3.573936653568069,0.0,0.0,0.0,0.0,0.0,0.0,0.0,0.0,0.0,0.0,0.0,0.0,0.0,0.0,
0.3902,3.635935849228168,3.6185019424917164,3.4696394289920205,0.0,0.0,0.0,3.5746924069039685,0.0,0.0,0.0,0.0,0.0,0.0,0.0,0.0,0.0,0.0,0.0,0.0,0.0,0.0,
0.4024,3.6367309246057586,3.619331286479702,3.4703753056988806,0.0,0.0,0.0,3.575479172261447,0.0,0.0,0.0,0.0,0.0,0.0,0.0,0.0,0.0,0.0,0.0,0.0,0.0,0.0,
0.4146,3.637551179433062,3.6201869326929903,3.4711344955390073,0.0,0.0,0.0,3.576290869221687,0.0,0.0,0.0,0.0,0.0,0.0,0.0,0.0,0.0,0.0,0.0,0.0,0.0,0.0,
0.4268,3.6383966787965716,3.6210689525476982,3.4719170595793183,0.0,0.0,0.0,3.5771275636411963,0.0,0.0,0.0,0.0,0.0,0.0,0.0,0.0,0.0,0.0,0.0,0.0,0.0,0.0,
0.439,3.639267489897074,3.621977419787737,3.4727230608770707,0.0,0.0,0.0,3.5779893235206273,0.0,0.0,0.0,0.0,0.0,0.0,0.0,0.0,0.0,0.0,0.0,0.0,0.0,0.0,
0.4512,3.640163682065247,3.6229124105027144,3.4735525644951015,0.0,0.0,0.0,3.578876219021021,0.0,0.0,0.0,0.0,0.0,0.0,0.0,0.0,0.0,0.0,0.0,0.0,0.0,0.0,
0.4634,3.6410853267777585,3.6238740031463004,3.4744056375176795,0.0,0.0,0.0,3.5797883224805793,0.0,0.0,0.0,0.0,0.0,0.0,0.0,0.0,0.0,0.0,0.0,0.0,0.0,0.0,
0.4756,3.642032497674048,3.624862278555512,3.4752823490668003,0.0,0.0,0.0,3.58072570843212,0.0,0.0,0.0,0.0,0.0,0.0,0.0,0.0,0.0,0.0,0.0,0.0,0.0,0.0,
0.4878,3.6430052705734877,3.6258773199704324,3.4761827703191814,0.0,0.0,0.0,3.581688453621034,0.0,0.0,0.0,0.0,0.0,0.0,0.0,0.0,0.0,0.0,0.0,0.0,0.0,0.0,
0.5,3.6440037234932086,3.626919213054506,3.4771069745236316,0.0,0.0,0.0,3.582676637023782,0.0,0.0,0.0,0.0,0.0,0.0,0.0,0.0,0.0,0.0,0.0,0.0,0.0,0.0,
0.5122,3.6450279366665126,3.627988045915699,3.4780550370190744,0.0,0.0,0.0,3.5836903398670956,0.0,0.0,0.0,0.0,0.0,0.0,0.0,0.0,0.0,0.0,0.0,0.0,0.0,0.0,
0.5244,3.646077992561788,3.6290839091282407,3.4790270352532304,0.0,0.0,0.0,3.584729645647753,0.0,0.0,0.0,0.0,0.0,0.0,0.0,0.0,0.0,0.0,0.0,0.0,0.0,0.0,
0.5366,3.647153975902045,3.630206895754964,3.480023048801635,0.0,0.0,0.0,3.5857946401528813,0.0,0.0,0.0,0.0,0.0,0.0,0.0,0.0,0.0,0.0,0.0,0.0,0.0,0.0,
0.5488,3.648255973685086,3.6313571013704435,3.481043159387597,0.0,0.0,0.0,3.586885411481042,0.0,0.0,0.0,0.0,0.0,0.0,0.0,0.0,0.0,0.0,0.0,0.0,0.0,0.0,
0.561,3.6493840752042725,3.63253462408478,3.4820874509024202,0.0,0.0,0.0,3.5880020500638246,0.0,0.0,0.0,0.0,0.0,0.0,0.0,0.0,0.0,0.0,0.0,0.0,0.0,0.0,
0.5732,3.6505383720697924,3.6337395645680908,3.4831560094263816,0.0,0.0,0.0,3.5891446486880887,0.0,0.0,0.0,0.0,0.0,0.0,0.0,0.0,0.0,0.0,0.0,0.0,0.0,0.0,
0.5854,3.65171895823072,3.6349720260758045,3.484248923250514,0.0,0.0,0.0,3.5903133025190126,0.0,0.0,0.0,0.0,0.0,0.0,0.0,0.0,0.0,0.0,0.0,0.0,0.0,0.0,
0.5976,3.652925929997638,3.6362321144745855,3.4853662828986627,0.0,0.0,0.0,3.591508109123629,0.0,0.0,0.0,0.0,0.0,0.0,0.0,0.0,0.0,0.0,0.0,0.0,0.0,0.0,
0.6098,3.654159386065936,3.637519938269035,3.4865081811504357,0.0,0.0,0.0,3.592729168495136,0.0,0.0,0.0,0.0,0.0,0.0,0.0,0.0,0.0,0.0,0.0,0.0,0.0,0.0,
0.622,3.655419427539704,3.6388356086293174,3.4876747130648407,0.0,0.0,0.0,3.593976583077954,0.0,0.0,0.0,0.0,0.0,0.0,0.0,0.0,0.0,0.0,0.0,0.0,0.0,0.0,
0.6342,3.656706157956345,3.6401792394192505,3.4888659760043783,0.0,0.0,0.0,3.5952504577933246,0.0,0.0,0.0,0.0,0.0,0.0,0.0,0.0,0.0,0.0,0.0,0.0,0.0,0.0,
0.6463,3.65800880750441,3.641539589272208,3.4900720004744428,0.0,0.0,0.0,3.5965401324170205,0.0,0.0,0.0,0.0,0.0,0.0,0.0,0.0,0.0,0.0,0.0,0.0,0.0,0.0,
0.6585,3.6593490153121175,3.6429392618239715,3.491312822103327,0.0,0.0,0.0,3.597867033079805,0.0,0.0,0.0,0.0,0.0,0.0,0.0,0.0,0.0,0.0,0.0,0.0,0.0,0.0,
0.6707,3.660716236611469,3.644367251841861,3.492578680053312,0.0,0.0,0.0,3.5992207228355473,0.0,0.0,0.0,0.0,0.0,0.0,0.0,0.0,0.0,0.0,0.0,0.0,0.0,0.0,
0.6829,3.662110584912388,3.6458236842403964,3.49386968113749,0.0,0.0,0.0,3.600601316763425,0.0,0.0,0.0,0.0,0.0,0.0,0.0,0.0,0.0,0.0,0.0,0.0,0.0,0.0,
0.6951,3.663532176291487,3.6473086867812556,3.495185934604034,0.0,0.0,0.0,3.6020089325589257,0.0,0.0,0.0,0.0,0.0,0.0,0.0,0.0,0.0,0.0,0.0,0.0,0.0,0.0,
0.7073,3.664981129421088,3.648822390106458,3.496527552164737,0.0,0.0,0.0,3.6034436905640947,0.0,0.0,0.0,0.0,0.0,0.0,0.0,0.0,0.0,0.0,0.0,0.0,0.0,0.0,
0.7195,3.6664575655988267,3.6503649277725954,3.4978946480242334,0.0,0.0,0.0,3.604905713798552,0.0,0.0,0.0,0.0,0.0,0.0,0.0,0.0,0.0,0.0,0.0,0.0,0.0,0.0,
0.7317,3.6679616087781843,3.6519364362859053,3.4992873389101584,0.0,0.0,0.0,3.6063951279914157,0.0,0.0,0.0,0.0,0.0,0.0,0.0,0.0,0.0,0.0,0.0,0.0,0.0,0.0,
0.7439,3.669493385599734,3.653537055138332,3.500705744104152,0.0,0.0,0.0,3.6079120616140727,0.0,0.0,0.0,0.0,0.0,0.0,0.0,0.0,0.0,0.0,0.0,0.0,0.0,0.0,
0.7561,3.6710530254233293,3.655166926844407,3.502149985473492,0.0,0.0,0.0,3.609456645913743,0.0,0.0,0.0,0.0,0.0,0.0,0.0,0.0,0.0,0.0,0.0,0.0,0.0,0.0,
0.7683,3.6726406603608983,3.6568261969793423,3.5036201875036728,0.0,0.0,0.0,3.6110290149479716,0.0,0.0,0.0,0.0,0.0,0.0,0.0,0.0,0.0,0.0,0.0,0.0,0.0,0.0,
0.7805,3.6742564253103454,3.6585150142178104,3.5051164773320163,0.0,0.0,0.0,3.6126293056200574,0.0,0.0,0.0,0.0,0.0,0.0,0.0,0.0,0.0,0.0,0.0,0.0,0.0,0.0,
0.7927,3.675900457990203,3.660233530374016,3.5066389847817403,0.0,0.0,0.0,3.6142576577153194,0.0,0.0,0.0,0.0,0.0,0.0,0.0,0.0,0.0,0.0,0.0,0.0,0.0,0.0,
0.8049,3.6775728989750855,3.6619819004427003,3.508187842397422,0.0,0.0,0.0,3.6159142139384026,0.0,0.0,0.0,0.0,0.0,0.0,0.0,0.0,0.0,0.0,0.0,0.0,0.0,0.0,
0.8171,3.6792738917322656,3.6637602826410895,3.50976318548102,0.0,0.0,0.0,3.6175991199514583,0.0,0.0,0.0,0.0,0.0,0.0,0.0,0.0,0.0,0.0,0.0,0.0,0.0,0.0,
0.8293,3.681003582658996,3.665568838452196,3.511365152128968,0.0,0.0,0.0,3.619312524413387,0.0,0.0,0.0,0.0,0.0,0.0,0.0,0.0,0.0,0.0,0.0,0.0,0.0,0.0,
0.8415,3.6827621211208434,3.667407732668909,3.5129938832703065,0.0,0.0,0.0,3.62105457902002,0.0,0.0,0.0,0.0,0.0,0.0,0.0,0.0,0.0,0.0,0.0,0.0,0.0,0.0,
0.8537,3.6845496594910534,3.669277133439549,3.5146495227056436,0.0,0.0,0.0,3.6228254385454157,0.0,0.0,0.0,0.0,0.0,0.0,0.0,0.0,0.0,0.0,0.0,0.0,0.0,0.0,
0.8659,3.6863663531907163,3.671177212314258,3.51633221714717,0.0,0.0,0.0,3.624625260884048,0.0,0.0,0.0,0.0,0.0,0.0,0.0,0.0,0.0,0.0,0.0,0.0,0.0,0.0,
0.8781,3.688212360730316,3.673108144292914,3.5180421162599114,0.0,0.0,0.0,3.62645420709438,0.0,0.0,0.0,0.0,0.0,0.0,0.0,0.0,0.0,0.0,0.0,0.0,0.0,0.0,
0.8903,3.6900878437518045,3.675070107873914,3.519779372703676,0.0,0.0,0.0,3.6283124414431316,0.0,0.0,0.0,0.0,0.0,0.0,0.0,0.0,0.0,0.0,0.0,0.0,0.0,0.0,
0.9024,3.6919772303751355,3.6770468202114626,3.52152956459241,0.0,0.0,0.0,3.6301845383930025,0.0,0.0,0.0,0.0,0.0,0.0,0.0,0.0,0.0,0.0,0.0,0.0,0.0,0.0,
0.9146,3.6939119170086805,3.679071138603504,3.523321778402544,0.0,0.0,0.0,3.6321016113382427,0.0,0.0,0.0,0.0,0.0,0.0,0.0,0.0,0.0,0.0,0.0,0.0,0.0,0.0,
0.9268,3.695876581861968,3.6811270440267103,3.525141824590305,0.0,0.0,0.0,3.6340484834929945,0.0,0.0,0.0,0.0,0.0,0.0,0.0,0.0,0.0,0.0,0.0,0.0,0.0,0.0,
0.939,3.6978713995212873,3.683214729458283,3.5269898682122873,0.0,0.0,0.0,3.636025332397286,0.0,0.0,0.0,0.0,0.0,0.0,0.0,0.0,0.0,0.0,0.0,0.0,0.0,0.0,
0.9512,3.6998965479323793,3.6853343916377224,3.528866077547084,0.0,0.0,0.0,3.638032339039062,0.0,0.0,0.0,0.0,0.0,0.0,0.0,0.0,0.0,0.0,0.0,0.0,0.0,0.0,
0.9634,3.7019522084495273,3.6874862311237226,3.5307706241443197,0.0,0.0,0.0,3.6400696879058567,0.0,0.0,0.0,0.0,0.0,0.0,0.0,0.0,0.0,0.0,0.0,0.0,0.0,0.0,
0.9756,3.704038565885923,3.689670452352333,3.5327036828749403,0.0,0.0,0.0,3.6421375670377323,0.0,0.0,0.0,0.0,0.0,0.0,0.0,0.0,0.0,0.0,0.0,0.0,0.0,0.0,
0.9878,3.706155808565213,3.691887263697005,3.534665431982901,0.0,0.0,0.0,3.644236168081706,0.0,0.0,0.0,0.0,0.0,0.0,0.0,0.0,0.0,0.0,0.0,0.0,0.0,0.0,
1.0,3.708304128374435,3.694136877529805,3.536656053138006,0.0,0.0,0.0,3.6463656863474156,0.0,0.0,0.0,0.0,0.0,0.0,0.0,0.0,0.0,0.0,0.0,0.0,0.0,0.0,
1.0122,3.710483720818107,3.6964195102841844,3.538675731490129,0.0,0.0,0.0,3.6485263208641396,0.0,0.0,0.0,0.0,0.0,0.0,0.0,0.0,0.0,0.0,0.0,0.0,0.0,0.0,
1.0244,3.712694785073958,3.698735382519722,3.5407246557250813,0.0,0.0,0.0,3.650718274439587,0.0,0.0,0.0,0.0,0.0,0.0,0.0,0.0,0.0,0.0,0.0,0.0,0.0,0.0,
1.0366,3.714937524049667,3.7010847189879734,3.5428030181215218,0.0,0.0,0.0,3.652941753719721,0.0,0.0,0.0,0.0,0.0,0.0,0.0,0.0,0.0,0.0,0.0,0.0,0.0,0.0,
1.0488,3.7172121444413153,3.7034677487003544,3.544911014609609,0.0,0.0,0.0,3.6551969692504263,0.0,0.0,0.0,0.0,0.0,0.0,0.0,0.0,0.0,0.0,0.0,0.0,0.0,0.0,
1.061,3.71951885679315,3.705884704997643,3.547048844831073,0.0,0.0,0.0,3.657484135540622,0.0,0.0,0.0,0.0,0.0,0.0,0.0,0.0,0.0,0.0,0.0,0.0,0.0,0.0,
1.0732,3.721857875558959,3.7083358256211882,3.5492167122008054,0.0,0.0,0.0,3.6598034711269847,0.0,0.0,0.0,0.0,0.0,0.0,0.0,0.0,0.0,0.0,0.0,0.0,0.0,0.0,
1.0854,3.724229419164759,3.710821352786103,3.551414823970084,0.0,0.0,0.0,3.6621551986403156,0.0,0.0,0.0,0.0,0.0,0.0,0.0,0.0,0.0,0.0,0.0,0.0,0.0,0.0,
1.0976,3.726633710073392,3.7133415332560875,3.55364339129141,0.0,0.0,0.0,3.66453954487363,0.0,0.0,0.0,0.0,0.0,0.0,0.0,0.0,0.0,0.0,0.0,0.0,0.0,0.0,
1.1098,3.729070974850329,3.7158966184202926,3.5559026292850593,0.0,0.0,0.0,3.666956740851894,0.0,0.0,0.0,0.0,0.0,0.0,0.0,0.0,0.0,0.0,0.0,0.0,0.0,0.0,
1.122,3.731541444231542,3.7184868643721742,3.558192757107269,0.0,0.0,0.0,3.669407021903662,0.0,0.0,0.0,0.0,0.0,0.0,0.0,0.0,0.0,0.0,0.0,0.0,0.0,0.0,
1.1342,3.734045353192764,3.721112531990307,3.560513998020273,0.0,0.0,0.0,3.6718906277344483,0.0,0.0,0.0,0.0,0.0,0.0,0.0,0.0,0.0,0.0,0.0,0.0,0.0,0.0,
1.1464,3.736582941020644,3.7237738870212183,3.562866579464152,0.0,0.0,0.0,3.6744078025020044,0.0,0.0,0.0,0.0,0.0,0.0,0.0,0.0,0.0,0.0,0.0,0.0,0.0,0.0,
1.1585,3.7391332348780852,3.7264489441383315,3.5652310619195977,0.0,0.0,0.0,3.6769377469786715,0.0,0.0,0.0,0.0,0.0,0.0,0.0,0.0,0.0,0.0,0.0,0.0,0.0,0.0,
1.1707,3.7417386348011337,3.729182193000437,3.567646762132717,0.0,0.0,0.0,3.679522529978096,0.0,0.0,0.0,0.0,0.0,0.0,0.0,0.0,0.0,0.0,0.0,0.0,0.0,0.0,
1.1829,3.7443784559650704,3.7319519542609196,3.570094509021856,0.0,0.0,0.0,3.682141639749282,0.0,0.0,0.0,0.0,0.0,0.0,0.0,0.0,0.0,0.0,0.0,0.0,0.0,0.0,
1.1951,3.7470529556099135,3.734758513967564,3.572574547457884,0.0,0.0,0.0,3.6847953390117874,0.0,0.0,0.0,0.0,0.0,0.0,0.0,0.0,0.0,0.0,0.0,0.0,0.0,0.0,
1.2073,3.7497623956694506,3.737602163483004,3.5750871268772344,0.0,0.0,0.0,3.6874838953432296,0.0,0.0,0.0,0.0,0.0,0.0,0.0,0.0,0.0,0.0,0.0,0.0,0.0,0.0,
1.2195,3.752507042853818,3.7404831995812313,3.5776325013656862,0.0,0.0,0.0,3.6902075812669115,0.0,0.0,0.0,0.0,0.0,0.0,0.0,0.0,0.0,0.0,0.0,0.0,0.0,0.0,
1.2317,3.755287168734337,3.743401924546712,3.580210929744515,0.0,0.0,0.0,3.692966674341855,0.0,0.0,0.0,0.0,0.0,0.0,0.0,0.0,0.0,0.0,0.0,0.0,0.0,0.0,
1.2439,3.758103049830374,3.746358646276106,3.582822675658828,0.0,0.0,0.0,3.6957614572551027,0.0,0.0,0.0,0.0,0.0,0.0,0.0,0.0,0.0,0.0,0.0,0.0,0.0,0.0,
1.2561,3.760954967698497,3.7493536783824584,3.585468007668403,0.0,0.0,0.0,3.6985922179164525,0.0,0.0,0.0,0.0,0.0,0.0,0.0,0.0,0.0,0.0,0.0,0.0,0.0,0.0,
1.2683,3.7638432090239085,3.7523873403024353,3.58814719934077,0.0,0.0,0.0,3.7014592495557044,0.0,0.0,0.0,0.0,0.0,0.0,0.0,0.0,0.0,0.0,0.0,0.0,0.0,0.0,
1.2805,3.766768065714195,3.7554599574060528,3.5908605293469464,0.0,0.0,0.0,3.7043628508223976,0.0,0.0,0.0,0.0,0.0,0.0,0.0,0.0,0.0,0.0,0.0,0.0,0.0,0.0,
1.2927,3.769729834995685,3.7585718611095973,3.5936082815595487,0.0,0.0,0.0,3.7073033258882773,0.0,0.0,0.0,0.0,0.0,0.0,0.0,0.0,0.0,0.0,0.0,0.0,0.0,0.0,
1.3049,3.772728819512081,3.7617233889913018,3.5963907451538044,0.0,0.0,0.0,3.710280984552396,0.0,0.0,0.0,0.0,0.0,0.0,0.0,0.0,0.0,0.0,0.0,0.0,0.0,0.0,
1.3171,3.7757653274257925,3.764914884910221,3.599208214711099,0.0,0.0,0.0,3.7132961423490376,0.0,0.0,0.0,0.0,0.0,0.0,0.0,0.0,0.0,0.0,0.0,0.0,0.0,0.0,
1.3293,3.77883967252188,3.768146699128273,3.6020609903253673,0.0,0.0,0.0,3.7163491206585064,0.0,0.0,0.0,0.0,0.0,0.0,0.0,0.0,0.0,0.0,0.0,0.0,0.0,0.0,
1.3415,3.781952174314776,3.7714191884355097,3.6049493777125075,0.0,0.0,0.0,3.719440246820931,0.0,0.0,0.0,0.0,0.0,0.0,0.0,0.0,0.0,0.0,0.0,0.0,0.0,0.0,
1.3537,3.785103158157692,3.774732716278707,3.607873688322598,0.0,0.0,0.0,3.722569854252999,0.0,0.0,0.0,0.0,0.0,0.0,0.0,0.0,0.0,0.0,0.0,0.0,0.0,0.0,
1.3659,3.788292955355119,3.778087652893581,3.610834239455351,0.0,0.0,0.0,3.7257382825680168,0.0,0.0,0.0,0.0,0.0,0.0,0.0,0.0,0.0,0.0,0.0,0.0,0.0,0.0,
1.3781,3.7915219032780882,3.781484375440358,3.613831354378676,0.0,0.0,0.0,3.7289458776990414,0.0,0.0,0.0,0.0,0.0,0.0,0.0,0.0,0.0,0.0,0.0,0.0,0.0,0.0,
1.3903,3.7947903454825895,3.7849232681431957,3.6168653624505462,0.0,0.0,0.0,3.732192992025444,0.0,0.0,0.0,0.0,0.0,0.0,0.0,0.0,0.0,0.0,0.0,0.0,0.0,0.0,
1.4025,3.798098631831271,3.7884047224333557,3.6199365992442463,0.0,0.0,0.0,3.7354799845029576,0.0,0.0,0.0,0.0,0.0,0.0,0.0,0.0,0.0,0.0,0.0,0.0,0.0,0.0,
1.4147,3.8014471186181615,3.7919291370962034,3.623045406677027,0.0,0.0,0.0,3.738807220797131,0.0,0.0,0.0,0.0,0.0,0.0,0.0,0.0,0.0,0.0,0.0,0.0,0.0,0.0,
1.4268,3.804808223724924,3.7954674969259163,3.626166185217171,0.0,0.0,0.0,3.742147301956004,0.0,0.0,0.0,0.0,0.0,0.0,0.0,0.0,0.0,0.0,0.0,0.0,0.0,0.0,
1.439,3.8082378696051853,3.7990786983055815,3.6293508705389375,0.0,0.0,0.0,3.745555812816568,0.0,0.0,0.0,0.0,0.0,0.0,0.0,0.0,0.0,0.0,0.0,0.0,0.0,0.0,
1.4512,3.8117088215808406,3.8027340985817224,3.6325741886650373,0.0,0.0,0.0,3.7490057029425334,0.0,0.0,0.0,0.0,0.0,0.0,0.0,0.0,0.0,0.0,0.0,0.0,0.0,0.0,
1.4634,3.8152214629312486,3.8064341274436373,3.6358365081930857,0.0,0.0,0.0,3.7524973661893237,0.0,0.0,0.0,0.0,0.0,0.0,0.0,0.0,0.0,0.0,0.0,0.0,0.0,0.0,
1.4756,3.818776184042846,3.810179222731869,3.6391382047636776,0.0,0.0,0.0,3.7560312038461308,0.0,0.0,0.0,0.0,0.0,0.0,0.0,0.0,0.0,0.0,0.0,0.0,0.0,0.0,
1.4878,3.8223733825556763,3.8139698306115797,3.642479661212551,0.0,0.0,0.0,3.759607624793269,0.0,0.0,0.0,0.0,0.0,0.0,0.0,0.0,0.0,0.0,0.0,0.0,0.0,0.0,
1.5,3.8260134635140415,3.81780640575064,3.6458612677272173,0.0,0.0,0.0,3.763227045663966,0.0,0.0,0.0,0.0,0.0,0.0,0.0,0.0,0.0,0.0,0.0,0.0,0.0,0.0,
1.5122,3.8296968395213375,3.8216894115027165,3.6492834220078905,0.0,0.0,0.0,3.766889891010648,0.0,0.0,0.0,0.0,0.0,0.0,0.0,0.0,0.0,0.0,0.0,0.0,0.0,0.0,
1.5244,3.833423930899239,3.8256193200958473,3.6527465294334682,0.0,0.0,0.0,3.770596593476185,0.0,0.0,0.0,0.0,0.0,0.0,0.0,0.0,0.0,0.0,0.0,0.0,0.0,0.0,
1.5366,3.8371951658511674,3.829596612825971,3.656251003231913,0.0,0.0,0.0,3.7743475939696842,0.0,0.0,0.0,0.0,0.0,0.0,0.0,0.0,0.0,0.0,0.0,0.0,0.0,0.0,
1.5488,3.84101098063052,3.8336217802564376,3.6597972646559027,0.0,0.0,0.0,3.7781433418476205,0.0,0.0,0.0,0.0,0.0,0.0,0.0,0.0,0.0,0.0,0.0,0.0,0.0,0.0,
1.561,3.8448718197135907,3.8376953224229418,3.663385743163666,0.0,0.0,0.0,3.781984295100066,0.0,0.0,0.0,0.0,0.0,0.0,0.0,0.0,0.0,0.0,0.0,0.0,0.0,0.0,
1.5732,3.8487781359773017,3.8418177490444565,3.6670168766049995,0.0,0.0,0.0,3.7858709205422527,0.0,0.0,0.0,0.0,0.0,0.0,0.0,0.0,0.0,0.0,0.0,0.0,0.0,0.0,
1.5854,3.8527303908821655,3.845989579740373,3.670691111412894,0.0,0.0,0.0,3.7898036940118107,0.0,0.0,0.0,0.0,0.0,0.0,0.0,0.0,0.0,0.0,0.0,0.0,0.0,0.0,
