energies(eV),real_xx,real_yy,real_zz,real_xy,real_yz,real_xz,real_ave,imag_xx,imag_yy,imag_zz,imag_xy,imag_yz,imag_xz,imag_ave,absorption_xx,absorption_yy,absorption_zz,absorption_xy,absorption_yz,absorption_xz,absorption_ave,band_gap
0.0,2.213261959784447,2.9598588300461945,3.2589261834614183,0.0,0.0,0.0,2.8106823244306867,0.0,0.0,0.0,0.0,0.0,0.0,0.0,0.0,0.0,0.0,0.0,0.0,0.0,0.0,4.4209
0.0135,2.21326344161144,2.9598634168882834,3.258932249032689,0.0,0.0,0.0,2.810686369177471,0.0,0.0,0.0,0.0,0.0,0.0,0.0,0.0,0.0,0.0,0.0,0.0,0.0,0.0,
0.027,2.213267887123777,2.959877177611476,3.258950446012555,0.0,0.0,0.0,2.810698503582603,0.0,0.0,0.0,0.0,0.0,0.0,0.0,0.0,0.0,0.0,0.0,0.0,0.0,0.0,
0.0405,2.213275296415545,2.9599001128066145,3.2589807751993005,0.0,0.0,0.0,2.810718728140486,0.0,0.0,0.0,0.0,0.0,0.0,0.0,0.0,0.0,0.0,0.0,0.0,0.0,0.0,
0.054,2.2132856696435703,2.9599322234585372,3.2590232379234716,0.0,0.0,0.0,2.810747043675193,0.0,0.0,0.0,0.0,0.0,0.0,0.0,0.0,0.0,0.0,0.0,0.0,0.0,0.0,
0.0676,2.2132991168831815,2.9599738510236433,3.2590782857631226,0.0,0.0,0.0,2.810783751223316,0.0,0.0,0.0,0.0,0.0,0.0,0.0,0.0,0.0,0.0,0.0,0.0,0.0,0.0,
0.0811,2.213315440665176,2.9600243851175163,3.259145111603698,0.0,0.0,0.0,2.8108283124621303,0.0,0.0,0.0,0.0,0.0,0.0,0.0,0.0,0.0,0.0,0.0,0.0,0.0,0.0,
0.0946,2.213334729233206,2.9600841000056075,3.259224078192699,0.0,0.0,0.0,2.8108809691438377,0.0,0.0,0.0,0.0,0.0,0.0,0.0,0.0,0.0,0.0,0.0,0.0,0.0,0.0,
0.1081,2.213356982995641,2.960152998253415,3.2593151889960503,0.0,0.0,0.0,2.8109417234150356,0.0,0.0,0.0,0.0,0.0,0.0,0.0,0.0,0.0,0.0,0.0,0.0,0.0,0.0,
0.1216,2.213382202423701,2.9602310828215614,3.259418448013473,0.0,0.0,0.0,2.8110105777529117,0.0,0.0,0.0,0.0,0.0,0.0,0.0,0.0,0.0,0.0,0.0,0.0,0.0,0.0,
0.1351,2.2134103880514284,2.960318357066235,3.259533859778872,0.0,0.0,0.0,2.811087534965512,0.0,0.0,0.0,0.0,0.0,0.0,0.0,0.0,0.0,0.0,0.0,0.0,0.0,0.0,
0.1486,2.2134415404758294,2.9604148247395847,3.2596614293609885,0.0,0.0,0.0,2.8111725981921345,0.0,0.0,0.0,0.0,0.0,0.0,0.0,0.0,0.0,0.0,0.0,0.0,0.0,0.0,
0.1621,2.2134756603568055,2.960520489990233,3.2598011623640195,0.0,0.0,0.0,2.811265770903686,0.0,0.0,0.0,0.0,0.0,0.0,0.0,0.0,0.0,0.0,0.0,0.0,0.0,0.0,
0.1756,2.2135127484172683,2.960635357363835,3.259953064928221,0.0,0.0,0.0,2.811367056903108,0.0,0.0,0.0,0.0,0.0,0.0,0.0,0.0,0.0,0.0,0.0,0.0,0.0,0.0,
0.1891,2.2135528054431735,2.960759431803661,3.2601171437307626,0.0,0.0,0.0,2.8114764603258657,0.0,0.0,0.0,0.0,0.0,0.0,0.0,0.0,0.0,0.0,0.0,0.0,0.0,0.0,
0.2027,2.213596162083939,2.960893740348057,3.260294757109985,0.0,0.0,0.0,2.8115948865139937,0.0,0.0,0.0,0.0,0.0,0.0,0.0,0.0,0.0,0.0,0.0,0.0,0.0,0.0,
0.2162,2.2136421816599876,2.9610363136488753,3.260483300907807,0.0,0.0,0.0,2.8117205987388894,0.0,0.0,0.0,0.0,0.0,0.0,0.0,0.0,0.0,0.0,0.0,0.0,0.0,0.0,
0.2297,2.213691172945645,2.961188111285169,3.260684044268643,0.0,0.0,0.0,2.8118544428331522,0.0,0.0,0.0,0.0,0.0,0.0,0.0,0.0,0.0,0.0,0.0,0.0,0.0,0.0,
0.2432,2.2137431369800917,2.9613491398006793,3.2608969960300036,0.0,0.0,0.0,2.811996424270258,0.0,0.0,0.0,0.0,0.0,0.0,0.0,0.0,0.0,0.0,0.0,0.0,0.0,0.0,
0.2567,2.2137980748658883,2.9615194061405674,3.261122165571038,0.0,0.0,0.0,2.8121465488591646,0.0,0.0,0.0,0.0,0.0,0.0,0.0,0.0,0.0,0.0,0.0,0.0,0.0,0.0,
0.2702,2.2138559877690533,2.961698917652332,3.2613595628137397,0.0,0.0,0.0,2.8123048227450416,0.0,0.0,0.0,0.0,0.0,0.0,0.0,0.0,0.0,0.0,0.0,0.0,0.0,0.0,
0.2837,2.2139168769191064,2.961887682086745,3.261609198224098,0.0,0.0,0.0,2.812471252409983,0.0,0.0,0.0,0.0,0.0,0.0,0.0,0.0,0.0,0.0,0.0,0.0,0.0,0.0,
0.2972,2.2139807436091816,2.9620857075989573,3.261871082813447,0.0,0.0,0.0,2.812645844673862,0.0,0.0,0.0,0.0,0.0,0.0,0.0,0.0,0.0,0.0,0.0,0.0,0.0,0.0,
0.3107,2.2140475891961393,2.9622930027494805,3.2621452281398056,0.0,0.0,0.0,2.812828606695142,0.0,0.0,0.0,0.0,0.0,0.0,0.0,0.0,0.0,0.0,0.0,0.0,0.0,0.0,
0.3242,2.2141174151006195,2.962509576505404,3.262431646309302,0.0,0.0,0.0,2.813019545971775,0.0,0.0,0.0,0.0,0.0,0.0,0.0,0.0,0.0,0.0,0.0,0.0,0.0,0.0,
0.3378,2.2141907732528723,2.9627371459703493,3.262732608468943,0.0,0.0,0.0,2.813220175897388,0.0,0.0,0.0,0.0,0.0,0.0,0.0,0.0,0.0,0.0,0.0,0.0,0.0,0.0,
0.3513,2.214266586414901,2.96297237438036,3.263043701995243,0.0,0.0,0.0,2.8134275542635017,0.0,0.0,0.0,0.0,0.0,0.0,0.0,0.0,0.0,0.0,0.0,0.0,0.0,0.0,
0.3648,2.214345384552419,2.9632169108255217,3.2633671080910562,0.0,0.0,0.0,2.813643134489666,0.0,0.0,0.0,0.0,0.0,0.0,0.0,0.0,0.0,0.0,0.0,0.0,0.0,0.0,
0.3783,2.2144271693428217,2.9634707659146176,3.263702841074741,0.0,0.0,0.0,2.81386692544406,0.0,0.0,0.0,0.0,0.0,0.0,0.0,0.0,0.0,0.0,0.0,0.0,0.0,0.0,
0.3918,2.2145119425278366,2.9637339506695026,3.2640509158209907,0.0,0.0,0.0,2.8140989363394433,0.0,0.0,0.0,0.0,0.0,0.0,0.0,0.0,0.0,0.0,0.0,0.0,0.0,0.0,
0.4053,2.214599705913674,2.964006476526584,3.2644113477626595,0.0,0.0,0.0,2.814339176734306,0.0,0.0,0.0,0.0,0.0,0.0,0.0,0.0,0.0,0.0,0.0,0.0,0.0,0.0,
0.4188,2.2146904613711693,2.9642883553383435,3.264784152892716,0.0,0.0,0.0,2.8145876565340764,0.0,0.0,0.0,0.0,0.0,0.0,0.0,0.0,0.0,0.0,0.0,0.0,0.0,0.0,
0.4323,2.214784210835859,2.96457959937492,3.2651693477661645,0.0,0.0,0.0,2.8148443859923145,0.0,0.0,0.0,0.0,0.0,0.0,0.0,0.0,0.0,0.0,0.0,0.0,0.0,0.0,
0.4458,2.2148809563081726,2.9648802213257577,3.265566949502202,0.0,0.0,0.0,2.8151093757120442,0.0,0.0,0.0,0.0,0.0,0.0,0.0,0.0,0.0,0.0,0.0,0.0,0.0,0.0,
0.4593,2.214980699853591,2.9651902343013106,3.265976975786304,0.0,0.0,0.0,2.8153826366470684,0.0,0.0,0.0,0.0,0.0,0.0,0.0,0.0,0.0,0.0,0.0,0.0,0.0,0.0,
0.4729,2.2150842158671504,2.965512053014931,3.2664026207455117,0.0,0.0,0.0,2.815666296542531,0.0,0.0,0.0,0.0,0.0,0.0,0.0,0.0,0.0,0.0,0.0,0.0,0.0,0.0,
0.4864,2.2151899842642817,2.965840958884184,3.2668376438384583,0.0,0.0,0.0,2.815956195662308,0.0,0.0,0.0,0.0,0.0,0.0,0.0,0.0,0.0,0.0,0.0,0.0,0.0,0.0,
0.4999,2.2152987573395073,2.9661792977617285,3.267285148101949,0.0,0.0,0.0,2.8162544010677286,0.0,0.0,0.0,0.0,0.0,0.0,0.0,0.0,0.0,0.0,0.0,0.0,0.0,0.0,
0.5134,2.2154105374203485,2.9665270844634657,3.267745153513756,0.0,0.0,0.0,2.816560925132523,0.0,0.0,0.0,0.0,0.0,0.0,0.0,0.0,0.0,0.0,0.0,0.0,0.0,0.0,
0.5269,2.2155253269001767,2.9668843342358295,3.268217680629807,0.0,0.0,0.0,2.8168757805886044,0.0,0.0,0.0,0.0,0.0,0.0,0.0,0.0,0.0,0.0,0.0,0.0,0.0,0.0,
0.5404,2.2156431282383364,2.967251062757697,3.2687027505866997,0.0,0.0,0.0,2.8171989805275772,0.0,0.0,0.0,0.0,0.0,0.0,0.0,0.0,0.0,0.0,0.0,0.0,0.0,0.0,
0.5539,2.2157639439603347,2.967627286142644,3.2692003851044245,0.0,0.0,0.0,2.8175305384024676,0.0,0.0,0.0,0.0,0.0,0.0,0.0,0.0,0.0,0.0,0.0,0.0,0.0,0.0,
0.5674,2.215887776658001,2.9680130209410684,3.269710606489079,0.0,0.0,0.0,2.817870468029383,0.0,0.0,0.0,0.0,0.0,0.0,0.0,0.0,0.0,0.0,0.0,0.0,0.0,0.0,
0.5809,2.216014628989725,2.9684082841424813,3.2702334376357403,0.0,0.0,0.0,2.8182187835893155,0.0,0.0,0.0,0.0,0.0,0.0,0.0,0.0,0.0,0.0,0.0,0.0,0.0,0.0,
0.5945,2.2161454769991114,2.9688161274244496,3.2707729156304177,0.0,0.0,0.0,2.8185781733513267,0.0,0.0,0.0,0.0,0.0,0.0,0.0,0.0,0.0,0.0,0.0,0.0,0.0,0.0,
0.608,2.2162783992602595,2.9692305710785476,3.2713211312060255,0.0,0.0,0.0,2.818943367181611,0.0,0.0,0.0,0.0,0.0,0.0,0.0,0.0,0.0,0.0,0.0,0.0,0.0,0.0,
0.6215,2.2164143495531383,2.969654596899697,3.271882028976981,0.0,0.0,0.0,2.8193169918099383,0.0,0.0,0.0,0.0,0.0,0.0,0.0,0.0,0.0,0.0,0.0,0.0,0.0,0.0,
0.635,2.2165533308047287,2.970088223661027,3.2724556342284443,0.0,0.0,0.0,2.8196990628980667,0.0,0.0,0.0,0.0,0.0,0.0,0.0,0.0,0.0,0.0,0.0,0.0,0.0,0.0,
0.6485,2.2166953460095193,2.9705314705870522,3.273041972849845,0.0,0.0,0.0,2.820089596482139,0.0,0.0,0.0,0.0,0.0,0.0,0.0,0.0,0.0,0.0,0.0,0.0,0.0,0.0,
0.662,2.2168403982298175,2.9709843573563326,3.273641071338244,0.0,0.0,0.0,2.8204886089747983,0.0,0.0,0.0,0.0,0.0,0.0,0.0,0.0,0.0,0.0,0.0,0.0,0.0,0.0,
0.6755,2.2169884905958694,2.971446904104181,3.274252956801672,0.0,0.0,0.0,2.8208961171672406,0.0,0.0,0.0,0.0,0.0,0.0,0.0,0.0,0.0,0.0,0.0,0.0,0.0,0.0,
0.689,2.217139626306166,2.971919131425471,3.2748776569626705,0.0,0.0,0.0,2.821312138231436,0.0,0.0,0.0,0.0,0.0,0.0,0.0,0.0,0.0,0.0,0.0,0.0,0.0,0.0,
0.7025,2.2172938086276393,2.9724010603775395,3.275515200161796,0.0,0.0,0.0,2.821736689722325,0.0,0.0,0.0,0.0,0.0,0.0,0.0,0.0,0.0,0.0,0.0,0.0,0.0,0.0,
0.716,2.217451040895913,2.972892712483021,3.2761656153613163,0.0,0.0,0.0,2.8221697895800837,0.0,0.0,0.0,0.0,0.0,0.0,0.0,0.0,0.0,0.0,0.0,0.0,0.0,0.0,
0.7296,2.2176125252175414,2.9733978602029176,3.2768338938192896,0.0,0.0,0.0,2.822614759746583,0.0,0.0,0.0,0.0,0.0,0.0,0.0,0.0,0.0,0.0,0.0,0.0,0.0,0.0,
0.7431,2.2177758903185545,2.973909097497377,3.277510238317452,0.0,0.0,0.0,2.8230650753777944,0.0,0.0,0.0,0.0,0.0,0.0,0.0,0.0,0.0,0.0,0.0,0.0,0.0,0.0,
0.7566,2.217942315814386,2.9744301255074865,3.2781995457017454,0.0,0.0,0.0,2.8235239956745395,0.0,0.0,0.0,0.0,0.0,0.0,0.0,0.0,0.0,0.0,0.0,0.0,0.0,0.0,
0.7701,2.2181118053184266,2.974960967651664,3.278901847464249,0.0,0.0,0.0,2.82399154014478,0.0,0.0,0.0,0.0,0.0,0.0,0.0,0.0,0.0,0.0,0.0,0.0,0.0,0.0,
0.7836,2.2182843625140785,2.9755016478294856,3.2796171757383528,0.0,0.0,0.0,2.8244677286939726,0.0,0.0,0.0,0.0,0.0,0.0,0.0,0.0,0.0,0.0,0.0,0.0,0.0,0.0,
0.7971,2.2184599911549805,2.976052190425066,3.2803455633029874,0.0,0.0,0.0,2.8249525816276777,0.0,0.0,0.0,0.0,0.0,0.0,0.0,0.0,0.0,0.0,0.0,0.0,0.0,0.0,
0.8106,2.2186386950653,2.9766126203104903,3.2810870435869153,0.0,0.0,0.0,2.825446119654235,0.0,0.0,0.0,0.0,0.0,0.0,0.0,0.0,0.0,0.0,0.0,0.0,0.0,0.0,
0.8241,2.2188204781400156,2.977182962849371,3.281841650673009,0.0,0.0,0.0,2.825948363887465,0.0,0.0,0.0,0.0,0.0,0.0,0.0,0.0,0.0,0.0,0.0,0.0,0.0,0.0,
0.8376,2.2190053443452014,2.9777632439004753,3.282609419302875,0.0,0.0,0.0,2.826459335849517,0.0,0.0,0.0,0.0,0.0,0.0,0.0,0.0,0.0,0.0,0.0,0.0,0.0,0.0,
0.8511,2.2191932977183626,2.9783534898213833,3.283390384881363,0.0,0.0,0.0,2.8269790574737033,0.0,0.0,0.0,0.0,0.0,0.0,0.0,0.0,0.0,0.0,0.0,0.0,0.0,0.0,
0.8647,2.219385769058606,2.9789582110256676,3.284190515899327,0.0,0.0,0.0,2.8275114986612,0.0,0.0,0.0,0.0,0.0,0.0,0.0,0.0,0.0,0.0,0.0,0.0,0.0,0.0,
0.8782,2.2195799321123717,2.9795685420921947,3.2849980826992606,0.0,0.0,0.0,2.8280488523012757,0.0,0.0,0.0,0.0,0.0,0.0,0.0,0.0,0.0,0.0,0.0,0.0,0.0,0.0,
0.8917,2.2197771949098035,2.9801889203409466,3.2858189569687424,0.0,0.0,0.0,2.8285950240731643,0.0,0.0,0.0,0.0,0.0,0.0,0.0,0.0,0.0,0.0,0.0,0.0,0.0,0.0,
0.9052,2.219977561777604,2.980819374167317,3.2866531768183656,0.0,0.0,0.0,2.8291500375877625,0.0,0.0,0.0,0.0,0.0,0.0,0.0,0.0,0.0,0.0,0.0,0.0,0.0,0.0,
0.9187,2.2201810371154895,2.9814599324853006,3.287500781046408,0.0,0.0,0.0,2.8297139168823993,0.0,0.0,0.0,0.0,0.0,0.0,0.0,0.0,0.0,0.0,0.0,0.0,0.0,0.0,
0.9322,2.2203876253964356,2.982110624731732,3.2883618091439906,0.0,0.0,0.0,2.830286686424053,0.0,0.0,0.0,0.0,0.0,0.0,0.0,0.0,0.0,0.0,0.0,0.0,0.0,0.0,
0.9457,2.2205973311671237,2.9827714808705115,3.289236301300411,0.0,0.0,0.0,2.830868371112682,0.0,0.0,0.0,0.0,0.0,0.0,0.0,0.0,0.0,0.0,0.0,0.0,0.0,0.0,
0.9592,2.2208101590481975,2.983442531397103,3.290124298408466,0.0,0.0,0.0,2.8314589962845886,0.0,0.0,0.0,0.0,0.0,0.0,0.0,0.0,0.0,0.0,0.0,0.0,0.0,0.0,
0.9727,2.221026113734654,2.984123807342897,3.2910258420700496,0.0,0.0,0.0,2.832058587715867,0.0,0.0,0.0,0.0,0.0,0.0,0.0,0.0,0.0,0.0,0.0,0.0,0.0,0.0,
0.9863,2.2212468345538006,2.984820501096181,3.2919478041701296,0.0,0.0,0.0,2.8326717132733705,0.0,0.0,0.0,0.0,0.0,0.0,0.0,0.0,0.0,0.0,0.0,0.0,0.0,0.0,
0.9998,2.2214690804862673,2.9855223994783526,3.292876669748262,0.0,0.0,0.0,2.833289383237627,0.0,0.0,0.0,0.0,0.0,0.0,0.0,0.0,0.0,0.0,0.0,0.0,0.0,0.0,
1.0133,2.221694467795593,2.9862346198801193,3.2938192113235254,0.0,0.0,0.0,2.8339160996664123,0.0,0.0,0.0,0.0,0.0,0.0,0.0,0.0,0.0,0.0,0.0,0.0,0.0,0.0,
1.0268,2.2219230014783955,2.9869571955276326,3.294775473396828,0.0,0.0,0.0,2.8345518901342857,0.0,0.0,0.0,0.0,0.0,0.0,0.0,0.0,0.0,0.0,0.0,0.0,0.0,0.0,
1.0403,2.22215468660754,2.987690160206933,3.2957455012073567,0.0,0.0,0.0,2.8351967826739433,0.0,0.0,0.0,0.0,0.0,0.0,0.0,0.0,0.0,0.0,0.0,0.0,0.0,0.0,
1.0538,2.2223895283324673,2.988433548268925,3.2967293407389393,0.0,0.0,0.0,2.8358508057801104,0.0,0.0,0.0,0.0,0.0,0.0,0.0,0.0,0.0,0.0,0.0,0.0,0.0,0.0,
1.0673,2.2226275318796533,2.9891873946346523,3.2977270387262148,0.0,0.0,0.0,2.836513988413507,0.0,0.0,0.0,0.0,0.0,0.0,0.0,0.0,0.0,0.0,0.0,0.0,0.0,0.0,
1.0808,2.2228687025529608,2.9899517348004583,3.2987386426611405,0.0,0.0,0.0,2.8371863600048535,0.0,0.0,0.0,0.0,0.0,0.0,0.0,0.0,0.0,0.0,0.0,0.0,0.0,0.0,
1.0943,2.223113045734115,2.9907266048434593,3.2997642007995744,0.0,0.0,0.0,2.8378679504590494,0.0,0.0,0.0,0.0,0.0,0.0,0.0,0.0,0.0,0.0,0.0,0.0,0.0,0.0,
1.1078,2.2233605668830787,2.991512041427005,3.3008037621679476,0.0,0.0,0.0,2.8385587901593436,0.0,0.0,0.0,0.0,0.0,0.0,0.0,0.0,0.0,0.0,0.0,0.0,0.0,0.0,
1.1214,2.223613140502118,2.9923140180599868,3.3018652336808376,0.0,0.0,0.0,2.8392641307476474,0.0,0.0,0.0,0.0,0.0,0.0,0.0,0.0,0.0,0.0,0.0,0.0,0.0,0.0,
1.1349,2.2238670579260607,2.9931207790573158,3.302933056366927,0.0,0.0,0.0,2.839973631116768,0.0,0.0,0.0,0.0,0.0,0.0,0.0,0.0,0.0,0.0,0.0,0.0,0.0,0.0,
1.1484,2.2241241702140577,2.993938220446143,3.3040150344381547,0.0,0.0,0.0,2.8406924750327853,0.0,0.0,0.0,0.0,0.0,0.0,0.0,0.0,0.0,0.0,0.0,0.0,0.0,0.0,
1.1619,2.224384483144048,2.9947663812963112,3.305111220078716,0.0,0.0,0.0,2.8414206948396914,0.0,0.0,0.0,0.0,0.0,0.0,0.0,0.0,0.0,0.0,0.0,0.0,0.0,0.0,
1.1754,2.22464800257443,2.995605301293028,3.306221666278916,0.0,0.0,0.0,2.8421583233821246,0.0,0.0,0.0,0.0,0.0,0.0,0.0,0.0,0.0,0.0,0.0,0.0,0.0,0.0,
1.1889,2.2249147344445714,2.996455020743098,3.3073464268425665,0.0,0.0,0.0,2.8429053940100792,0.0,0.0,0.0,0.0,0.0,0.0,0.0,0.0,0.0,0.0,0.0,0.0,0.0,0.0,
1.2024,2.22518468477523,2.9973155805811436,3.3084855563947237,0.0,0.0,0.0,2.843661940583699,0.0,0.0,0.0,0.0,0.0,0.0,0.0,0.0,0.0,0.0,0.0,0.0,0.0,0.0,
1.2159,2.2254578596690884,2.9981870223760536,3.309639110389387,0.0,0.0,0.0,2.8444279974781765,0.0,0.0,0.0,0.0,0.0,0.0,0.0,0.0,0.0,0.0,0.0,0.0,0.0,0.0,
1.2294,2.225734265311199,2.9990693883375883,3.3108071451174648,0.0,0.0,0.0,2.8452035995887504,0.0,0.0,0.0,0.0,0.0,0.0,0.0,0.0,0.0,0.0,0.0,0.0,0.0,0.0,
1.2429,2.2260139079695302,2.999962721322955,3.3119897177148165,0.0,0.0,0.0,2.8459887823357675,0.0,0.0,0.0,0.0,0.0,0.0,0.0,0.0,0.0,0.0,0.0,0.0,0.0,0.0,
1.2565,2.226298901564948,3.0008738048762797,3.313195808690514,0.0,0.0,0.0,2.846789505043914,0.0,0.0,0.0,0.0,0.0,0.0,0.0,0.0,0.0,0.0,0.0,0.0,0.0,0.0,
1.27,2.22658506149051,3.0017892851583325,3.314407740630224,0.0,0.0,0.0,2.847594029093022,0.0,0.0,0.0,0.0,0.0,0.0,0.0,0.0,0.0,0.0,0.0,0.0,0.0,0.0,
1.2835,2.2268744777872294,3.0027158653242365,3.3156343874451624,0.0,0.0,0.0,2.8484082435188767,0.0,0.0,0.0,0.0,0.0,0.0,0.0,0.0,0.0,0.0,0.0,0.0,0.0,0.0,
1.297,2.227167157060403,3.0036535908956403,3.3168758097413167,0.0,0.0,0.0,2.8492321858991203,0.0,0.0,0.0,0.0,0.0,0.0,0.0,0.0,0.0,0.0,0.0,0.0,0.0,0.0,
1.3105,2.2274631060008643,3.0046025080770757,3.318132069012294,0.0,0.0,0.0,2.850065894363411,0.0,0.0,0.0,0.0,0.0,0.0,0.0,0.0,0.0,0.0,0.0,0.0,0.0,0.0,
1.324,2.2277623313854917,3.0055626637635338,3.319403227648471,0.0,0.0,0.0,2.850909407599166,0.0,0.0,0.0,0.0,0.0,0.0,0.0,0.0,0.0,0.0,0.0,0.0,0.0,0.0,
1.3375,2.2280648400778142,3.006534105548062,3.320689348946017,0.0,0.0,0.0,2.851762764857298,0.0,0.0,0.0,0.0,0.0,0.0,0.0,0.0,0.0,0.0,0.0,0.0,0.0,0.0,
1.351,2.2283706390285514,3.007516881729548,3.3219904971162775,0.0,0.0,0.0,2.8526260059581254,0.0,0.0,0.0,0.0,0.0,0.0,0.0,0.0,0.0,0.0,0.0,0.0,0.0,0.0,
1.3645,2.228679735276189,3.0085110413206957,3.323306737295332,0.0,0.0,0.0,2.8534991712974054,0.0,0.0,0.0,0.0,0.0,0.0,0.0,0.0,0.0,0.0,0.0,0.0,0.0,0.0,
1.378,2.228992135947578,3.0095166340560793,3.3246381355536387,0.0,0.0,0.0,2.854382301852432,0.0,0.0,0.0,0.0,0.0,0.0,0.0,0.0,0.0,0.0,0.0,0.0,0.0,0.0,
1.3916,2.2293101992426116,3.0105412872736044,3.325994790869712,0.0,0.0,0.0,2.855282092461976,0.0,0.0,0.0,0.0,0.0,0.0,0.0,0.0,0.0,0.0,0.0,0.0,0.0,0.0,
1.4051,2.229629255110761,3.0115699840661807,3.327356820822855,0.0,0.0,0.0,2.8561853533332653,0.0,0.0,0.0,0.0,0.0,0.0,0.0,0.0,0.0,0.0,0.0,0.0,0.0,0.0,
1.4186,2.2299516373745467,3.0126102680090465,3.328734213286677,0.0,0.0,0.0,2.8570987062234234,0.0,0.0,0.0,0.0,0.0,0.0,0.0,0.0,0.0,0.0,0.0,0.0,0.0,0.0,
1.4321,2.2302773535209797,3.0136621918141433,3.330127038176863,0.0,0.0,0.0,2.858022194503995,0.0,0.0,0.0,0.0,0.0,0.0,0.0,0.0,0.0,0.0,0.0,0.0,0.0,0.0,
1.4456,2.2306064111285773,3.014725808958229,3.331535366394715,0.0,0.0,0.0,2.858955862160508,0.0,0.0,0.0,0.0,0.0,0.0,0.0,0.0,0.0,0.0,0.0,0.0,0.0,0.0,
1.4591,2.2309388178679166,3.0158011736920156,3.3329592698379114,0.0,0.0,0.0,2.859899753799281,0.0,0.0,0.0,0.0,0.0,0.0,0.0,0.0,0.0,0.0,0.0,0.0,0.0,0.0,
1.4726,2.231274581502344,3.016888341049417,3.334398821411555,0.0,0.0,0.0,2.8608539146544385,0.0,0.0,0.0,0.0,0.0,0.0,0.0,0.0,0.0,0.0,0.0,0.0,0.0,0.0,
1.4861,2.2316137098886264,3.017987366856979,3.3358540950392896,0.0,0.0,0.0,2.8618183905949652,0.0,0.0,0.0,0.0,0.0,0.0,0.0,0.0,0.0,0.0,0.0,0.0,0.0,0.0,
1.4996,2.2319562109776214,3.0190983077435307,3.337325165674759,0.0,0.0,0.0,2.86279322813197,0.0,0.0,0.0,0.0,0.0,0.0,0.0,0.0,0.0,0.0,0.0,0.0,0.0,0.0,
1.5132,2.2323046675369858,3.020229583843128,3.3388231831265935,0.0,0.0,0.0,2.863785811502236,0.0,0.0,0.0,0.0,0.0,0.0,0.0,0.0,0.0,0.0,0.0,0.0,0.0,0.0,
1.5267,2.2326539633973645,3.021364617368817,3.340326195255251,0.0,0.0,0.0,2.8647815920071444,0.0,0.0,0.0,0.0,0.0,0.0,0.0,0.0,0.0,0.0,0.0,0.0,0.0,0.0,
1.5402,2.2330066564460003,3.022511741213535,3.341845236132145,0.0,0.0,0.0,2.86578787793056,0.0,0.0,0.0,0.0,0.0,0.0,0.0,0.0,0.0,0.0,0.0,0.0,0.0,0.0,
1.5537,2.2333627550178567,3.02367101532154,3.3433803849569834,0.0,0.0,0.0,2.866804718432127,0.0,0.0,0.0,0.0,0.0,0.0,0.0,0.0,0.0,0.0,0.0,0.0,0.0,0.0,
1.5672,2.2337222675456148,3.024842500490429,3.344931722019781,0.0,0.0,0.0,2.8678321633519417,0.0,0.0,0.0,0.0,0.0,0.0,0.0,0.0,0.0,0.0,0.0,0.0,0.0,0.0,
1.5807,2.2340852025603235,3.0260262583819886,3.3464993287133638,0.0,0.0,0.0,2.8688702632185588,0.0,0.0,0.0,0.0,0.0,0.0,0.0,0.0,0.0,0.0,0.0,0.0,0.0,0.0,
1.5942,2.2344515686922337,3.027222351533242,3.348083287546505,0.0,0.0,0.0,2.869919069257327,0.0,0.0,0.0,0.0,0.0,0.0,0.0,0.0,0.0,0.0,0.0,0.0,0.0,0.0,
1.6077,2.2348213746715206,3.028430843367577,3.3496836821569995,0.0,0.0,0.0,2.8709786333986993,0.0,0.0,0.0,0.0,0.0,0.0,0.0,0.0,0.0,0.0,0.0,0.0,0.0,0.0,
1.6212,2.235194629329092,3.02965179820635,3.3513005973250216,0.0,0.0,0.0,2.872049008286821,0.0,0.0,0.0,0.0,0.0,0.0,0.0,0.0,0.0,0.0,0.0,0.0,0.0,0.0,
1.6347,2.2355713415973635,3.0308852812804674,3.3529341189868918,0.0,0.0,0.0,2.873130247288241,0.0,0.0,0.0,0.0,0.0,0.0,0.0,0.0,0.0,0.0,0.0,0.0,0.0,0.0,
1.6483,2.235954349608484,3.032140636104066,3.35459662057142,0.0,0.0,0.0,2.8742305354279893,0.0,0.0,0.0,0.0,0.0,0.0,0.0,0.0,0.0,0.0,0.0,0.0,0.0,0.0,
1.6618,2.23633803008647,3.0333994690811075,3.3562637423665964,0.0,0.0,0.0,2.875333747178058,0.0,0.0,0.0,0.0,0.0,0.0,0.0,0.0,0.0,0.0,0.0,0.0,0.0,0.0,
1.6753,2.236725195658538,3.034671032071565,3.3579477362086263,0.0,0.0,0.0,2.876447987979576,0.0,0.0,0.0,0.0,0.0,0.0,0.0,0.0,0.0,0.0,0.0,0.0,0.0,0.0,
1.6888,2.2371158556721875,3.0359553940733415,3.3596486928087406,0.0,0.0,0.0,2.8775733141847564,0.0,0.0,0.0,0.0,0.0,0.0,0.0,0.0,0.0,0.0,0.0,0.0,0.0,0.0,
1.7023,2.2375100195806166,3.0372526250560417,3.361366704106408,0.0,0.0,0.0,2.878709782914355,0.0,0.0,0.0,0.0,0.0,0.0,0.0,0.0,0.0,0.0,0.0,0.0,0.0,0.0,
1.7158,2.2379076969435925,3.0385627959740114,3.363101863284718,0.0,0.0,0.0,2.8798574520674407,0.0,0.0,0.0,0.0,0.0,0.0,0.0,0.0,0.0,0.0,0.0,0.0,0.0,0.0,
1.7293,2.2383088974283503,3.039885978779846,3.364854264785655,0.0,0.0,0.0,2.881016380331284,0.0,0.0,0.0,0.0,0.0,0.0,0.0,0.0,0.0,0.0,0.0,0.0,0.0,0.0,
1.7428,2.23871363081048,3.0412222464380125,3.366624004326041,0.0,0.0,0.0,2.8821866271915115,0.0,0.0,0.0,0.0,0.0,0.0,0.0,0.0,0.0,0.0,0.0,0.0,0.0,0.0,
1.7563,2.2391219069748844,3.042571672938767,3.3684111789135747,0.0,0.0,0.0,2.8833682529424087,0.0,0.0,0.0,0.0,0.0,0.0,0.0,0.0,0.0,0.0,0.0,0.0,0.0,0.0,
