energies(eV),real_xx,real_yy,real_zz,real_xy,real_yz,real_xz,real_ave,imag_xx,imag_yy,imag_zz,imag_xy,imag_yz,imag_xz,imag_ave,absorption_xx,absorption_yy,absorption_zz,absorption_xy,absorption_yz,absorption_xz,absorption_ave,band_gap
0.0,2.573816526087004,2.527132985094762,2.5989189292203148,0.0,0.0,0.0,2.5666228134673603,0.0,0.0,0.0,0.0,0.0,0.0,0.0,0.0,0.0,0.0,0.0,0.0,0.0,0.0,5.135
0.0149,2.57381943018244,2.527135736451199,2.5989219522622475,0.0,0.0,0.0,2.566625706298629,0.0,0.0,0.0,0.0,0.0,0.0,0.0,0.0,0.0,0.0,0.0,0.0,0.0,0.0,
0.0298,2.573828142572288,2.52714399061706,2.5989310214980486,0.0,0.0,0.0,2.566634384895799,0.0,0.0,0.0,0.0,0.0,0.0,0.0,0.0,0.0,0.0,0.0,0.0,0.0,0.0,
0.0447,2.573842663567199,2.5271577478819167,2.5989461372577676,0.0,0.0,0.0,2.566648849568961,0.0,0.0,0.0,0.0,0.0,0.0,0.0,0.0,0.0,0.0,0.0,0.0,0.0,0.0,
0.0597,2.573863149754694,2.5271771565896533,2.598967462553958,0.0,0.0,0.0,2.566669256299435,0.0,0.0,0.0,0.0,0.0,0.0,0.0,0.0,0.0,0.0,0.0,0.0,0.0,0.0,
0.0746,2.5738893287153477,2.5272019586377685,2.5989947138246485,0.0,0.0,0.0,2.5666953337259213,0.0,0.0,0.0,0.0,0.0,0.0,0.0,0.0,0.0,0.0,0.0,0.0,0.0,0.0,
0.0895,2.5739213184629506,2.527232265818982,2.5990280139374873,0.0,0.0,0.0,2.5667271994064733,0.0,0.0,0.0,0.0,0.0,0.0,0.0,0.0,0.0,0.0,0.0,0.0,0.0,0.0,
0.1044,2.5739591201385177,2.5272680791970066,2.599067364104793,0.0,0.0,0.0,2.566764854480106,0.0,0.0,0.0,0.0,0.0,0.0,0.0,0.0,0.0,0.0,0.0,0.0,0.0,0.0,
0.1193,2.5740027350905947,2.527309400029039,2.5991127657593975,0.0,0.0,0.0,2.5668083002930104,0.0,0.0,0.0,0.0,0.0,0.0,0.0,0.0,0.0,0.0,0.0,0.0,0.0,0.0,
0.1342,2.574052164875419,2.5273562297658883,2.5991642205548104,0.0,0.0,0.0,2.566857538398706,0.0,0.0,0.0,0.0,0.0,0.0,0.0,0.0,0.0,0.0,0.0,0.0,0.0,0.0,
0.1491,2.574107411257092,2.5274085700521507,2.5992217303653797,0.0,0.0,0.0,2.5669125705582077,0.0,0.0,0.0,0.0,0.0,0.0,0.0,0.0,0.0,0.0,0.0,0.0,0.0,0.0,
0.164,2.5741684762078605,2.5274664227264685,2.5992852972866105,0.0,0.0,0.0,2.566973398740313,0.0,0.0,0.0,0.0,0.0,0.0,0.0,0.0,0.0,0.0,0.0,0.0,0.0,0.0,
0.179,2.5742358304746364,2.5275302337380476,2.5993554114020094,0.0,0.0,0.0,2.567040491871565,0.0,0.0,0.0,0.0,0.0,0.0,0.0,0.0,0.0,0.0,0.0,0.0,0.0,0.0,
0.1939,2.574308578403767,2.527599154513844,2.5994311404101706,0.0,0.0,0.0,2.5671129577759273,0.0,0.0,0.0,0.0,0.0,0.0,0.0,0.0,0.0,0.0,0.0,0.0,0.0,0.0,
0.2088,2.5743871520878034,2.5276735943767403,2.599512934164064,0.0,0.0,0.0,2.5671912268762025,0.0,0.0,0.0,0.0,0.0,0.0,0.0,0.0,0.0,0.0,0.0,0.0,0.0,0.0,
0.2237,2.574471554335367,2.52775355594511,2.5996007956479525,0.0,0.0,0.0,2.567275301976143,0.0,0.0,0.0,0.0,0.0,0.0,0.0,0.0,0.0,0.0,0.0,0.0,0.0,0.0,
0.2386,2.5745617881646226,2.527839042032663,2.599694728068725,0.0,0.0,0.0,2.56736518608867,0.0,0.0,0.0,0.0,0.0,0.0,0.0,0.0,0.0,0.0,0.0,0.0,0.0,0.0,
0.2535,2.5746578568036194,2.5279300556487967,2.5997947348563795,0.0,0.0,0.0,2.567460882436265,0.0,0.0,0.0,0.0,0.0,0.0,0.0,0.0,0.0,0.0,0.0,0.0,0.0,0.0,
0.2684,2.57475976369072,2.5280265999989817,2.5999008196643265,0.0,0.0,0.0,2.567562394451343,0.0,0.0,0.0,0.0,0.0,0.0,0.0,0.0,0.0,0.0,0.0,0.0,0.0,0.0,
0.2834,2.5748682553650584,2.5281293822792215,2.6000137597218154,0.0,0.0,0.0,2.5676704657886984,0.0,0.0,0.0,0.0,0.0,0.0,0.0,0.0,0.0,0.0,0.0,0.0,0.0,0.0,
0.2983,2.574981889153518,2.528237035678656,2.600132053286899,0.0,0.0,0.0,2.567783659373024,0.0,0.0,0.0,0.0,0.0,0.0,0.0,0.0,0.0,0.0,0.0,0.0,0.0,0.0,
0.3132,2.575101372799271,2.5283502306349943,2.600256437207924,0.0,0.0,0.0,2.5679026802140634,0.0,0.0,0.0,0.0,0.0,0.0,0.0,0.0,0.0,0.0,0.0,0.0,0.0,0.0,
0.3281,2.5752267105877102,2.5284689711433668,2.600386916038519,0.0,0.0,0.0,2.5680275325898654,0.0,0.0,0.0,0.0,0.0,0.0,0.0,0.0,0.0,0.0,0.0,0.0,0.0,0.0,
0.343,2.5753579070168557,2.528593261397147,2.6005234945583275,0.0,0.0,0.0,2.5681582209907767,0.0,0.0,0.0,0.0,0.0,0.0,0.0,0.0,0.0,0.0,0.0,0.0,0.0,0.0,
0.3579,2.5754949667979536,2.528723105788483,2.6006661777735722,0.0,0.0,0.0,2.568294750120003,0.0,0.0,0.0,0.0,0.0,0.0,0.0,0.0,0.0,0.0,0.0,0.0,0.0,0.0,
0.3728,2.575637894855973,2.5288585089088116,2.6008149709177055,0.0,0.0,0.0,2.5684371248941633,0.0,0.0,0.0,0.0,0.0,0.0,0.0,0.0,0.0,0.0,0.0,0.0,0.0,0.0,
0.3878,2.5757877148516135,2.5290004404402513,2.600970939778538,0.0,0.0,0.0,2.5685863650234677,0.0,0.0,0.0,0.0,0.0,0.0,0.0,0.0,0.0,0.0,0.0,0.0,0.0,0.0,
0.4027,2.5759424345699946,2.5291470129827593,2.6011320104937012,0.0,0.0,0.0,2.568740486015485,0.0,0.0,0.0,0.0,0.0,0.0,0.0,0.0,0.0,0.0,0.0,0.0,0.0,0.0,
0.4176,2.5761030386671213,2.529299159265597,2.601299208248486,0.0,0.0,0.0,2.5689004687270685,0.0,0.0,0.0,0.0,0.0,0.0,0.0,0.0,0.0,0.0,0.0,0.0,0.0,0.0,
0.4325,2.5762695329308105,2.5294568846846186,2.6014725391934617,0.0,0.0,0.0,2.5690663189362968,0.0,0.0,0.0,0.0,0.0,0.0,0.0,0.0,0.0,0.0,0.0,0.0,0.0,0.0,
0.4474,2.576441923365886,2.5296201948380066,2.601652009710005,0.0,0.0,0.0,2.569238042637966,0.0,0.0,0.0,0.0,0.0,0.0,0.0,0.0,0.0,0.0,0.0,0.0,0.0,0.0,
0.4623,2.576620216194977,2.5297890955270232,2.6018376264109575,0.0,0.0,0.0,2.569415646044319,0.0,0.0,0.0,0.0,0.0,0.0,0.0,0.0,0.0,0.0,0.0,0.0,0.0,0.0,
0.4772,2.576804417859247,2.529963592756658,2.6020293961415843,0.0,0.0,0.0,2.56959913558583,0.0,0.0,0.0,0.0,0.0,0.0,0.0,0.0,0.0,0.0,0.0,0.0,0.0,0.0,
0.4921,2.576994535019214,2.5301436927364405,2.6022273259803193,0.0,0.0,0.0,2.569788517911991,0.0,0.0,0.0,0.0,0.0,0.0,0.0,0.0,0.0,0.0,0.0,0.0,0.0,0.0,
0.5071,2.5771919102802108,2.5303306672151296,2.602432813871842,0.0,0.0,0.0,2.5699851304557275,0.0,0.0,0.0,0.0,0.0,0.0,0.0,0.0,0.0,0.0,0.0,0.0,0.0,0.0,
0.522,2.5773939191143023,2.530522029858317,2.6026431275682333,0.0,0.0,0.0,2.5701863588469513,0.0,0.0,0.0,0.0,0.0,0.0,0.0,0.0,0.0,0.0,0.0,0.0,0.0,0.0,
0.5369,2.577601864799961,2.530719015161563,2.6028596240694197,0.0,0.0,0.0,2.570393501343648,0.0,0.0,0.0,0.0,0.0,0.0,0.0,0.0,0.0,0.0,0.0,0.0,0.0,0.0,
0.5518,2.577815754885104,2.5309216301617514,2.6030823113974497,0.0,0.0,0.0,2.570606565481435,0.0,0.0,0.0,0.0,0.0,0.0,0.0,0.0,0.0,0.0,0.0,0.0,0.0,0.0,
0.5667,2.578035597141353,2.531129882104395,2.6033111978123356,0.0,0.0,0.0,2.570825559019361,0.0,0.0,0.0,0.0,0.0,0.0,0.0,0.0,0.0,0.0,0.0,0.0,0.0,0.0,
0.5816,2.5782613995650863,2.5313437784445085,2.60354629181308,0.0,0.0,0.0,2.5710504899408915,0.0,0.0,0.0,0.0,0.0,0.0,0.0,0.0,0.0,0.0,0.0,0.0,0.0,0.0,
0.5965,2.5784931703783593,2.531563326847573,2.603787602138748,0.0,0.0,0.0,2.5712813664548935,0.0,0.0,0.0,0.0,0.0,0.0,0.0,0.0,0.0,0.0,0.0,0.0,0.0,0.0,
0.6115,2.578732533862399,2.5317900657945764,2.6040368201337403,0.0,0.0,0.0,2.5715198065969056,0.0,0.0,0.0,0.0,0.0,0.0,0.0,0.0,0.0,0.0,0.0,0.0,0.0,0.0,
0.6264,2.5789763072300405,2.532020980234866,2.604290632166462,0.0,0.0,0.0,2.571762639877123,0.0,0.0,0.0,0.0,0.0,0.0,0.0,0.0,0.0,0.0,0.0,0.0,0.0,0.0,
0.6413,2.5792260750786555,2.5322575710634694,2.604550688257297,0.0,0.0,0.0,2.572011444799807,0.0,0.0,0.0,0.0,0.0,0.0,0.0,0.0,0.0,0.0,0.0,0.0,0.0,0.0,
0.6562,2.5794818465452622,2.532499846798975,2.6048169981186,0.0,0.0,0.0,2.5722662304876125,0.0,0.0,0.0,0.0,0.0,0.0,0.0,0.0,0.0,0.0,0.0,0.0,0.0,0.0,
0.6711,2.5797436309980712,2.5327478161755455,2.605089571708655,0.0,0.0,0.0,2.5725270062940906,0.0,0.0,0.0,0.0,0.0,0.0,0.0,0.0,0.0,0.0,0.0,0.0,0.0,0.0,
0.686,2.580011438037593,2.5330014881440173,2.6053684192329842,0.0,0.0,0.0,2.572793781804865,0.0,0.0,0.0,0.0,0.0,0.0,0.0,0.0,0.0,0.0,0.0,0.0,0.0,0.0,
0.7009,2.580285277497932,2.5332608718729848,2.605653551145571,0.0,0.0,0.0,2.5730665668388295,0.0,0.0,0.0,0.0,0.0,0.0,0.0,0.0,0.0,0.0,0.0,0.0,0.0,0.0,
0.7158,2.580565159447953,2.533525976749993,2.6059449781502892,0.0,0.0,0.0,2.5733453714494114,0.0,0.0,0.0,0.0,0.0,0.0,0.0,0.0,0.0,0.0,0.0,0.0,0.0,0.0,
0.7308,2.580853033689142,2.5337986494534253,2.606244730739047,0.0,0.0,0.0,2.5736321379605376,0.0,0.0,0.0,0.0,0.0,0.0,0.0,0.0,0.0,0.0,0.0,0.0,0.0,0.0,
0.7457,2.581145072500507,2.5340752642321025,2.606548823482022,0.0,0.0,0.0,2.573923053404877,0.0,0.0,0.0,0.0,0.0,0.0,0.0,0.0,0.0,0.0,0.0,0.0,0.0,0.0,
0.7606,2.5814431855031126,2.5343576297155055,2.6068592450195354,0.0,0.0,0.0,2.5742200200793843,0.0,0.0,0.0,0.0,0.0,0.0,0.0,0.0,0.0,0.0,0.0,0.0,0.0,0.0,
0.7755,2.5817473837197884,2.534645756180751,2.607176007070704,0.0,0.0,0.0,2.5745230489904145,0.0,0.0,0.0,0.0,0.0,0.0,0.0,0.0,0.0,0.0,0.0,0.0,0.0,0.0,
0.7904,2.5820576784148974,2.5349396541302074,2.6074991216117223,0.0,0.0,0.0,2.574832151385609,0.0,0.0,0.0,0.0,0.0,0.0,0.0,0.0,0.0,0.0,0.0,0.0,0.0,0.0,
0.8053,2.5823740810957654,2.5352393342928696,2.607828600877475,0.0,0.0,0.0,2.57514733875537,0.0,0.0,0.0,0.0,0.0,0.0,0.0,0.0,0.0,0.0,0.0,0.0,0.0,0.0,
0.8202,2.5826966035141874,2.53554480762569,2.6081644573631015,0.0,0.0,0.0,2.575468622834326,0.0,0.0,0.0,0.0,0.0,0.0,0.0,0.0,0.0,0.0,0.0,0.0,0.0,0.0,
0.8352,2.5830274841424403,2.5358581940611344,2.6085090223978025,0.0,0.0,0.0,2.5757982335337926,0.0,0.0,0.0,0.0,0.0,0.0,0.0,0.0,0.0,0.0,0.0,0.0,0.0,0.0,
0.8501,2.583362323553577,2.5361753265953615,2.6088577148755316,0.0,0.0,0.0,2.57613178834149,0.0,0.0,0.0,0.0,0.0,0.0,0.0,0.0,0.0,0.0,0.0,0.0,0.0,0.0,
0.865,2.5837033195245276,2.5364982866319146,2.609212823726711,0.0,0.0,0.0,2.576471476627718,0.0,0.0,0.0,0.0,0.0,0.0,0.0,0.0,0.0,0.0,0.0,0.0,0.0,0.0,
0.8799,2.5840504848022054,2.536827086055822,2.6095743625060446,0.0,0.0,0.0,2.5768173111213577,0.0,0.0,0.0,0.0,0.0,0.0,0.0,0.0,0.0,0.0,0.0,0.0,0.0,0.0,
0.8948,2.584403832385922,2.537161736987545,2.6099423450370725,0.0,0.0,0.0,2.577169304803513,0.0,0.0,0.0,0.0,0.0,0.0,0.0,0.0,0.0,0.0,0.0,0.0,0.0,0.0,
0.9097,2.5847633755291475,2.537502251784595,2.6103167854140414,0.0,0.0,0.0,2.5775274709092613,0.0,0.0,0.0,0.0,0.0,0.0,0.0,0.0,0.0,0.0,0.0,0.0,0.0,0.0,
0.9246,2.585129127741201,2.537848643043134,2.6106976980036958,0.0,0.0,0.0,2.5778918229293435,0.0,0.0,0.0,0.0,0.0,0.0,0.0,0.0,0.0,0.0,0.0,0.0,0.0,0.0,
0.9396,2.585503620319618,2.538203307823505,2.6110877193911706,0.0,0.0,0.0,2.5782648825114314,0.0,0.0,0.0,0.0,0.0,0.0,0.0,0.0,0.0,0.0,0.0,0.0,0.0,0.0,
0.9545,2.585881874135904,2.5385615304145444,2.6114816642934233,0.0,0.0,0.0,2.578641689614624,0.0,0.0,0.0,0.0,0.0,0.0,0.0,0.0,0.0,0.0,0.0,0.0,0.0,0.0,
0.9694,2.586266379199051,2.538925668794624,2.6118821262662935,0.0,0.0,0.0,2.5790247247533227,0.0,0.0,0.0,0.0,0.0,0.0,0.0,0.0,0.0,0.0,0.0,0.0,0.0,0.0,
0.9843,2.5866571500618463,2.5392957365332336,2.612289120788228,0.0,0.0,0.0,2.5794140024611028,0.0,0.0,0.0,0.0,0.0,0.0,0.0,0.0,0.0,0.0,0.0,0.0,0.0,0.0,
0.9992,2.587054201542274,2.539671747447243,2.6127026636202584,0.0,0.0,0.0,2.5798095375365917,0.0,0.0,0.0,0.0,0.0,0.0,0.0,0.0,0.0,0.0,0.0,0.0,0.0,0.0,
1.0141,2.587457548725479,2.540053715602757,2.6131227708081197,0.0,0.0,0.0,2.580211345045452,0.0,0.0,0.0,0.0,0.0,0.0,0.0,0.0,0.0,0.0,0.0,0.0,0.0,0.0,
1.029,2.587867206965803,2.540441655317011,2.6135494586844743,0.0,0.0,0.0,2.580619440322429,0.0,0.0,0.0,0.0,0.0,0.0,0.0,0.0,0.0,0.0,0.0,0.0,0.0,0.0,
1.0439,2.5882831918888365,2.5408355811602927,2.6139827438710617,0.0,0.0,0.0,2.5810338389733967,0.0,0.0,0.0,0.0,0.0,0.0,0.0,0.0,0.0,0.0,0.0,0.0,0.0,0.0,
1.0589,2.58870837526941,2.54123821233692,2.6144256180091667,0.0,0.0,0.0,2.581457401871832,0.0,0.0,0.0,0.0,0.0,0.0,0.0,0.0,0.0,0.0,0.0,0.0,0.0,0.0,
1.0738,2.5891371042617637,2.5416441955989324,2.6148721934145285,0.0,0.0,0.0,2.581884497758408,0.0,0.0,0.0,0.0,0.0,0.0,0.0,0.0,0.0,0.0,0.0,0.0,0.0,0.0,
1.0887,2.589572208573885,2.5420562103430484,2.6153254178716563,0.0,0.0,0.0,2.5823179455961967,0.0,0.0,0.0,0.0,0.0,0.0,0.0,0.0,0.0,0.0,0.0,0.0,0.0,0.0,
1.1036,2.5900137049398184,2.54247427217377,2.6157853091840595,0.0,0.0,0.0,2.582757762099216,0.0,0.0,0.0,0.0,0.0,0.0,0.0,0.0,0.0,0.0,0.0,0.0,0.0,0.0,
1.1185,2.5904616103759075,2.5428983969589734,2.616251885456271,0.0,0.0,0.0,2.5832039642637175,0.0,0.0,0.0,0.0,0.0,0.0,0.0,0.0,0.0,0.0,0.0,0.0,0.0,0.0,
1.1334,2.590915942183146,2.5433286008321265,2.6167251650963275,0.0,0.0,0.0,2.5836565693705333,0.0,0.0,0.0,0.0,0.0,0.0,0.0,0.0,0.0,0.0,0.0,0.0,0.0,0.0,
1.1483,2.5913767179494913,2.5437649001944944,2.617205166818364,0.0,0.0,0.0,2.5841155949874497,0.0,0.0,0.0,0.0,0.0,0.0,0.0,0.0,0.0,0.0,0.0,0.0,0.0,0.0,
1.1633,2.591847113245644,2.5442103016086985,2.6176951991921222,0.0,0.0,0.0,2.5845842046821548,0.0,0.0,0.0,0.0,0.0,0.0,0.0,0.0,0.0,0.0,0.0,0.0,0.0,0.0,
1.1782,2.592320874406402,2.5446588834288177,2.6181887478962462,0.0,0.0,0.0,2.585056168577155,0.0,0.0,0.0,0.0,0.0,0.0,0.0,0.0,0.0,0.0,0.0,0.0,0.0,0.0,
1.1931,2.592801134161742,2.5451136116884197,2.618689076820851,0.0,0.0,0.0,2.5855346075570043,0.0,0.0,0.0,0.0,0.0,0.0,0.0,0.0,0.0,0.0,0.0,0.0,0.0,0.0,
1.208,2.593287911274536,2.545574503885188,2.6191962059334113,0.0,0.0,0.0,2.5860195403643784,0.0,0.0,0.0,0.0,0.0,0.0,0.0,0.0,0.0,0.0,0.0,0.0,0.0,0.0,
1.2229,2.5937812248073184,2.5460415777965286,2.6197101555212052,0.0,0.0,0.0,2.586510986041684,0.0,0.0,0.0,0.0,0.0,0.0,0.0,0.0,0.0,0.0,0.0,0.0,0.0,0.0,
1.2378,2.594281094125053,2.5465148514820983,2.6202309461942015,0.0,0.0,0.0,2.5870089639337843,0.0,0.0,0.0,0.0,0.0,0.0,0.0,0.0,0.0,0.0,0.0,0.0,0.0,0.0,
1.2527,2.594787538897805,2.546994343286359,2.6207585988880213,0.0,0.0,0.0,2.5875134936907283,0.0,0.0,0.0,0.0,0.0,0.0,0.0,0.0,0.0,0.0,0.0,0.0,0.0,0.0,
1.2677,2.595304044653012,2.547483352876138,2.6212967456586638,0.0,0.0,0.0,2.588028047729271,0.0,0.0,0.0,0.0,0.0,0.0,0.0,0.0,0.0,0.0,0.0,0.0,0.0,0.0,
1.2826,2.5958237450507724,2.54797537915256,2.621838232933977,0.0,0.0,0.0,2.5885457857124368,0.0,0.0,0.0,0.0,0.0,0.0,0.0,0.0,0.0,0.0,0.0,0.0,0.0,0.0,
1.2975,2.596350081912254,2.5484736804464054,2.6223866471697543,0.0,0.0,0.0,2.5890701365094713,0.0,0.0,0.0,0.0,0.0,0.0,0.0,0.0,0.0,0.0,0.0,0.0,0.0,0.0,
1.3124,2.5968830761588197,2.5489782762701654,2.6229420106373107,0.0,0.0,0.0,2.5896011210220986,0.0,0.0,0.0,0.0,0.0,0.0,0.0,0.0,0.0,0.0,0.0,0.0,0.0,0.0,
1.3273,2.5974227490314776,2.5494891864348244,2.623504345949362,0.0,0.0,0.0,2.590138760471888,0.0,0.0,0.0,0.0,0.0,0.0,0.0,0.0,0.0,0.0,0.0,0.0,0.0,0.0,
1.3422,2.5979691220941046,2.5500064310527453,2.62407367606337,0.0,0.0,0.0,2.5906830764034066,0.0,0.0,0.0,0.0,0.0,0.0,0.0,0.0,0.0,0.0,0.0,0.0,0.0,0.0,
1.3571,2.598522217236506,2.550530030540642,2.6246500242848594,0.0,0.0,0.0,2.591234090687336,0.0,0.0,0.0,0.0,0.0,0.0,0.0,0.0,0.0,0.0,0.0,0.0,0.0,0.0,
1.372,2.5990820566776445,2.551060005622573,2.625233414270963,0.0,0.0,0.0,2.591791825523727,0.0,0.0,0.0,0.0,0.0,0.0,0.0,0.0,0.0,0.0,0.0,0.0,0.0,0.0,
1.387,2.5996524886071883,2.5515999988004925,2.6258278567489293,0.0,0.0,0.0,2.59236011471887,0.0,0.0,0.0,0.0,0.0,0.0,0.0,0.0,0.0,0.0,0.0,0.0,0.0,0.0,
1.4019,2.6002259302825688,2.552142831634006,2.626425450327706,0.0,0.0,0.0,2.592931404081427,0.0,0.0,0.0,0.0,0.0,0.0,0.0,0.0,0.0,0.0,0.0,0.0,0.0,0.0,
1.4168,2.6008061850786235,2.552692104255361,2.627030158954832,0.0,0.0,0.0,2.593509482762939,0.0,0.0,0.0,0.0,0.0,0.0,0.0,0.0,0.0,0.0,0.0,0.0,0.0,0.0,
1.4317,2.601393276566668,2.553247838651519,2.627642007732222,0.0,0.0,0.0,2.594094374316803,0.0,0.0,0.0,0.0,0.0,0.0,0.0,0.0,0.0,0.0,0.0,0.0,0.0,0.0,
1.4466,2.601987228664145,2.553810057132755,2.6282610221317637,0.0,0.0,0.0,2.594686102642888,0.0,0.0,0.0,0.0,0.0,0.0,0.0,0.0,0.0,0.0,0.0,0.0,0.0,0.0,
1.4615,2.602588065638354,2.5543787823361326,2.6288872279991833,0.0,0.0,0.0,2.5952846919912234,0.0,0.0,0.0,0.0,0.0,0.0,0.0,0.0,0.0,0.0,0.0,0.0,0.0,0.0,
1.4764,2.603195812110026,2.554954037228832,2.6295206515580505,0.0,0.0,0.0,2.5958901669656362,0.0,0.0,0.0,0.0,0.0,0.0,0.0,0.0,0.0,0.0,0.0,0.0,0.0,0.0,
1.4914,2.603814641915884,2.555539772053412,2.630165643731696,0.0,0.0,0.0,2.5965066859003305,0.0,0.0,0.0,0.0,0.0,0.0,0.0,0.0,0.0,0.0,0.0,0.0,0.0,0.0,
1.5063,2.6044363294739883,2.556128200783925,2.630813631768371,0.0,0.0,0.0,2.5971260540087613,0.0,0.0,0.0,0.0,0.0,0.0,0.0,0.0,0.0,0.0,0.0,0.0,0.0,0.0,
1.5212,2.6050650027241753,2.5567232302841667,2.631468918660027,0.0,0.0,0.0,2.5977523838894565,0.0,0.0,0.0,0.0,0.0,0.0,0.0,0.0,0.0,0.0,0.0,0.0,0.0,0.0,
1.5361,2.605700687741732,2.5573248848802694,2.6321315321854186,0.0,0.0,0.0,2.5983857016024734,0.0,0.0,0.0,0.0,0.0,0.0,0.0,0.0,0.0,0.0,0.0,0.0,0.0,0.0,
1.551,2.606343410974935,2.5579331892469224,2.6328015005221754,0.0,0.0,0.0,2.599026033581344,0.0,0.0,0.0,0.0,0.0,0.0,0.0,0.0,0.0,0.0,0.0,0.0,0.0,0.0,
1.5659,2.6069931992491084,2.558548168411152,2.6334788522512484,0.0,0.0,0.0,2.59967340663717,0.0,0.0,0.0,0.0,0.0,0.0,0.0,0.0,0.0,0.0,0.0,0.0,0.0,0.0,
1.5808,2.607650079770881,2.5591698477563574,2.634163616361479,0.0,0.0,0.0,2.6003278479629057,0.0,0.0,0.0,0.0,0.0,0.0,0.0,0.0,0.0,0.0,0.0,0.0,0.0,0.0,
1.5957,2.6083140801324696,2.5597982530262877,2.634855822254212,0.0,0.0,0.0,2.6009893851376567,0.0,0.0,0.0,0.0,0.0,0.0,0.0,0.0,0.0,0.0,0.0,0.0,0.0,0.0,
1.6107,2.608989756877105,2.56043769599938,2.635560220878981,0.0,0.0,0.0,2.601662557918489,0.0,0.0,0.0,0.0,0.0,0.0,0.0,0.0,0.0,0.0,0.0,0.0,0.0,0.0,
1.6256,2.6096681295183304,2.5610796773957487,2.6362674506655086,0.0,0.0,0.0,2.6023384191931958,0.0,0.0,0.0,0.0,0.0,0.0,0.0,0.0,0.0,0.0,0.0,0.0,0.0,0.0,
1.6405,2.6103537073280214,2.561728464333281,2.6369822131685523,0.0,0.0,0.0,2.6030214616099516,0.0,0.0,0.0,0.0,0.0,0.0,0.0,0.0,0.0,0.0,0.0,0.0,0.0,0.0,
1.6554,2.6110465194879446,2.562384084041666,2.637704539490546,0.0,0.0,0.0,2.603711714340052,0.0,0.0,0.0,0.0,0.0,0.0,0.0,0.0,0.0,0.0,0.0,0.0,0.0,0.0,
1.6703,2.611746595588189,2.563046564132354,2.6384344611710016,0.0,0.0,0.0,2.6044092069638487,0.0,0.0,0.0,0.0,0.0,0.0,0.0,0.0,0.0,0.0,0.0,0.0,0.0,0.0,
1.6852,2.6124539656319863,2.5637159326031203,2.6391720101917318,0.0,0.0,0.0,2.6051139694756125,0.0,0.0,0.0,0.0,0.0,0.0,0.0,0.0,0.0,0.0,0.0,0.0,0.0,0.0,
1.7001,2.6131686600405626,2.564392217842653,2.639917218982163,0.0,0.0,0.0,2.60582603228846,0.0,0.0,0.0,0.0,0.0,0.0,0.0,0.0,0.0,0.0,0.0,0.0,0.0,0.0,
1.7151,2.6138955805467945,2.5650800576062176,2.640675199517142,0.0,0.0,0.0,2.606550279223385,0.0,0.0,0.0,0.0,0.0,0.0,0.0,0.0,0.0,0.0,0.0,0.0,0.0,0.0,
1.73,2.614625066326279,2.5657703100465294,2.6414358789187533,0.0,0.0,0.0,2.6072770850971874,0.0,0.0,0.0,0.0,0.0,0.0,0.0,0.0,0.0,0.0,0.0,0.0,0.0,0.0,
1.7449,2.615361970507288,2.566467567014792,2.6422043183470265,0.0,0.0,0.0,2.608011285289702,0.0,0.0,0.0,0.0,0.0,0.0,0.0,0.0,0.0,0.0,0.0,0.0,0.0,0.0,
1.7598,2.616106325237207,2.5671718585142473,2.6429805520801075,0.0,0.0,0.0,2.608752911943854,0.0,0.0,0.0,0.0,0.0,0.0,0.0,0.0,0.0,0.0,0.0,0.0,0.0,0.0,
1.7747,2.616858163107471,2.5678832149635547,2.6437646148719582,0.0,0.0,0.0,2.6095019976476617,0.0,0.0,0.0,0.0,0.0,0.0,0.0,0.0,0.0,0.0,0.0,0.0,0.0,0.0,
1.7896,2.6176175171591467,2.5686016672021115,2.644556541958286,0.0,0.0,0.0,2.610258575439848,0.0,0.0,0.0,0.0,0.0,0.0,0.0,0.0,0.0,0.0,0.0,0.0,0.0,0.0,
1.8045,2.6183844208884857,2.5693272464952708,2.6453563690626076,0.0,0.0,0.0,2.6110226788154547,0.0,0.0,0.0,0.0,0.0,0.0,0.0,0.0,0.0,0.0,0.0,0.0,0.0,0.0,
1.8195,2.619164131851255,2.5700649265010047,2.6461695805260685,0.0,0.0,0.0,2.611799546292776,0.0,0.0,0.0,0.0,0.0,0.0,0.0,0.0,0.0,0.0,0.0,0.0,0.0,0.0,
1.8344,2.6199462885197136,2.570804903800987,2.6469853704544386,0.0,0.0,0.0,2.6125788542583797,0.0,0.0,0.0,0.0,0.0,0.0,0.0,0.0,0.0,0.0,0.0,0.0,0.0,0.0,
1.8493,2.6207360983797416,2.571552104782257,2.647809170812682,0.0,0.0,0.0,2.6133657913248936,0.0,0.0,0.0,0.0,0.0,0.0,0.0,0.0,0.0,0.0,0.0,0.0,0.0,0.0,
1.8642,2.6215335968102353,2.5723065624722885,2.648641019342465,0.0,0.0,0.0,2.614160392874996,0.0,0.0,0.0,0.0,0.0,0.0,0.0,0.0,0.0,0.0,0.0,0.0,0.0,0.0,
1.8791,2.6223388196752153,2.5730683103527374,2.6494809543056306,0.0,0.0,0.0,2.614962694777861,0.0,0.0,0.0,0.0,0.0,0.0,0.0,0.0,0.0,0.0,0.0,0.0,0.0,0.0,
1.894,2.6231518033301047,2.573837382365385,2.650329014491092,0.0,0.0,0.0,2.615772733395527,0.0,0.0,0.0,0.0,0.0,0.0,0.0,0.0,0.0,0.0,0.0,0.0,0.0,0.0,
1.9089,2.6239725846282296,2.5746138129183156,2.6511852392217587,0.0,0.0,0.0,2.616590545589435,0.0,0.0,0.0,0.0,0.0,0.0,0.0,0.0,0.0,0.0,0.0,0.0,0.0,0.0,
1.9238,2.624801200927413,2.575397636892033,2.6520496683617423,0.0,0.0,0.0,2.617416168727063,0.0,0.0,0.0,0.0,0.0,0.0,0.0,0.0,0.0,0.0,0.0,0.0,0.0,0.0,
1.9388,2.6256433308007274,2.576194225243866,2.6529282271409613,0.0,0.0,0.0,2.6182552610618512,0.0,0.0,0.0,0.0,0.0,0.0,0.0,0.0,0.0,0.0,0.0,0.0,0.0,0.0,
