energies(eV),real_xx,real_yy,real_zz,real_xy,real_yz,real_xz,real_ave,imag_xx,imag_yy,imag_zz,imag_xy,imag_yz,imag_xz,imag_ave,absorption_xx,absorption_yy,absorption_zz,absorption_xy,absorption_yz,absorption_xz,absorption_ave,band_gap
0.0,4.364930728601191,4.364930728601191,4.125788982296713,0.0,0.0,0.0,4.2852168131663655,0.0,0.0,0.0,0.0,0.0,0.0,0.0,0.0,0.0,0.0,0.0,0.0,0.0,0.0,4.1983999999999995
0.0195,4.364948763159854,4.364948763159854,4.125804740169414,0.0,0.0,0.0,4.285234088829707,0.0,0.0,0.0,0.0,0.0,0.0,0.0,0.0,0.0,0.0,0.0,0.0,0.0,0.0,
0.0389,4.365002499160505,4.365002499160505,4.125851692523191,0.0,0.0,0.0,4.2852855636147344,0.0,0.0,0.0,0.0,0.0,0.0,0.0,0.0,0.0,0.0,0.0,0.0,0.0,0.0,
0.0584,4.365092495985216,4.365092495985216,4.125930328110441,0.0,0.0,0.0,4.285371773360292,0.0,0.0,0.0,0.0,0.0,0.0,0.0,0.0,0.0,0.0,0.0,0.0,0.0,0.0,
0.0778,4.365217839531413,4.365217839531413,4.126039848203544,0.0,0.0,0.0,4.285491842422123,0.0,0.0,0.0,0.0,0.0,0.0,0.0,0.0,0.0,0.0,0.0,0.0,0.0,0.0,
0.0973,4.365379834607351,4.365379834607351,4.1261813928602304,0.0,0.0,0.0,4.285647020691644,0.0,0.0,0.0,0.0,0.0,0.0,0.0,0.0,0.0,0.0,0.0,0.0,0.0,0.0,
0.1167,4.365576835828096,4.365576835828096,4.126353524371648,0.0,0.0,0.0,4.28583573200928,0.0,0.0,0.0,0.0,0.0,0.0,0.0,0.0,0.0,0.0,0.0,0.0,0.0,0.0,
0.1362,4.365810893960205,4.365810893960205,4.126558034564798,0.0,0.0,0.0,4.286059940828403,0.0,0.0,0.0,0.0,0.0,0.0,0.0,0.0,0.0,0.0,0.0,0.0,0.0,0.0,
0.1556,4.366079631691585,4.366079631691585,4.126792846187971,0.0,0.0,0.0,4.286317369857048,0.0,0.0,0.0,0.0,0.0,0.0,0.0,0.0,0.0,0.0,0.0,0.0,0.0,0.0,
0.1751,4.366385846584128,4.366385846584128,4.127060403567195,0.0,0.0,0.0,4.286610698911818,0.0,0.0,0.0,0.0,0.0,0.0,0.0,0.0,0.0,0.0,0.0,0.0,0.0,0.0,
0.1945,4.366726428466091,4.366726428466091,4.1273579890958345,0.0,0.0,0.0,4.286936948676005,0.0,0.0,0.0,0.0,0.0,0.0,0.0,0.0,0.0,0.0,0.0,0.0,0.0,0.0,
0.214,4.3671049228377665,4.3671049228377665,4.127688700595376,0.0,0.0,0.0,4.287299515423636,0.0,0.0,0.0,0.0,0.0,0.0,0.0,0.0,0.0,0.0,0.0,0.0,0.0,0.0,
0.2334,4.367517485446686,4.367517485446686,4.128049179040728,0.0,0.0,0.0,4.2876947166447,0.0,0.0,0.0,0.0,0.0,0.0,0.0,0.0,0.0,0.0,0.0,0.0,0.0,0.0,
0.2529,4.3679684111818275,4.3679684111818275,4.128443177013337,0.0,0.0,0.0,4.288126666458997,0.0,0.0,0.0,0.0,0.0,0.0,0.0,0.0,0.0,0.0,0.0,0.0,0.0,0.0,
0.2723,4.368453120198758,4.368453120198758,4.128866692753391,0.0,0.0,0.0,4.288590977716969,0.0,0.0,0.0,0.0,0.0,0.0,0.0,0.0,0.0,0.0,0.0,0.0,0.0,0.0,
0.2918,4.368976658534715,4.368976658534715,4.129324135136306,0.0,0.0,0.0,4.289092484068578,0.0,0.0,0.0,0.0,0.0,0.0,0.0,0.0,0.0,0.0,0.0,0.0,0.0,0.0,
0.3112,4.369533708950083,4.369533708950083,4.129810858097109,0.0,0.0,0.0,4.289626091999092,0.0,0.0,0.0,0.0,0.0,0.0,0.0,0.0,0.0,0.0,0.0,0.0,0.0,0.0,
0.3307,4.370130070701389,4.370130070701389,4.1303319286107865,0.0,0.0,0.0,4.290197356671189,0.0,0.0,0.0,0.0,0.0,0.0,0.0,0.0,0.0,0.0,0.0,0.0,0.0,0.0,
0.3501,4.370759687056626,4.370759687056626,4.130882054480463,0.0,0.0,0.0,4.290800476197905,0.0,0.0,0.0,0.0,0.0,0.0,0.0,0.0,0.0,0.0,0.0,0.0,0.0,0.0,
0.3696,4.371429112876546,4.371429112876546,4.131466962860317,0.0,0.0,0.0,4.291441729537803,0.0,0.0,0.0,0.0,0.0,0.0,0.0,0.0,0.0,0.0,0.0,0.0,0.0,0.0,
0.389,4.372131549543079,4.372131549543079,4.132080713336398,0.0,0.0,0.0,4.292114604140852,0.0,0.0,0.0,0.0,0.0,0.0,0.0,0.0,0.0,0.0,0.0,0.0,0.0,0.0,
0.4085,4.3728743102233745,4.3728743102233745,4.132729695598296,0.0,0.0,0.0,4.292826105348348,0.0,0.0,0.0,0.0,0.0,0.0,0.0,0.0,0.0,0.0,0.0,0.0,0.0,0.0,
0.4279,4.373649851720049,4.373649851720049,4.13340731866894,0.0,0.0,0.0,4.293569007369679,0.0,0.0,0.0,0.0,0.0,0.0,0.0,0.0,0.0,0.0,0.0,0.0,0.0,0.0,
0.4474,4.374466248529433,4.374466248529433,4.134120637409301,0.0,0.0,0.0,4.294351044822722,0.0,0.0,0.0,0.0,0.0,0.0,0.0,0.0,0.0,0.0,0.0,0.0,0.0,0.0,
0.4668,4.375315209878819,4.375315209878819,4.134862407669104,0.0,0.0,0.0,4.295164275808914,0.0,0.0,0.0,0.0,0.0,0.0,0.0,0.0,0.0,0.0,0.0,0.0,0.0,0.0,
0.4863,4.376205574941096,4.376205574941096,4.1356403524,0.0,0.0,0.0,4.296017167427397,0.0,0.0,0.0,0.0,0.0,0.0,0.0,0.0,0.0,0.0,0.0,0.0,0.0,0.0,
0.5057,4.3771283020659535,4.3771283020659535,4.136446571401427,0.0,0.0,0.0,4.296901058511112,0.0,0.0,0.0,0.0,0.0,0.0,0.0,0.0,0.0,0.0,0.0,0.0,0.0,0.0,
0.5252,4.378092998779131,4.378092998779131,4.137289458922042,0.0,0.0,0.0,4.297825152160101,0.0,0.0,0.0,0.0,0.0,0.0,0.0,0.0,0.0,0.0,0.0,0.0,0.0,0.0,
0.5446,4.379089868939997,4.379089868939997,4.138160455563287,0.0,0.0,0.0,4.298780064481093,0.0,0.0,0.0,0.0,0.0,0.0,0.0,0.0,0.0,0.0,0.0,0.0,0.0,0.0,
0.5641,4.380129292437006,4.380129292437006,4.13906863036845,0.0,0.0,0.0,4.299775738414154,0.0,0.0,0.0,0.0,0.0,0.0,0.0,0.0,0.0,0.0,0.0,0.0,0.0,0.0,
0.5835,4.381200714711795,4.381200714711795,4.140004761318725,0.0,0.0,0.0,4.300802063580772,0.0,0.0,0.0,0.0,0.0,0.0,0.0,0.0,0.0,0.0,0.0,0.0,0.0,0.0,
0.603,4.38231529236444,4.38231529236444,4.140978596045692,0.0,0.0,0.0,4.301869726924857,0.0,0.0,0.0,0.0,0.0,0.0,0.0,0.0,0.0,0.0,0.0,0.0,0.0,0.0,
0.6224,4.3834617081718426,4.3834617081718426,4.141980246209216,0.0,0.0,0.0,4.302967887517634,0.0,0.0,0.0,0.0,0.0,0.0,0.0,0.0,0.0,0.0,0.0,0.0,0.0,0.0,
0.6419,4.384651900139332,4.384651900139332,4.14302014212403,0.0,0.0,0.0,4.3041079808008975,0.0,0.0,0.0,0.0,0.0,0.0,0.0,0.0,0.0,0.0,0.0,0.0,0.0,0.0,
0.6614,4.3858801800547536,4.3858801800547536,4.144093313660592,0.0,0.0,0.0,4.3052845579233665,0.0,0.0,0.0,0.0,0.0,0.0,0.0,0.0,0.0,0.0,0.0,0.0,0.0,0.0,
0.6808,4.38714008363017,4.38714008363017,4.145194112668681,0.0,0.0,0.0,4.3064914266430065,0.0,0.0,0.0,0.0,0.0,0.0,0.0,0.0,0.0,0.0,0.0,0.0,0.0,0.0,
0.7003,4.388444731566554,4.388444731566554,4.146334002727169,0.0,0.0,0.0,4.307741155286759,0.0,0.0,0.0,0.0,0.0,0.0,0.0,0.0,0.0,0.0,0.0,0.0,0.0,0.0,
0.7197,4.389780878252923,4.389780878252923,4.147501410754515,0.0,0.0,0.0,4.309021055753454,0.0,0.0,0.0,0.0,0.0,0.0,0.0,0.0,0.0,0.0,0.0,0.0,0.0,0.0,
0.7392,4.391162439087378,4.391162439087378,4.148708494611153,0.0,0.0,0.0,4.310344457595303,0.0,0.0,0.0,0.0,0.0,0.0,0.0,0.0,0.0,0.0,0.0,0.0,0.0,0.0,
0.7586,4.392575388325551,4.392575388325551,4.149942999667642,0.0,0.0,0.0,4.3116979254395815,0.0,0.0,0.0,0.0,0.0,0.0,0.0,0.0,0.0,0.0,0.0,0.0,0.0,0.0,
0.7781,4.394034442015931,4.394034442015931,4.151217783261966,0.0,0.0,0.0,4.313095555764609,0.0,0.0,0.0,0.0,0.0,0.0,0.0,0.0,0.0,0.0,0.0,0.0,0.0,0.0,
0.7975,4.395524788523675,4.395524788523675,4.152519904197243,0.0,0.0,0.0,4.314523160414864,0.0,0.0,0.0,0.0,0.0,0.0,0.0,0.0,0.0,0.0,0.0,0.0,0.0,0.0,
0.817,4.39706195087787,4.39706195087787,4.1538629248147245,0.0,0.0,0.0,4.315995608856821,0.0,0.0,0.0,0.0,0.0,0.0,0.0,0.0,0.0,0.0,0.0,0.0,0.0,0.0,
0.8364,4.398630325441994,4.398630325441994,4.155233212021192,0.0,0.0,0.0,4.317497954301726,0.0,0.0,0.0,0.0,0.0,0.0,0.0,0.0,0.0,0.0,0.0,0.0,0.0,0.0,
0.8559,4.4002462489418965,4.4002462489418965,4.156645039024514,0.0,0.0,0.0,4.3190458456361025,0.0,0.0,0.0,0.0,0.0,0.0,0.0,0.0,0.0,0.0,0.0,0.0,0.0,0.0,
0.8753,4.401893319266007,4.401893319266007,4.158084075189766,0.0,0.0,0.0,4.320623571240593,0.0,0.0,0.0,0.0,0.0,0.0,0.0,0.0,0.0,0.0,0.0,0.0,0.0,0.0,
0.8948,4.403588693948128,4.403588693948128,4.1595653108007085,0.0,0.0,0.0,4.322247566232321,0.0,0.0,0.0,0.0,0.0,0.0,0.0,0.0,0.0,0.0,0.0,0.0,0.0,0.0,
0.9142,4.405315165558049,4.405315165558049,4.1610737117115395,0.0,0.0,0.0,4.323901347609213,0.0,0.0,0.0,0.0,0.0,0.0,0.0,0.0,0.0,0.0,0.0,0.0,0.0,0.0,
0.9337,4.407090719953986,4.407090719953986,4.162624991845949,0.0,0.0,0.0,4.3256021439179735,0.0,0.0,0.0,0.0,0.0,0.0,0.0,0.0,0.0,0.0,0.0,0.0,0.0,0.0,
0.9531,4.408897337164047,4.408897337164047,4.16420340724633,0.0,0.0,0.0,4.327332693858142,0.0,0.0,0.0,0.0,0.0,0.0,0.0,0.0,0.0,0.0,0.0,0.0,0.0,0.0,
0.9726,4.410753839303164,4.410753839303164,4.165825402404658,0.0,0.0,0.0,4.329111027003662,0.0,0.0,0.0,0.0,0.0,0.0,0.0,0.0,0.0,0.0,0.0,0.0,0.0,0.0,
0.992,4.412641386245831,4.412641386245831,4.167474516910259,0.0,0.0,0.0,4.330919096467307,0.0,0.0,0.0,0.0,0.0,0.0,0.0,0.0,0.0,0.0,0.0,0.0,0.0,0.0,
1.0115,4.414579644723174,4.414579644723174,4.169167933126239,0.0,0.0,0.0,4.332775740857529,0.0,0.0,0.0,0.0,0.0,0.0,0.0,0.0,0.0,0.0,0.0,0.0,0.0,0.0,
1.0309,4.416548946445328,4.416548946445328,4.170888467198379,0.0,0.0,0.0,4.334662120029678,0.0,0.0,0.0,0.0,0.0,0.0,0.0,0.0,0.0,0.0,0.0,0.0,0.0,0.0,
1.0504,4.418569811558452,4.418569811558452,4.172654047048917,0.0,0.0,0.0,4.336597890055274,0.0,0.0,0.0,0.0,0.0,0.0,0.0,0.0,0.0,0.0,0.0,0.0,0.0,0.0,
1.0698,4.420621735187602,4.420621735187602,4.1744467580308715,0.0,0.0,0.0,4.338563409468692,0.0,0.0,0.0,0.0,0.0,0.0,0.0,0.0,0.0,0.0,0.0,0.0,0.0,0.0,
1.0893,4.422726100145249,4.422726100145249,4.176285281710305,0.0,0.0,0.0,4.340579160666935,0.0,0.0,0.0,0.0,0.0,0.0,0.0,0.0,0.0,0.0,0.0,0.0,0.0,0.0,
1.1087,4.4248615561294145,4.4248615561294145,4.178150964929166,0.0,0.0,0.0,4.342624692395998,0.0,0.0,0.0,0.0,0.0,0.0,0.0,0.0,0.0,0.0,0.0,0.0,0.0,0.0,
1.1282,4.427050358336195,4.427050358336195,4.1800632513911555,0.0,0.0,0.0,4.344721322687849,0.0,0.0,0.0,0.0,0.0,0.0,0.0,0.0,0.0,0.0,0.0,0.0,0.0,0.0,
1.1476,4.429270301761289,4.429270301761289,4.182002741329045,0.0,0.0,0.0,4.346847781617208,0.0,0.0,0.0,0.0,0.0,0.0,0.0,0.0,0.0,0.0,0.0,0.0,0.0,0.0,
1.1671,4.431544524182456,4.431544524182456,4.18398964949987,0.0,0.0,0.0,4.349026232621594,0.0,0.0,0.0,0.0,0.0,0.0,0.0,0.0,0.0,0.0,0.0,0.0,0.0,0.0,
1.1865,4.433849956171365,4.433849956171365,4.186003821037941,0.0,0.0,0.0,4.351234577793557,0.0,0.0,0.0,0.0,0.0,0.0,0.0,0.0,0.0,0.0,0.0,0.0,0.0,0.0,
1.206,4.43621062878182,4.43621062878182,4.188066251105159,0.0,0.0,0.0,4.353495836222933,0.0,0.0,0.0,0.0,0.0,0.0,0.0,0.0,0.0,0.0,0.0,0.0,0.0,0.0,
1.2254,4.438602597979916,4.438602597979916,4.190156020844698,0.0,0.0,0.0,4.355787072268177,0.0,0.0,0.0,0.0,0.0,0.0,0.0,0.0,0.0,0.0,0.0,0.0,0.0,0.0,
1.2449,4.441050799302709,4.441050799302709,4.192294915625528,0.0,0.0,0.0,4.358132171410316,0.0,0.0,0.0,0.0,0.0,0.0,0.0,0.0,0.0,0.0,0.0,0.0,0.0,0.0,
1.2643,4.443530403454449,4.443530403454449,4.194461243290562,0.0,0.0,0.0,4.360507350066487,0.0,0.0,0.0,0.0,0.0,0.0,0.0,0.0,0.0,0.0,0.0,0.0,0.0,0.0,
1.2838,4.446067262193302,4.446067262193302,4.19667758968431,0.0,0.0,0.0,4.3629373713569715,0.0,0.0,0.0,0.0,0.0,0.0,0.0,0.0,0.0,0.0,0.0,0.0,0.0,0.0,
1.3033,4.448649004527608,4.448649004527608,4.198933147044154,0.0,0.0,0.0,4.365410385366457,0.0,0.0,0.0,0.0,0.0,0.0,0.0,0.0,0.0,0.0,0.0,0.0,0.0,0.0,
1.3227,4.451262346587587,4.451262346587587,4.201216310140344,0.0,0.0,0.0,4.367913667771839,0.0,0.0,0.0,0.0,0.0,0.0,0.0,0.0,0.0,0.0,0.0,0.0,0.0,0.0,
1.3422,4.453934538887641,4.453934538887641,4.2035508869022635,0.0,0.0,0.0,4.370473321559182,0.0,0.0,0.0,0.0,0.0,0.0,0.0,0.0,0.0,0.0,0.0,0.0,0.0,0.0,
1.3616,4.456638487919209,4.456638487919209,4.205913207304569,0.0,0.0,0.0,4.373063394380996,0.0,0.0,0.0,0.0,0.0,0.0,0.0,0.0,0.0,0.0,0.0,0.0,0.0,0.0,
1.3811,4.459402392225571,4.459402392225571,4.208327907589995,0.0,0.0,0.0,4.375710897347045,0.0,0.0,0.0,0.0,0.0,0.0,0.0,0.0,0.0,0.0,0.0,0.0,0.0,0.0,
1.4005,4.462198231756667,4.462198231756667,4.210770508354022,0.0,0.0,0.0,4.378388990622452,0.0,0.0,0.0,0.0,0.0,0.0,0.0,0.0,0.0,0.0,0.0,0.0,0.0,0.0,
1.42,4.465055166834861,4.465055166834861,4.213266486191904,0.0,0.0,0.0,4.381125606620542,0.0,0.0,0.0,0.0,0.0,0.0,0.0,0.0,0.0,0.0,0.0,0.0,0.0,0.0,
1.4394,4.4679442378727625,4.4679442378727625,4.215790540955656,0.0,0.0,0.0,4.38389300556706,0.0,0.0,0.0,0.0,0.0,0.0,0.0,0.0,0.0,0.0,0.0,0.0,0.0,0.0,
1.4589,4.4708955813462925,4.4708955813462925,4.218369002181959,0.0,0.0,0.0,4.3867200549581815,0.0,0.0,0.0,0.0,0.0,0.0,0.0,0.0,0.0,0.0,0.0,0.0,0.0,0.0,
1.4783,4.4738792845637585,4.4738792845637585,4.220975737112882,0.0,0.0,0.0,4.389578102080133,0.0,0.0,0.0,0.0,0.0,0.0,0.0,0.0,0.0,0.0,0.0,0.0,0.0,0.0,
1.4978,4.47692647517807,4.47692647517807,4.223637941387365,0.0,0.0,0.0,4.3924969639145015,0.0,0.0,0.0,0.0,0.0,0.0,0.0,0.0,0.0,0.0,0.0,0.0,0.0,0.0,
1.5172,4.48000627323402,4.48000627323402,4.226328637249919,0.0,0.0,0.0,4.395447061239319,0.0,0.0,0.0,0.0,0.0,0.0,0.0,0.0,0.0,0.0,0.0,0.0,0.0,0.0,
1.5367,4.483150813260034,4.483150813260034,4.229075900197511,0.0,0.0,0.0,4.398459175572526,0.0,0.0,0.0,0.0,0.0,0.0,0.0,0.0,0.0,0.0,0.0,0.0,0.0,0.0,
1.5561,4.486328233263673,4.486328233263673,4.231851894548752,0.0,0.0,0.0,4.401502787025366,0.0,0.0,0.0,0.0,0.0,0.0,0.0,0.0,0.0,0.0,0.0,0.0,0.0,0.0,
1.5756,4.48957169105028,4.48957169105028,4.234685590034319,0.0,0.0,0.0,4.404609657378293,0.0,0.0,0.0,0.0,0.0,0.0,0.0,0.0,0.0,0.0,0.0,0.0,0.0,0.0,
1.595,4.492848327178033,4.492848327178033,4.237548279556291,0.0,0.0,0.0,4.407748311304119,0.0,0.0,0.0,0.0,0.0,0.0,0.0,0.0,0.0,0.0,0.0,0.0,0.0,0.0,
1.6145,4.496192339863204,4.496192339863204,4.240469842101087,0.0,0.0,0.0,4.410951507275832,0.0,0.0,0.0,0.0,0.0,0.0,0.0,0.0,0.0,0.0,0.0,0.0,0.0,0.0,
1.6339,4.499569856139226,4.499569856139226,4.243420685079419,0.0,0.0,0.0,4.414186799119291,0.0,0.0,0.0,0.0,0.0,0.0,0.0,0.0,0.0,0.0,0.0,0.0,0.0,0.0,
1.6534,4.503016132531192,4.503016132531192,4.246431612429819,0.0,0.0,0.0,4.417487959164068,0.0,0.0,0.0,0.0,0.0,0.0,0.0,0.0,0.0,0.0,0.0,0.0,0.0,0.0,
1.6728,4.506496265782521,4.506496265782521,4.2494721313884956,0.0,0.0,0.0,4.420821554317846,0.0,0.0,0.0,0.0,0.0,0.0,0.0,0.0,0.0,0.0,0.0,0.0,0.0,0.0,
1.6923,4.510046589422526,4.510046589422526,4.252573987246748,0.0,0.0,0.0,4.424222388697267,0.0,0.0,0.0,0.0,0.0,0.0,0.0,0.0,0.0,0.0,0.0,0.0,0.0,0.0,
1.7117,4.513631152420971,4.513631152420971,4.255705771750057,0.0,0.0,0.0,4.427656025530666,0.0,0.0,0.0,0.0,0.0,0.0,0.0,0.0,0.0,0.0,0.0,0.0,0.0,0.0,
1.7312,4.517287384840255,4.517287384840255,4.258900188679291,0.0,0.0,0.0,4.431158319453267,0.0,0.0,0.0,0.0,0.0,0.0,0.0,0.0,0.0,0.0,0.0,0.0,0.0,0.0,
1.7506,4.5209782696450285,4.5209782696450285,4.2621248983130045,0.0,0.0,0.0,4.434693812534354,0.0,0.0,0.0,0.0,0.0,0.0,0.0,0.0,0.0,0.0,0.0,0.0,0.0,0.0,
1.7701,4.524742353830756,4.524742353830756,4.265413580828575,0.0,0.0,0.0,4.438299429496696,0.0,0.0,0.0,0.0,0.0,0.0,0.0,0.0,0.0,0.0,0.0,0.0,0.0,0.0,
1.7895,4.5285415353454646,4.5285415353454646,4.268732948373124,0.0,0.0,0.0,4.441938673021351,0.0,0.0,0.0,0.0,0.0,0.0,0.0,0.0,0.0,0.0,0.0,0.0,0.0,0.0,
1.809,4.5324154994300745,4.5324154994300745,4.272117676234035,0.0,0.0,0.0,4.445649558364728,0.0,0.0,0.0,0.0,0.0,0.0,0.0,0.0,0.0,0.0,0.0,0.0,0.0,0.0,
1.8284,4.536325039190823,4.536325039190823,4.275533511044201,0.0,0.0,0.0,4.4493945298086155,0.0,0.0,0.0,0.0,0.0,0.0,0.0,0.0,0.0,0.0,0.0,0.0,0.0,0.0,
1.8479,4.540311000381784,4.540311000381784,4.279016142759502,0.0,0.0,0.0,4.45321271450769,0.0,0.0,0.0,0.0,0.0,0.0,0.0,0.0,0.0,0.0,0.0,0.0,0.0,0.0,
1.8673,4.544333050592986,4.544333050592986,4.282530334365523,0.0,0.0,0.0,4.457065478517165,0.0,0.0,0.0,0.0,0.0,0.0,0.0,0.0,0.0,0.0,0.0,0.0,0.0,0.0,
1.8868,4.5484332193612484,4.5484332193612484,4.286112810931915,0.0,0.0,0.0,4.4609930832181375,0.0,0.0,0.0,0.0,0.0,0.0,0.0,0.0,0.0,0.0,0.0,0.0,0.0,0.0,
1.9062,4.5525700271984775,4.5525700271984775,4.28972733287943,0.0,0.0,0.0,4.464955795758795,0.0,0.0,0.0,0.0,0.0,0.0,0.0,0.0,0.0,0.0,0.0,0.0,0.0,0.0,
1.9257,4.556786711744978,4.556786711744978,4.293411681767449,0.0,0.0,0.0,4.468995035085801,0.0,0.0,0.0,0.0,0.0,0.0,0.0,0.0,0.0,0.0,0.0,0.0,0.0,0.0,
1.9452,4.5610627044493945,4.5610627044493945,4.29714788895701,0.0,0.0,0.0,4.473091099285266,0.0,0.0,0.0,0.0,0.0,0.0,0.0,0.0,0.0,0.0,0.0,0.0,0.0,0.0,
1.9646,4.565376234967592,4.565376234967592,4.300916935122899,0.0,0.0,0.0,4.4772231350193605,0.0,0.0,0.0,0.0,0.0,0.0,0.0,0.0,0.0,0.0,0.0,0.0,0.0,0.0,
1.9841,4.5697724027474065,4.5697724027474065,4.304758230208607,0.0,0.0,0.0,4.481434345234473,0.0,0.0,0.0,0.0,0.0,0.0,0.0,0.0,0.0,0.0,0.0,0.0,0.0,0.0,
2.0035,4.574206758512502,4.574206758512502,4.308632938613224,0.0,0.0,0.0,4.485682151879409,0.0,0.0,0.0,0.0,0.0,0.0,0.0,0.0,0.0,0.0,0.0,0.0,0.0,0.0,
2.023,4.578725675608824,4.578725675608824,4.3125815846316,0.0,0.0,0.0,4.490010978616416,0.0,0.0,0.0,0.0,0.0,0.0,0.0,0.0,0.0,0.0,0.0,0.0,0.0,0.0,
2.0424,4.58328347458703,4.58328347458703,4.316564257140707,0.0,0.0,0.0,4.4943770687715885,0.0,0.0,0.0,0.0,0.0,0.0,0.0,0.0,0.0,0.0,0.0,0.0,0.0,0.0,
2.0619,4.5879278311361364,4.5879278311361364,4.320622619816582,0.0,0.0,0.0,4.498826094029618,0.0,0.0,0.0,0.0,0.0,0.0,0.0,0.0,0.0,0.0,0.0,0.0,0.0,0.0,
2.0813,4.592611809538184,4.592611809538184,4.324715663085189,0.0,0.0,0.0,4.503313094053852,0.0,0.0,0.0,0.0,0.0,0.0,0.0,0.0,0.0,0.0,0.0,0.0,0.0,0.0,
2.1008,4.597384417591446,4.597384417591446,4.328886216205541,0.0,0.0,0.0,4.507885017129477,0.0,0.0,0.0,0.0,0.0,0.0,0.0,0.0,0.0,0.0,0.0,0.0,0.0,0.0,
2.1202,4.602197436069281,4.602197436069281,4.333092147209996,0.0,0.0,0.0,4.512495673116185,0.0,0.0,0.0,0.0,0.0,0.0,0.0,0.0,0.0,0.0,0.0,0.0,0.0,0.0,
2.1397,4.607101236039884,4.607101236039884,4.337377478378688,0.0,0.0,0.0,4.517193316819485,0.0,0.0,0.0,0.0,0.0,0.0,0.0,0.0,0.0,0.0,0.0,0.0,0.0,0.0,
2.1591,4.6120462863262,4.6120462863262,4.341698930343034,0.0,0.0,0.0,4.5219305009984785,0.0,0.0,0.0,0.0,0.0,0.0,0.0,0.0,0.0,0.0,0.0,0.0,0.0,0.0,
2.1786,4.617084353898701,4.617084353898701,4.346101747148509,0.0,0.0,0.0,4.526756818315303,0.0,0.0,0.0,0.0,0.0,0.0,0.0,0.0,0.0,0.0,0.0,0.0,0.0,0.0,
2.198,4.622164565925978,4.622164565925978,4.350541475899067,0.0,0.0,0.0,4.531623535917007,0.0,0.0,0.0,0.0,0.0,0.0,0.0,0.0,0.0,0.0,0.0,0.0,0.0,0.0,
2.2175,4.627340119469197,4.627340119469197,4.355064612530839,0.0,0.0,0.0,4.536581617156411,0.0,0.0,0.0,0.0,0.0,0.0,0.0,0.0,0.0,0.0,0.0,0.0,0.0,0.0,
2.2369,4.6325587690109105,4.6325587690109105,4.359625503316221,0.0,0.0,0.0,4.541581013779347,0.0,0.0,0.0,0.0,0.0,0.0,0.0,0.0,0.0,0.0,0.0,0.0,0.0,0.0,
2.2564,4.637875177537839,4.637875177537839,4.364271927668638,0.0,0.0,0.0,4.546674094248105,0.0,0.0,0.0,0.0,0.0,0.0,0.0,0.0,0.0,0.0,0.0,0.0,0.0,0.0,
2.2758,4.6432356944180135,4.6432356944180135,4.368957002485879,0.0,0.0,0.0,4.551809463773968,0.0,0.0,0.0,0.0,0.0,0.0,0.0,0.0,0.0,0.0,0.0,0.0,0.0,0.0,
2.2953,4.648696486142209,4.648696486142209,4.373729823793642,0.0,0.0,0.0,4.557040932026021,0.0,0.0,0.0,0.0,0.0,0.0,0.0,0.0,0.0,0.0,0.0,0.0,0.0,0.0,
2.3147,4.6542024630641645,4.6542024630641645,4.378542249265815,0.0,0.0,0.0,4.5623157251313815,0.0,0.0,0.0,0.0,0.0,0.0,0.0,0.0,0.0,0.0,0.0,0.0,0.0,0.0,
2.3342,4.659811334606539,4.659811334606539,4.383444726317785,0.0,0.0,0.0,4.567689131843621,0.0,0.0,0.0,0.0,0.0,0.0,0.0,0.0,0.0,0.0,0.0,0.0,0.0,0.0,
2.3536,4.665466536658306,4.665466536658306,4.388387822173536,0.0,0.0,0.0,4.573106965163382,0.0,0.0,0.0,0.0,0.0,0.0,0.0,0.0,0.0,0.0,0.0,0.0,0.0,0.0,
2.3731,4.671227362964819,4.671227362964819,4.39342337215924,0.0,0.0,0.0,4.578626032696293,0.0,0.0,0.0,0.0,0.0,0.0,0.0,0.0,0.0,0.0,0.0,0.0,0.0,0.0,
2.3925,4.677035737863845,4.677035737863845,4.398500620369854,0.0,0.0,0.0,4.584190698699181,0.0,0.0,0.0,0.0,0.0,0.0,0.0,0.0,0.0,0.0,0.0,0.0,0.0,0.0,
2.412,4.682952582900729,4.682952582900729,4.403672828416806,0.0,0.0,0.0,4.589859331406088,0.0,0.0,0.0,0.0,0.0,0.0,0.0,0.0,0.0,0.0,0.0,0.0,0.0,0.0,
2.4314,4.688918272048682,4.688918272048682,4.408887883052608,0.0,0.0,0.0,4.5955748090499915,0.0,0.0,0.0,0.0,0.0,0.0,0.0,0.0,0.0,0.0,0.0,0.0,0.0,0.0,
2.4509,4.694995400350214,4.694995400350214,4.414200512520653,0.0,0.0,0.0,4.6013971044070265,0.0,0.0,0.0,0.0,0.0,0.0,0.0,0.0,0.0,0.0,0.0,0.0,0.0,0.0,
2.4703,4.701122750775957,4.701122750775957,4.4195572103957375,0.0,0.0,0.0,4.607267570649217,0.0,0.0,0.0,0.0,0.0,0.0,0.0,0.0,0.0,0.0,0.0,0.0,0.0,0.0,
2.4898,4.707364639927876,4.707364639927876,4.425014214001525,0.0,0.0,0.0,4.613247831285759,0.0,0.0,0.0,0.0,0.0,0.0,0.0,0.0,0.0,0.0,0.0,0.0,0.0,0.0,
2.5092,4.713658217206332,4.713658217206332,4.430516586183931,0.0,0.0,0.0,4.619277673532198,0.0,0.0,0.0,0.0,0.0,0.0,0.0,0.0,0.0,0.0,0.0,0.0,0.0,0.0,
2.5287,4.72006957135809,4.72006957135809,4.436122118036927,0.0,0.0,0.0,4.625420420251036,0.0,0.0,0.0,0.0,0.0,0.0,0.0,0.0,0.0,0.0,0.0,0.0,0.0,0.0,
2.5481,4.7265341736032145,4.7265341736032145,4.441774402310002,0.0,0.0,0.0,4.631614249838811,0.0,0.0,0.0,0.0,0.0,0.0,0.0,0.0,0.0,0.0,0.0,0.0,0.0,0.0,
2.5676,4.733119938113516,4.733119938113516,4.447532830951815,0.0,0.0,0.0,4.637924235726282,0.0,0.0,0.0,0.0,0.0,0.0,0.0,0.0,0.0,0.0,0.0,0.0,0.0,0.0,
