energies(eV),real_xx,real_yy,real_zz,real_xy,real_yz,real_xz,real_ave,imag_xx,imag_yy,imag_zz,imag_xy,imag_yz,imag_xz,imag_ave,absorption_xx,absorption_yy,absorption_zz,absorption_xy,absorption_yz,absorption_xz,absorption_ave,band_gap
0.0,3.8430754913449303,3.8430754913449303,2.6319000292766006,0.0,0.0,0.0,3.4393503373221535,0.0,0.0,0.0,0.0,0.0,0.0,0.0,0.0,0.0,0.0,0.0,0.0,0.0,0.0,4.1265
0.0155,3.8430875817090655,3.8430875817090655,2.63190368722407,0.0,0.0,0.0,3.439359616880734,0.0,0.0,0.0,0.0,0.0,0.0,0.0,0.0,0.0,0.0,0.0,0.0,0.0,0.0,
0.031,3.8431238536916776,3.8431238536916776,2.631914661232048,0.0,0.0,0.0,3.4393874562051345,0.0,0.0,0.0,0.0,0.0,0.0,0.0,0.0,0.0,0.0,0.0,0.0,0.0,0.0,
0.0465,3.8431843099634024,3.8431843099634024,2.631932951797202,0.0,0.0,0.0,3.4394338572413354,0.0,0.0,0.0,0.0,0.0,0.0,0.0,0.0,0.0,0.0,0.0,0.0,0.0,0.0,
0.062,3.8432689549760473,3.8432689549760473,2.6319585597474484,0.0,0.0,0.0,3.439498823233181,0.0,0.0,0.0,0.0,0.0,0.0,0.0,0.0,0.0,0.0,0.0,0.0,0.0,0.0,
0.0775,3.8433777949633994,3.8433777949633994,2.6319914862420246,0.0,0.0,0.0,3.439582358722941,0.0,0.0,0.0,0.0,0.0,0.0,0.0,0.0,0.0,0.0,0.0,0.0,0.0,0.0,
0.093,3.8435108379426923,3.8435108379426923,2.6320317327716882,0.0,0.0,0.0,3.4396844695523576,0.0,0.0,0.0,0.0,0.0,0.0,0.0,0.0,0.0,0.0,0.0,0.0,0.0,0.0,
0.1084,3.843667001537288,3.843667001537288,2.632078970795229,0.0,0.0,0.0,3.439804324623269,0.0,0.0,0.0,0.0,0.0,0.0,0.0,0.0,0.0,0.0,0.0,0.0,0.0,0.0,
0.1239,3.843848325367472,3.843848325367472,2.6321338159354193,0.0,0.0,0.0,3.4399434888901212,0.0,0.0,0.0,0.0,0.0,0.0,0.0,0.0,0.0,0.0,0.0,0.0,0.0,0.0,
0.1394,3.8440538868688923,3.8440538868688923,2.6321959875576404,0.0,0.0,0.0,3.440101253765141,0.0,0.0,0.0,0.0,0.0,0.0,0.0,0.0,0.0,0.0,0.0,0.0,0.0,0.0,
0.1549,3.84428370120201,3.84428370120201,2.6322654884794865,0.0,0.0,0.0,3.4402776302945024,0.0,0.0,0.0,0.0,0.0,0.0,0.0,0.0,0.0,0.0,0.0,0.0,0.0,0.0,
0.1704,3.844537785323175,3.844537785323175,2.6323423218517794,0.0,0.0,0.0,3.44047263083271,0.0,0.0,0.0,0.0,0.0,0.0,0.0,0.0,0.0,0.0,0.0,0.0,0.0,0.0,
0.1859,3.84481615798845,3.84481615798845,2.6324264911590314,0.0,0.0,0.0,3.4406862690453104,0.0,0.0,0.0,0.0,0.0,0.0,0.0,0.0,0.0,0.0,0.0,0.0,0.0,0.0,
0.2014,3.845118839757443,3.845118839757443,2.6325180002200543,0.0,0.0,0.0,3.4409185599116463,0.0,0.0,0.0,0.0,0.0,0.0,0.0,0.0,0.0,0.0,0.0,0.0,0.0,0.0,
0.2169,3.845445852997994,3.845445852997994,2.63261685318849,0.0,0.0,0.0,3.4411695197281595,0.0,0.0,0.0,0.0,0.0,0.0,0.0,0.0,0.0,0.0,0.0,0.0,0.0,0.0,
0.2324,3.8457972218909227,3.8457972218909227,2.632723054553538,0.0,0.0,0.0,3.441439166111794,0.0,0.0,0.0,0.0,0.0,0.0,0.0,0.0,0.0,0.0,0.0,0.0,0.0,0.0,
0.2479,3.846172972435271,3.846172972435271,2.6328366091406306,0.0,0.0,0.0,3.441727518003724,0.0,0.0,0.0,0.0,0.0,0.0,0.0,0.0,0.0,0.0,0.0,0.0,0.0,0.0,
0.2634,3.8465731324540617,3.8465731324540617,2.6329575221122186,0.0,0.0,0.0,3.4420345956734475,0.0,0.0,0.0,0.0,0.0,0.0,0.0,0.0,0.0,0.0,0.0,0.0,0.0,0.0,
0.2789,3.8469977316002884,3.8469977316002884,2.6330857989685343,0.0,0.0,0.0,3.442360420723037,0.0,0.0,0.0,0.0,0.0,0.0,0.0,0.0,0.0,0.0,0.0,0.0,0.0,0.0,
0.2944,3.8474468013634353,3.8474468013634353,2.6332214455485814,0.0,0.0,0.0,3.4427050160918173,0.0,0.0,0.0,0.0,0.0,0.0,0.0,0.0,0.0,0.0,0.0,0.0,0.0,0.0,
0.3098,3.8479172411530826,3.8479172411530826,2.6333635216517783,0.0,0.0,0.0,3.4430660013193144,0.0,0.0,0.0,0.0,0.0,0.0,0.0,0.0,0.0,0.0,0.0,0.0,0.0,0.0,
0.3253,3.8484151955655035,3.8484151955655035,2.633513878905437,0.0,0.0,0.0,3.4434480900121485,0.0,0.0,0.0,0.0,0.0,0.0,0.0,0.0,0.0,0.0,0.0,0.0,0.0,0.0,
0.3408,3.8489377259080366,3.8489377259080366,2.633671625396085,0.0,0.0,0.0,3.4438490257373857,0.0,0.0,0.0,0.0,0.0,0.0,0.0,0.0,0.0,0.0,0.0,0.0,0.0,0.0,
0.3563,3.849484871077001,3.849484871077001,2.633836768325093,0.0,0.0,0.0,3.444268836826365,0.0,0.0,0.0,0.0,0.0,0.0,0.0,0.0,0.0,0.0,0.0,0.0,0.0,0.0,
0.3718,3.850056671843691,3.850056671843691,2.634009315237733,0.0,0.0,0.0,3.444707552975038,0.0,0.0,0.0,0.0,0.0,0.0,0.0,0.0,0.0,0.0,0.0,0.0,0.0,0.0,
0.3873,3.850653170863392,3.850653170863392,2.634189274024398,0.0,0.0,0.0,3.445165205250394,0.0,0.0,0.0,0.0,0.0,0.0,0.0,0.0,0.0,0.0,0.0,0.0,0.0,0.0,
0.4028,3.8512744126848,3.8512744126848,2.6343766529218313,0.0,0.0,0.0,3.445641826097144,0.0,0.0,0.0,0.0,0.0,0.0,0.0,0.0,0.0,0.0,0.0,0.0,0.0,0.0,
0.4183,3.8519204437598846,3.8519204437598846,2.6345714605144694,0.0,0.0,0.0,3.4461374493447465,0.0,0.0,0.0,0.0,0.0,0.0,0.0,0.0,0.0,0.0,0.0,0.0,0.0,0.0,
0.4338,3.85259131245415,3.85259131245415,2.6347737057358507,0.0,0.0,0.0,3.446652110214717,0.0,0.0,0.0,0.0,0.0,0.0,0.0,0.0,0.0,0.0,0.0,0.0,0.0,0.0,
0.4493,3.853287069057383,3.853287069057383,2.6349833978700046,0.0,0.0,0.0,3.4471858453282564,0.0,0.0,0.0,0.0,0.0,0.0,0.0,0.0,0.0,0.0,0.0,0.0,0.0,0.0,
0.4648,3.854007765794862,3.854007765794862,2.6352005465529995,0.0,0.0,0.0,3.4477386927142413,0.0,0.0,0.0,0.0,0.0,0.0,0.0,0.0,0.0,0.0,0.0,0.0,0.0,0.0,
0.4803,3.854753456838957,3.854753456838957,2.635425161774506,0.0,0.0,0.0,3.4483106918174733,0.0,0.0,0.0,0.0,0.0,0.0,0.0,0.0,0.0,0.0,0.0,0.0,0.0,0.0,
0.4958,3.8555241983213113,3.8555241983213113,2.6356572538793546,0.0,0.0,0.0,3.4489018835073257,0.0,0.0,0.0,0.0,0.0,0.0,0.0,0.0,0.0,0.0,0.0,0.0,0.0,0.0,
0.5112,3.856314833229382,3.856314833229382,2.635895263872853,0.0,0.0,0.0,3.4495083101105393,0.0,0.0,0.0,0.0,0.0,0.0,0.0,0.0,0.0,0.0,0.0,0.0,0.0,0.0,
0.5267,3.8571356893081976,3.8571356893081976,2.636142293793733,0.0,0.0,0.0,3.4501378908033757,0.0,0.0,0.0,0.0,0.0,0.0,0.0,0.0,0.0,0.0,0.0,0.0,0.0,0.0,
0.5422,3.8579817756965658,3.8579817756965658,2.6363968337061285,0.0,0.0,0.0,3.450786795033087,0.0,0.0,0.0,0.0,0.0,0.0,0.0,0.0,0.0,0.0,0.0,0.0,0.0,0.0,
0.5577,3.8588531564804187,3.8588531564804187,2.636658895390835,0.0,0.0,0.0,3.451455069450558,0.0,0.0,0.0,0.0,0.0,0.0,0.0,0.0,0.0,0.0,0.0,0.0,0.0,0.0,
0.5732,3.859749897772436,3.859749897772436,2.6369284909929434,0.0,0.0,0.0,3.4521427621792715,0.0,0.0,0.0,0.0,0.0,0.0,0.0,0.0,0.0,0.0,0.0,0.0,0.0,0.0,
0.5887,3.8606720677271897,3.8606720677271897,2.6372056330237514,0.0,0.0,0.0,3.4528499228260436,0.0,0.0,0.0,0.0,0.0,0.0,0.0,0.0,0.0,0.0,0.0,0.0,0.0,0.0,
0.6042,3.8616197365564116,3.8616197365564116,2.637490334362914,0.0,0.0,0.0,3.4535766024919123,0.0,0.0,0.0,0.0,0.0,0.0,0.0,0.0,0.0,0.0,0.0,0.0,0.0,0.0,
0.6197,3.8625929765452094,3.8625929765452094,2.637782608260527,0.0,0.0,0.0,3.454322853783649,0.0,0.0,0.0,0.0,0.0,0.0,0.0,0.0,0.0,0.0,0.0,0.0,0.0,0.0,
0.6352,3.863591862068393,3.863591862068393,2.638082468339326,0.0,0.0,0.0,3.4550887308253704,0.0,0.0,0.0,0.0,0.0,0.0,0.0,0.0,0.0,0.0,0.0,0.0,0.0,0.0,
0.6507,3.864616469607803,3.864616469607803,2.6383899285969754,0.0,0.0,0.0,3.4558742892708607,0.0,0.0,0.0,0.0,0.0,0.0,0.0,0.0,0.0,0.0,0.0,0.0,0.0,0.0,
0.6662,3.8656668777696392,3.8656668777696392,2.6387050034084347,0.0,0.0,0.0,3.456679586315904,0.0,0.0,0.0,0.0,0.0,0.0,0.0,0.0,0.0,0.0,0.0,0.0,0.0,0.0,
0.6817,3.8667431673028574,3.8667431673028574,2.639027707528327,0.0,0.0,0.0,3.4575046807113474,0.0,0.0,0.0,0.0,0.0,0.0,0.0,0.0,0.0,0.0,0.0,0.0,0.0,0.0,
0.6972,3.8678454211176843,3.8678454211176843,2.639358056093422,0.0,0.0,0.0,3.4583496327762635,0.0,0.0,0.0,0.0,0.0,0.0,0.0,0.0,0.0,0.0,0.0,0.0,0.0,0.0,
0.7126,3.868966361256747,3.868966361256747,2.6396938593412074,0.0,0.0,0.0,3.4592088606182343,0.0,0.0,0.0,0.0,0.0,0.0,0.0,0.0,0.0,0.0,0.0,0.0,0.0,0.0,
0.7281,3.870120632199707,3.870120632199707,2.6400394941749825,0.0,0.0,0.0,3.4600935861914657,0.0,0.0,0.0,0.0,0.0,0.0,0.0,0.0,0.0,0.0,0.0,0.0,0.0,0.0,
0.7436,3.8713011287339416,3.8713011287339416,2.640392821076806,0.0,0.0,0.0,3.460998359514896,0.0,0.0,0.0,0.0,0.0,0.0,0.0,0.0,0.0,0.0,0.0,0.0,0.0,0.0,
0.7591,3.8725079425990123,3.8725079425990123,2.6407538567358655,0.0,0.0,0.0,3.461923247311297,0.0,0.0,0.0,0.0,0.0,0.0,0.0,0.0,0.0,0.0,0.0,0.0,0.0,0.0,
0.7746,3.8737411677978604,3.8737411677978604,2.6411226182370093,0.0,0.0,0.0,3.462868317944243,0.0,0.0,0.0,0.0,0.0,0.0,0.0,0.0,0.0,0.0,0.0,0.0,0.0,0.0,
0.7901,3.8750009006190087,3.8750009006190087,2.641499123063704,0.0,0.0,0.0,3.4638336414339075,0.0,0.0,0.0,0.0,0.0,0.0,0.0,0.0,0.0,0.0,0.0,0.0,0.0,0.0,
0.8056,3.8762872396594616,3.8762872396594616,2.641883389101009,0.0,0.0,0.0,3.464819289473311,0.0,0.0,0.0,0.0,0.0,0.0,0.0,0.0,0.0,0.0,0.0,0.0,0.0,0.0,
0.8211,3.877600285848204,3.877600285848204,2.6422754346387256,0.0,0.0,0.0,3.4658253354450443,0.0,0.0,0.0,0.0,0.0,0.0,0.0,0.0,0.0,0.0,0.0,0.0,0.0,0.0,
0.8366,3.8789401424703276,3.8789401424703276,2.642675278374506,0.0,0.0,0.0,3.4668518544383873,0.0,0.0,0.0,0.0,0.0,0.0,0.0,0.0,0.0,0.0,0.0,0.0,0.0,0.0,
0.8521,3.880306915191827,3.880306915191827,2.643082939417196,0.0,0.0,0.0,3.4678989232669495,0.0,0.0,0.0,0.0,0.0,0.0,0.0,0.0,0.0,0.0,0.0,0.0,0.0,0.0,
0.8676,3.8817007120851796,3.8817007120851796,2.643498437290103,0.0,0.0,0.0,3.468966620486821,0.0,0.0,0.0,0.0,0.0,0.0,0.0,0.0,0.0,0.0,0.0,0.0,0.0,0.0,
0.8831,3.8831216436554037,3.8831216436554037,2.643921791934487,0.0,0.0,0.0,3.470055026415098,0.0,0.0,0.0,0.0,0.0,0.0,0.0,0.0,0.0,0.0,0.0,0.0,0.0,0.0,
0.8986,3.8845698228670162,3.8845698228670162,2.644353023713049,0.0,0.0,0.0,3.4711642231490267,0.0,0.0,0.0,0.0,0.0,0.0,0.0,0.0,0.0,0.0,0.0,0.0,0.0,0.0,
0.914,3.886035757595339,3.886035757595339,2.644789294960951,0.0,0.0,0.0,3.4722869367172096,0.0,0.0,0.0,0.0,0.0,0.0,0.0,0.0,0.0,0.0,0.0,0.0,0.0,0.0,
0.9295,3.887538603279156,3.887538603279156,2.645236292639775,0.0,0.0,0.0,3.473437833066029,0.0,0.0,0.0,0.0,0.0,0.0,0.0,0.0,0.0,0.0,0.0,0.0,0.0,0.0,
0.945,3.8890690497485876,3.8890690497485876,2.645691230965086,0.0,0.0,0.0,3.474609776820754,0.0,0.0,0.0,0.0,0.0,0.0,0.0,0.0,0.0,0.0,0.0,0.0,0.0,0.0,
0.9605,3.890627220072646,3.890627220072646,2.6461541320195856,0.0,0.0,0.0,3.475802857388293,0.0,0.0,0.0,0.0,0.0,0.0,0.0,0.0,0.0,0.0,0.0,0.0,0.0,0.0,
0.976,3.8922132399250486,3.8922132399250486,2.646625018326395,0.0,0.0,0.0,3.4770171660588307,0.0,0.0,0.0,0.0,0.0,0.0,0.0,0.0,0.0,0.0,0.0,0.0,0.0,0.0,
0.9915,3.893827237615619,3.893827237615619,2.647103912853102,0.0,0.0,0.0,3.4782527960281135,0.0,0.0,0.0,0.0,0.0,0.0,0.0,0.0,0.0,0.0,0.0,0.0,0.0,0.0,
1.007,3.8954693441225094,3.8954693441225094,2.647590839016015,0.0,0.0,0.0,3.479509842420345,0.0,0.0,0.0,0.0,0.0,0.0,0.0,0.0,0.0,0.0,0.0,0.0,0.0,0.0,
1.0225,3.8971396931252626,3.8971396931252626,2.6480858206843836,0.0,0.0,0.0,3.4807884023116364,0.0,0.0,0.0,0.0,0.0,0.0,0.0,0.0,0.0,0.0,0.0,0.0,0.0,0.0,
1.038,3.898838421038581,3.898838421038581,2.6485888821848045,0.0,0.0,0.0,3.482088574753989,0.0,0.0,0.0,0.0,0.0,0.0,0.0,0.0,0.0,0.0,0.0,0.0,0.0,0.0,
1.0535,3.9005656670473288,3.9005656670473288,2.649100048305778,0.0,0.0,0.0,3.4834104608001453,0.0,0.0,0.0,0.0,0.0,0.0,0.0,0.0,0.0,0.0,0.0,0.0,0.0,0.0,
1.069,3.90232157314184,3.90232157314184,2.6496193443021983,0.0,0.0,0.0,3.484754163528626,0.0,0.0,0.0,0.0,0.0,0.0,0.0,0.0,0.0,0.0,0.0,0.0,0.0,0.0,
1.0845,3.9041062841547713,3.9041062841547713,2.650146795900211,0.0,0.0,0.0,3.4861197880699177,0.0,0.0,0.0,0.0,0.0,0.0,0.0,0.0,0.0,0.0,0.0,0.0,0.0,0.0,
1.1,3.9059199477984503,3.9059199477984503,2.650682429301934,0.0,0.0,0.0,3.487507441632945,0.0,0.0,0.0,0.0,0.0,0.0,0.0,0.0,0.0,0.0,0.0,0.0,0.0,0.0,
1.1154,3.907750732283168,3.907750732283168,2.6512227361673473,0.0,0.0,0.0,3.4889080669112276,0.0,0.0,0.0,0.0,0.0,0.0,0.0,0.0,0.0,0.0,0.0,0.0,0.0,0.0,
1.1309,3.9096225667845057,3.9096225667845057,2.6517747604903943,0.0,0.0,0.0,3.4903399646864686,0.0,0.0,0.0,0.0,0.0,0.0,0.0,0.0,0.0,0.0,0.0,0.0,0.0,0.0,
1.1464,3.9115238137006654,3.9115238137006654,2.652335047949644,0.0,0.0,0.0,3.491794225116992,0.0,0.0,0.0,0.0,0.0,0.0,0.0,0.0,0.0,0.0,0.0,0.0,0.0,0.0,
1.1619,3.913454632636945,3.913454632636945,2.652903626698727,0.0,0.0,0.0,3.4932709639908723,0.0,0.0,0.0,0.0,0.0,0.0,0.0,0.0,0.0,0.0,0.0,0.0,0.0,0.0,
1.1774,3.9154151862801445,3.9154151862801445,2.6534805253931784,0.0,0.0,0.0,3.4947702993178225,0.0,0.0,0.0,0.0,0.0,0.0,0.0,0.0,0.0,0.0,0.0,0.0,0.0,0.0,
1.1929,3.917405640441889,3.917405640441889,2.6540657731960446,0.0,0.0,0.0,3.4962923513599407,0.0,0.0,0.0,0.0,0.0,0.0,0.0,0.0,0.0,0.0,0.0,0.0,0.0,0.0,
1.2084,3.9194261641034696,3.9194261641034696,2.6546593997835286,0.0,0.0,0.0,3.4978372426634894,0.0,0.0,0.0,0.0,0.0,0.0,0.0,0.0,0.0,0.0,0.0,0.0,0.0,0.0,
1.2239,3.9214769294613516,3.9214769294613516,2.6552614353508672,0.0,0.0,0.0,3.49940509809119,0.0,0.0,0.0,0.0,0.0,0.0,0.0,0.0,0.0,0.0,0.0,0.0,0.0,0.0,
1.2394,3.9235581119741956,3.9235581119741956,2.655871910618237,0.0,0.0,0.0,3.5009960448555426,0.0,0.0,0.0,0.0,0.0,0.0,0.0,0.0,0.0,0.0,0.0,0.0,0.0,0.0,
1.2549,3.9256698904107328,3.9256698904107328,2.6564908568369185,0.0,0.0,0.0,3.5026102125527943,0.0,0.0,0.0,0.0,0.0,0.0,0.0,0.0,0.0,0.0,0.0,0.0,0.0,0.0,
1.2704,3.9278124468991527,3.9278124468991527,2.6571183057955445,0.0,0.0,0.0,3.50424773319795,0.0,0.0,0.0,0.0,0.0,0.0,0.0,0.0,0.0,0.0,0.0,0.0,0.0,0.0,
1.2859,3.9299859669775192,3.9299859669775192,2.6577542898264555,0.0,0.0,0.0,3.505908741260498,0.0,0.0,0.0,0.0,0.0,0.0,0.0,0.0,0.0,0.0,0.0,0.0,0.0,0.0,
1.3014,3.932190639645512,3.932190639645512,2.6583988418123057,0.0,0.0,0.0,3.5075933737011096,0.0,0.0,0.0,0.0,0.0,0.0,0.0,0.0,0.0,0.0,0.0,0.0,0.0,0.0,
1.3168,3.934412130619748,3.934412130619748,2.6590477536604062,0.0,0.0,0.0,3.5092906716333006,0.0,0.0,0.0,0.0,0.0,0.0,0.0,0.0,0.0,0.0,0.0,0.0,0.0,0.0,
1.3323,3.936679485451303,3.936679485451303,2.6597094866164452,0.0,0.0,0.0,3.5110228191730166,0.0,0.0,0.0,0.0,0.0,0.0,0.0,0.0,0.0,0.0,0.0,0.0,0.0,0.0,
1.3478,3.9389785798781256,3.9389785798781256,2.6603798893200077,0.0,0.0,0.0,3.5127790163587527,0.0,0.0,0.0,0.0,0.0,0.0,0.0,0.0,0.0,0.0,0.0,0.0,0.0,0.0,
1.3633,3.941309617266347,3.941309617266347,2.6610589969198175,0.0,0.0,0.0,3.51455941048417,0.0,0.0,0.0,0.0,0.0,0.0,0.0,0.0,0.0,0.0,0.0,0.0,0.0,0.0,
1.3788,3.9436728047222425,3.9436728047222425,2.6617468451499158,0.0,0.0,0.0,3.516364151531467,0.0,0.0,0.0,0.0,0.0,0.0,0.0,0.0,0.0,0.0,0.0,0.0,0.0,0.0,
1.3943,3.946068353152226,3.946068353152226,2.662443470337364,0.0,0.0,0.0,3.5181933922139383,0.0,0.0,0.0,0.0,0.0,0.0,0.0,0.0,0.0,0.0,0.0,0.0,0.0,0.0,
1.4098,3.9484964773245395,3.9484964773245395,2.663148909409782,0.0,0.0,0.0,3.5200472880196205,0.0,0.0,0.0,0.0,0.0,0.0,0.0,0.0,0.0,0.0,0.0,0.0,0.0,0.0,
1.4253,3.9509573959323037,3.9509573959323037,2.6638631999033837,0.0,0.0,0.0,3.521925997255997,0.0,0.0,0.0,0.0,0.0,0.0,0.0,0.0,0.0,0.0,0.0,0.0,0.0,0.0,
1.4408,3.9534513316582967,3.9534513316582967,2.664586379970979,0.0,0.0,0.0,3.5238296810958576,0.0,0.0,0.0,0.0,0.0,0.0,0.0,0.0,0.0,0.0,0.0,0.0,0.0,0.0,
1.4563,3.9559785112413057,3.9559785112413057,2.665318488390302,0.0,0.0,0.0,3.5257585036243047,0.0,0.0,0.0,0.0,0.0,0.0,0.0,0.0,0.0,0.0,0.0,0.0,0.0,0.0,
1.4718,3.9585391655442614,3.9585391655442614,2.6660595645724294,0.0,0.0,0.0,3.5277126318869843,0.0,0.0,0.0,0.0,0.0,0.0,0.0,0.0,0.0,0.0,0.0,0.0,0.0,0.0,
1.4873,3.961133529623987,3.961133529623987,2.666809648570549,0.0,0.0,0.0,3.529692235939508,0.0,0.0,0.0,0.0,0.0,0.0,0.0,0.0,0.0,0.0,0.0,0.0,0.0,0.0,
1.5028,3.963761842802887,3.963761842802887,2.6675687810887685,0.0,0.0,0.0,3.5316974888981805,0.0,0.0,0.0,0.0,0.0,0.0,0.0,0.0,0.0,0.0,0.0,0.0,0.0,0.0,
1.5182,3.9664070611710476,3.9664070611710476,2.668332017995489,0.0,0.0,0.0,3.5337153801125276,0.0,0.0,0.0,0.0,0.0,0.0,0.0,0.0,0.0,0.0,0.0,0.0,0.0,0.0,
1.5337,3.969103784943127,3.969103784943127,2.6691093132640136,0.0,0.0,0.0,3.5357722943834227,0.0,0.0,0.0,0.0,0.0,0.0,0.0,0.0,0.0,0.0,0.0,0.0,0.0,0.0,
1.5492,3.9718352004746578,3.9718352004746578,2.669895782885015,0.0,0.0,0.0,3.537855394611443,0.0,0.0,0.0,0.0,0.0,0.0,0.0,0.0,0.0,0.0,0.0,0.0,0.0,0.0,
1.5647,3.9746015648740483,3.9746015648740483,2.6706914702552016,0.0,0.0,0.0,3.5399648666677663,0.0,0.0,0.0,0.0,0.0,0.0,0.0,0.0,0.0,0.0,0.0,0.0,0.0,0.0,
1.5802,3.9774031399013974,3.9774031399013974,2.6714964194698703,0.0,0.0,0.0,3.542100899757555,0.0,0.0,0.0,0.0,0.0,0.0,0.0,0.0,0.0,0.0,0.0,0.0,0.0,0.0,
1.5957,3.9802401920519364,3.9802401920519364,2.6723106753332777,0.0,0.0,0.0,3.54426368647905,0.0,0.0,0.0,0.0,0.0,0.0,0.0,0.0,0.0,0.0,0.0,0.0,0.0,0.0,
1.6112,3.9831129926416162,3.9831129926416162,2.6731342833690697,0.0,0.0,0.0,3.5464534228841007,0.0,0.0,0.0,0.0,0.0,0.0,0.0,0.0,0.0,0.0,0.0,0.0,0.0,0.0,
1.6267,3.9860218178950637,3.9860218178950637,2.6739672898311064,0.0,0.0,0.0,3.548670308540411,0.0,0.0,0.0,0.0,0.0,0.0,0.0,0.0,0.0,0.0,0.0,0.0,0.0,0.0,
1.6422,3.9889669490356763,3.9889669490356763,2.6748097417144496,0.0,0.0,0.0,3.5509145465952674,0.0,0.0,0.0,0.0,0.0,0.0,0.0,0.0,0.0,0.0,0.0,0.0,0.0,0.0,
1.6577,3.9919486723782316,3.9919486723782316,2.6756616867666896,0.0,0.0,0.0,3.5531863438410505,0.0,0.0,0.0,0.0,0.0,0.0,0.0,0.0,0.0,0.0,0.0,0.0,0.0,0.0,
1.6732,3.9949672794238675,3.9949672794238675,2.6765231734995547,0.0,0.0,0.0,3.55548591078243,0.0,0.0,0.0,0.0,0.0,0.0,0.0,0.0,0.0,0.0,0.0,0.0,0.0,0.0,
1.6887,3.9980230669576673,3.9980230669576673,2.6773942512007567,0.0,0.0,0.0,3.5578134617053636,0.0,0.0,0.0,0.0,0.0,0.0,0.0,0.0,0.0,0.0,0.0,0.0,0.0,0.0,
1.7042,4.001116337148747,4.001116337148747,2.678274969946171,0.0,0.0,0.0,3.5601692147478885,0.0,0.0,0.0,0.0,0.0,0.0,0.0,0.0,0.0,0.0,0.0,0.0,0.0,0.0,
1.7196,4.004227075480927,4.004227075480927,2.6791596048551947,0.0,0.0,0.0,3.5625379186056825,0.0,0.0,0.0,0.0,0.0,0.0,0.0,0.0,0.0,0.0,0.0,0.0,0.0,0.0,
1.7351,4.007395992701648,4.007395992701648,2.680059696102662,0.0,0.0,0.0,3.5649505605019858,0.0,0.0,0.0,0.0,0.0,0.0,0.0,0.0,0.0,0.0,0.0,0.0,0.0,0.0,
1.7506,4.0106033303574105,4.0106033303574105,2.6809695831359193,0.0,0.0,0.0,3.56739208128358,0.0,0.0,0.0,0.0,0.0,0.0,0.0,0.0,0.0,0.0,0.0,0.0,0.0,0.0,
1.7661,4.013849413172043,4.013849413172043,2.6818893193060416,0.0,0.0,0.0,3.569862715216709,0.0,0.0,0.0,0.0,0.0,0.0,0.0,0.0,0.0,0.0,0.0,0.0,0.0,0.0,
1.7816,4.017134571795504,4.017134571795504,2.6828189588178653,0.0,0.0,0.0,3.5723627008029575,0.0,0.0,0.0,0.0,0.0,0.0,0.0,0.0,0.0,0.0,0.0,0.0,0.0,0.0,
1.7971,4.02045914292121,4.02045914292121,2.6837585567440976,0.0,0.0,0.0,3.5748922808621724,0.0,0.0,0.0,0.0,0.0,0.0,0.0,0.0,0.0,0.0,0.0,0.0,0.0,0.0,
1.8126,4.0238234694068495,4.0238234694068495,2.6847081690398147,0.0,0.0,0.0,3.577451702617838,0.0,0.0,0.0,0.0,0.0,0.0,0.0,0.0,0.0,0.0,0.0,0.0,0.0,0.0,
1.8281,4.027227900398543,4.027227900398543,2.685667852557372,0.0,0.0,0.0,3.5800412177848195,0.0,0.0,0.0,0.0,0.0,0.0,0.0,0.0,0.0,0.0,0.0,0.0,0.0,0.0,
1.8436,4.0306727914583735,4.0306727914583735,2.686637665061718,0.0,0.0,0.0,3.582661082659488,0.0,0.0,0.0,0.0,0.0,0.0,0.0,0.0,0.0,0.0,0.0,0.0,0.0,0.0,
1.8591,4.034158504695402,4.034158504695402,2.6876176652459822,0.0,0.0,0.0,3.5853115582122617,0.0,0.0,0.0,0.0,0.0,0.0,0.0,0.0,0.0,0.0,0.0,0.0,0.0,0.0,
1.8746,4.037685408900534,4.037685408900534,2.6886079127476927,0.0,0.0,0.0,3.5879929101829204,0.0,0.0,0.0,0.0,0.0,0.0,0.0,0.0,0.0,0.0,0.0,0.0,0.0,0.0,
1.8901,4.041253879684991,4.041253879684991,2.6896084681651495,0.0,0.0,0.0,3.5907054091783768,0.0,0.0,0.0,0.0,0.0,0.0,0.0,0.0,0.0,0.0,0.0,0.0,0.0,0.0,
1.9056,4.044864299622859,4.044864299622859,2.6906193930745026,0.0,0.0,0.0,3.593449330773407,0.0,0.0,0.0,0.0,0.0,0.0,0.0,0.0,0.0,0.0,0.0,0.0,0.0,0.0,
1.921,4.0484933556746405,4.0484933556746405,2.691634127077706,0.0,0.0,0.0,3.596206946142329,0.0,0.0,0.0,0.0,0.0,0.0,0.0,0.0,0.0,0.0,0.0,0.0,0.0,0.0,
1.9365,4.052188573226962,4.052188573226962,2.6926659117781515,0.0,0.0,0.0,3.599014352744025,0.0,0.0,0.0,0.0,0.0,0.0,0.0,0.0,0.0,0.0,0.0,0.0,0.0,0.0,
1.952,4.055926928285299,4.055926928285299,2.6937082563219326,0.0,0.0,0.0,3.6018540376308437,0.0,0.0,0.0,0.0,0.0,0.0,0.0,0.0,0.0,0.0,0.0,0.0,0.0,0.0,
1.9675,4.0597088327334365,4.0597088327334365,2.694761226368386,0.0,0.0,0.0,3.6047262972784195,0.0,0.0,0.0,0.0,0.0,0.0,0.0,0.0,0.0,0.0,0.0,0.0,0.0,0.0,
1.983,4.063534706192804,4.063534706192804,2.695824888646417,0.0,0.0,0.0,3.607631433677342,0.0,0.0,0.0,0.0,0.0,0.0,0.0,0.0,0.0,0.0,0.0,0.0,0.0,0.0,
1.9985,4.0674049761914475,4.0674049761914475,2.696899310974395,0.0,0.0,0.0,3.61056975445243,0.0,0.0,0.0,0.0,0.0,0.0,0.0,0.0,0.0,0.0,0.0,0.0,0.0,0.0,
2.014,4.07132007833775,4.07132007833775,2.6979845622805882,0.0,0.0,0.0,3.6135415729853624,0.0,0.0,0.0,0.0,0.0,0.0,0.0,0.0,0.0,0.0,0.0,0.0,0.0,0.0,
