energies(eV),real_xx,real_yy,real_zz,real_xy,real_yz,real_xz,real_ave,imag_xx,imag_yy,imag_zz,imag_xy,imag_yz,imag_xz,imag_ave,absorption_xx,absorption_yy,absorption_zz,absorption_xy,absorption_yz,absorption_xz,absorption_ave,band_gap
0.0,3.523572441834442,3.523572441834442,3.471071488292575,0.0,0.0,0.0,3.506072123987153,0.0,0.0,0.0,0.0,0.0,0.0,0.0,0.0,0.0,0.0,0.0,0.0,0.0,0.0,2.6494999999999997
0.0158,3.523579851731833,3.523579851731833,3.471079187521116,0.0,0.0,0.0,3.5060796303282604,0.0,0.0,0.0,0.0,0.0,0.0,0.0,0.0,0.0,0.0,0.0,0.0,0.0,0.0,
0.0317,3.523602269809041,3.523602269809041,3.471102480981118,0.0,0.0,0.0,3.506102340199733,0.0,0.0,0.0,0.0,0.0,0.0,0.0,0.0,0.0,0.0,0.0,0.0,0.0,0.0,
0.0475,3.5236394155544817,3.5236394155544817,3.4711410773075264,0.0,0.0,0.0,3.5061399694721636,0.0,0.0,0.0,0.0,0.0,0.0,0.0,0.0,0.0,0.0,0.0,0.0,0.0,0.0,
0.0634,3.523691761651109,3.523691761651109,3.4711954678101566,0.0,0.0,0.0,3.506192997037458,0.0,0.0,0.0,0.0,0.0,0.0,0.0,0.0,0.0,0.0,0.0,0.0,0.0,0.0,
0.0792,3.5237586531068135,3.5237586531068135,3.4712649721493527,0.0,0.0,0.0,3.5062607594543267,0.0,0.0,0.0,0.0,0.0,0.0,0.0,0.0,0.0,0.0,0.0,0.0,0.0,0.0,
0.0951,3.5238409411231513,3.5238409411231513,3.471350475078815,0.0,0.0,0.0,3.506344119108373,0.0,0.0,0.0,0.0,0.0,0.0,0.0,0.0,0.0,0.0,0.0,0.0,0.0,0.0,
0.1109,3.5239375960559696,3.5239375960559696,3.471450907094571,0.0,0.0,0.0,3.5064420330688364,0.0,0.0,0.0,0.0,0.0,0.0,0.0,0.0,0.0,0.0,0.0,0.0,0.0,0.0,
0.1268,3.524049847854606,3.524049847854606,3.4715675466481155,0.0,0.0,0.0,3.5065557474524423,0.0,0.0,0.0,0.0,0.0,0.0,0.0,0.0,0.0,0.0,0.0,0.0,0.0,0.0,
0.1426,3.5241762919530384,3.5241762919530384,3.4716989347728116,0.0,0.0,0.0,3.5066838395596296,0.0,0.0,0.0,0.0,0.0,0.0,0.0,0.0,0.0,0.0,0.0,0.0,0.0,0.0,
0.1585,3.5243185373798056,3.5243185373798056,3.471846743985002,0.0,0.0,0.0,3.5068279395815374,0.0,0.0,0.0,0.0,0.0,0.0,0.0,0.0,0.0,0.0,0.0,0.0,0.0,0.0,
0.1743,3.524474804278681,3.524474804278681,3.4720091254480576,0.0,0.0,0.0,3.5069862446684734,0.0,0.0,0.0,0.0,0.0,0.0,0.0,0.0,0.0,0.0,0.0,0.0,0.0,0.0,
0.1902,3.524647081191274,3.524647081191274,3.4721881462238353,0.0,0.0,0.0,3.5071607695354614,0.0,0.0,0.0,0.0,0.0,0.0,0.0,0.0,0.0,0.0,0.0,0.0,0.0,0.0,
0.206,3.5248332125040145,3.5248332125040145,3.472381567089101,0.0,0.0,0.0,3.5073493306990433,0.0,0.0,0.0,0.0,0.0,0.0,0.0,0.0,0.0,0.0,0.0,0.0,0.0,0.0,
0.2219,3.525035566808404,3.525035566808404,3.472591850245974,0.0,0.0,0.0,3.5075543279542605,0.0,0.0,0.0,0.0,0.0,0.0,0.0,0.0,0.0,0.0,0.0,0.0,0.0,0.0,
0.2377,3.525251612167085,3.525251612167085,3.4728163654580553,0.0,0.0,0.0,3.5077731965974084,0.0,0.0,0.0,0.0,0.0,0.0,0.0,0.0,0.0,0.0,0.0,0.0,0.0,0.0,
0.2536,3.5254840978617663,3.5254840978617663,3.4730579707771834,0.0,0.0,0.0,3.5080087221669056,0.0,0.0,0.0,0.0,0.0,0.0,0.0,0.0,0.0,0.0,0.0,0.0,0.0,0.0,
0.2694,3.525730114964999,3.525730114964999,3.473313644216806,0.0,0.0,0.0,3.508257958048935,0.0,0.0,0.0,0.0,0.0,0.0,0.0,0.0,0.0,0.0,0.0,0.0,0.0,0.0,
0.2853,3.5259927941931033,3.5259927941931033,3.4735866405034113,0.0,0.0,0.0,3.5085240762965397,0.0,0.0,0.0,0.0,0.0,0.0,0.0,0.0,0.0,0.0,0.0,0.0,0.0,0.0,
0.3011,3.5262688488618004,3.5262688488618004,3.4738735450520846,0.0,0.0,0.0,3.508803747591895,0.0,0.0,0.0,0.0,0.0,0.0,0.0,0.0,0.0,0.0,0.0,0.0,0.0,0.0,
0.317,3.5265617919713095,3.5265617919713095,3.4741780102050788,0.0,0.0,0.0,3.509100531382566,0.0,0.0,0.0,0.0,0.0,0.0,0.0,0.0,0.0,0.0,0.0,0.0,0.0,0.0,
0.3328,3.5268679582126174,3.5268679582126174,3.474496227818974,0.0,0.0,0.0,3.5094107147480695,0.0,0.0,0.0,0.0,0.0,0.0,0.0,0.0,0.0,0.0,0.0,0.0,0.0,0.0,
0.3487,3.5271912438247632,3.5271912438247632,3.4748322489102086,0.0,0.0,0.0,3.509738245519912,0.0,0.0,0.0,0.0,0.0,0.0,0.0,0.0,0.0,0.0,0.0,0.0,0.0,0.0,
0.3645,3.5275276039040673,3.5275276039040673,3.475181870703626,0.0,0.0,0.0,3.5100790261705868,0.0,0.0,0.0,0.0,0.0,0.0,0.0,0.0,0.0,0.0,0.0,0.0,0.0,0.0,
0.3804,3.5278813189900133,3.5278813189900133,3.4755495440667112,0.0,0.0,0.0,3.5104373940155793,0.0,0.0,0.0,0.0,0.0,0.0,0.0,0.0,0.0,0.0,0.0,0.0,0.0,0.0,
0.3962,3.528247963511432,3.528247963511432,3.4759306704053206,0.0,0.0,0.0,3.5108088658093948,0.0,0.0,0.0,0.0,0.0,0.0,0.0,0.0,0.0,0.0,0.0,0.0,0.0,0.0,
0.4121,3.5286322034774913,3.5286322034774913,3.4763301017343884,0.0,0.0,0.0,3.5111981695631234,0.0,0.0,0.0,0.0,0.0,0.0,0.0,0.0,0.0,0.0,0.0,0.0,0.0,0.0,
0.4279,3.5290292314727694,3.5290292314727694,3.476742842338305,0.0,0.0,0.0,3.5116004350946146,0.0,0.0,0.0,0.0,0.0,0.0,0.0,0.0,0.0,0.0,0.0,0.0,0.0,0.0,
0.4438,3.529444100254344,3.529444100254344,3.477174146796856,0.0,0.0,0.0,3.5120207824351817,0.0,0.0,0.0,0.0,0.0,0.0,0.0,0.0,0.0,0.0,0.0,0.0,0.0,0.0,
0.4596,3.529871619280658,3.529871619280658,3.477618620853995,0.0,0.0,0.0,3.512453953138437,0.0,0.0,0.0,0.0,0.0,0.0,0.0,0.0,0.0,0.0,0.0,0.0,0.0,0.0,
0.4755,3.5303172294450342,3.5303172294450342,3.4780819231942037,0.0,0.0,0.0,3.5129054606947574,0.0,0.0,0.0,0.0,0.0,0.0,0.0,0.0,0.0,0.0,0.0,0.0,0.0,0.0,
0.4913,3.5307753556916266,3.5307753556916266,3.4785582594840605,0.0,0.0,0.0,3.513369656955771,0.0,0.0,0.0,0.0,0.0,0.0,0.0,0.0,0.0,0.0,0.0,0.0,0.0,0.0,
0.5072,3.5312518285499337,3.5312518285499337,3.4790536941767343,0.0,0.0,0.0,3.5138524504255337,0.0,0.0,0.0,0.0,0.0,0.0,0.0,0.0,0.0,0.0,0.0,0.0,0.0,0.0,
0.523,3.5317406869540315,3.5317406869540315,3.4795620312048845,0.0,0.0,0.0,3.5143478017043157,0.0,0.0,0.0,0.0,0.0,0.0,0.0,0.0,0.0,0.0,0.0,0.0,0.0,0.0,
0.5389,3.532248152682643,3.532248152682643,3.4800897425803305,0.0,0.0,0.0,3.514862015981872,0.0,0.0,0.0,0.0,0.0,0.0,0.0,0.0,0.0,0.0,0.0,0.0,0.0,0.0,
0.5547,3.5327678770548454,3.5327678770548454,3.4806302287241486,0.0,0.0,0.0,3.515388660944613,0.0,0.0,0.0,0.0,0.0,0.0,0.0,0.0,0.0,0.0,0.0,0.0,0.0,0.0,
0.5706,3.53330647482643,3.53330647482643,3.4811903711245415,0.0,0.0,0.0,3.5159344402591337,0.0,0.0,0.0,0.0,0.0,0.0,0.0,0.0,0.0,0.0,0.0,0.0,0.0,0.0,
0.5864,3.5338572079858777,3.5338572079858777,3.481763164790263,0.0,0.0,0.0,3.5164925269206733,0.0,0.0,0.0,0.0,0.0,0.0,0.0,0.0,0.0,0.0,0.0,0.0,0.0,0.0,
0.6023,3.534427086110463,3.534427086110463,3.4823559027335875,0.0,0.0,0.0,3.517070024984838,0.0,0.0,0.0,0.0,0.0,0.0,0.0,0.0,0.0,0.0,0.0,0.0,0.0,0.0,
0.6181,3.5350089800300895,3.5350089800300895,3.482961172525263,0.0,0.0,0.0,3.517659710861814,0.0,0.0,0.0,0.0,0.0,0.0,0.0,0.0,0.0,0.0,0.0,0.0,0.0,0.0,
0.634,3.535610296106433,3.535610296106433,3.483586680881501,0.0,0.0,0.0,3.518269091031456,0.0,0.0,0.0,0.0,0.0,0.0,0.0,0.0,0.0,0.0,0.0,0.0,0.0,0.0,
0.6498,3.536223512068672,3.536223512068672,3.4842246057822353,0.0,0.0,0.0,3.5188905433065263,0.0,0.0,0.0,0.0,0.0,0.0,0.0,0.0,0.0,0.0,0.0,0.0,0.0,0.0,
0.6657,3.5368564331463492,3.5368564331463492,3.4848830699620796,0.0,0.0,0.0,3.519531978751593,0.0,0.0,0.0,0.0,0.0,0.0,0.0,0.0,0.0,0.0,0.0,0.0,0.0,0.0,
0.6815,3.537501141909656,3.537501141909656,3.485553839528006,0.0,0.0,0.0,3.520185374449106,0.0,0.0,0.0,0.0,0.0,0.0,0.0,0.0,0.0,0.0,0.0,0.0,0.0,0.0,
0.6974,3.5381658446622675,3.5381658446622675,3.4862454556846494,0.0,0.0,0.0,3.5208590483363946,0.0,0.0,0.0,0.0,0.0,0.0,0.0,0.0,0.0,0.0,0.0,0.0,0.0,0.0,
0.7132,3.5388422266388764,3.5388422266388764,3.4869492702521523,0.0,0.0,0.0,3.5215445745099685,0.0,0.0,0.0,0.0,0.0,0.0,0.0,0.0,0.0,0.0,0.0,0.0,0.0,0.0,
0.7291,3.539538897548683,3.539538897548683,3.4876742454967236,0.0,0.0,0.0,3.5222506801980296,0.0,0.0,0.0,0.0,0.0,0.0,0.0,0.0,0.0,0.0,0.0,0.0,0.0,0.0,
0.7449,3.540247142993969,3.540247142993969,3.488411316403452,0.0,0.0,0.0,3.522968534130463,0.0,0.0,0.0,0.0,0.0,0.0,0.0,0.0,0.0,0.0,0.0,0.0,0.0,0.0,
0.7608,3.5409759785485524,3.5409759785485524,3.48916986903453,0.0,0.0,0.0,3.523707275377211,0.0,0.0,0.0,0.0,0.0,0.0,0.0,0.0,0.0,0.0,0.0,0.0,0.0,0.0,
0.7766,3.5417162877626738,3.5417162877626738,3.48994041885478,0.0,0.0,0.0,3.524457664793376,0.0,0.0,0.0,0.0,0.0,0.0,0.0,0.0,0.0,0.0,0.0,0.0,0.0,0.0,
0.7925,3.5424774946640656,3.5424774946640656,3.490732778602827,0.0,0.0,0.0,3.525229255976986,0.0,0.0,0.0,0.0,0.0,0.0,0.0,0.0,0.0,0.0,0.0,0.0,0.0,0.0,
0.8083,3.5432500782060297,3.5432500782060297,3.4915370413979385,0.0,0.0,0.0,3.5260123992699994,0.0,0.0,0.0,0.0,0.0,0.0,0.0,0.0,0.0,0.0,0.0,0.0,0.0,0.0,
0.8242,3.544043873592824,3.544043873592824,3.4923634496849973,0.0,0.0,0.0,3.5268170656235487,0.0,0.0,0.0,0.0,0.0,0.0,0.0,0.0,0.0,0.0,0.0,0.0,0.0,0.0,
0.84,3.544848952507952,3.544848952507952,3.4932016712694773,0.0,0.0,0.0,3.527633192095127,0.0,0.0,0.0,0.0,0.0,0.0,0.0,0.0,0.0,0.0,0.0,0.0,0.0,0.0,
0.8559,3.5456755641909647,3.5456755641909647,3.4940623814852323,0.0,0.0,0.0,3.5284711699557207,0.0,0.0,0.0,0.0,0.0,0.0,0.0,0.0,0.0,0.0,0.0,0.0,0.0,0.0,
0.8717,3.5465133702520215,3.5465133702520215,3.4949348197092847,0.0,0.0,0.0,3.5293205200711095,0.0,0.0,0.0,0.0,0.0,0.0,0.0,0.0,0.0,0.0,0.0,0.0,0.0,0.0,
0.8876,3.5473730369641636,3.5473730369641636,3.4958300975038665,0.0,0.0,0.0,3.5301920571440646,0.0,0.0,0.0,0.0,0.0,0.0,0.0,0.0,0.0,0.0,0.0,0.0,0.0,0.0,
0.9034,3.548243812926937,3.548243812926937,3.4967370225531518,0.0,0.0,0.0,3.531074882802342,0.0,0.0,0.0,0.0,0.0,0.0,0.0,0.0,0.0,0.0,0.0,0.0,0.0,0.0,
0.9193,3.549136784587883,3.549136784587883,3.4976671461478603,0.0,0.0,0.0,3.531980238441209,0.0,0.0,0.0,0.0,0.0,0.0,0.0,0.0,0.0,0.0,0.0,0.0,0.0,0.0,
0.9351,3.550040784461879,3.550040784461879,3.498608840861381,0.0,0.0,0.0,3.5328968032617127,0.0,0.0,0.0,0.0,0.0,0.0,0.0,0.0,0.0,0.0,0.0,0.0,0.0,0.0,
0.951,3.550967322458392,3.550967322458392,3.499574101378006,0.0,0.0,0.0,3.53383624876493,0.0,0.0,0.0,0.0,0.0,0.0,0.0,0.0,0.0,0.0,0.0,0.0,0.0,0.0,
0.9668,3.5519048117933103,3.5519048117933103,3.500550861584993,0.0,0.0,0.0,3.5347868283905384,0.0,0.0,0.0,0.0,0.0,0.0,0.0,0.0,0.0,0.0,0.0,0.0,0.0,0.0,
0.9827,3.552865189275766,3.552865189275766,3.501551563394748,0.0,0.0,0.0,3.5357606473154264,0.0,0.0,0.0,0.0,0.0,0.0,0.0,0.0,0.0,0.0,0.0,0.0,0.0,0.0,
0.9985,3.553836445464665,3.553836445464665,3.5025636982715564,0.0,0.0,0.0,3.536745529733629,0.0,0.0,0.0,0.0,0.0,0.0,0.0,0.0,0.0,0.0,0.0,0.0,0.0,0.0,
1.0144,3.554830947660837,3.554830947660837,3.503600159364744,0.0,0.0,0.0,3.537754018228806,0.0,0.0,0.0,0.0,0.0,0.0,0.0,0.0,0.0,0.0,0.0,0.0,0.0,0.0,
1.0302,3.5558362602607123,3.5558362602607123,3.504647991812875,0.0,0.0,0.0,3.538773504111433,0.0,0.0,0.0,0.0,0.0,0.0,0.0,0.0,0.0,0.0,0.0,0.0,0.0,0.0,
1.0461,3.5568651848074566,3.5568651848074566,3.5057205441903236,0.0,0.0,0.0,3.539816971268412,0.0,0.0,0.0,0.0,0.0,0.0,0.0,0.0,0.0,0.0,0.0,0.0,0.0,0.0,
1.0619,3.5579048558782476,3.5579048558782476,3.5068044112366863,0.0,0.0,0.0,3.54087137433106,0.0,0.0,0.0,0.0,0.0,0.0,0.0,0.0,0.0,0.0,0.0,0.0,0.0,0.0,
1.0778,3.558968513172357,3.558968513172357,3.5079134013242474,0.0,0.0,0.0,3.5419501425563205,0.0,0.0,0.0,0.0,0.0,0.0,0.0,0.0,0.0,0.0,0.0,0.0,0.0,0.0,
1.0936,3.5600428576352936,3.5600428576352936,3.509033654544914,0.0,0.0,0.0,3.5430397899385007,0.0,0.0,0.0,0.0,0.0,0.0,0.0,0.0,0.0,0.0,0.0,0.0,0.0,0.0,
1.1095,3.561141571204148,3.561141571204148,3.5101794436321994,0.0,0.0,0.0,3.5441541953468323,0.0,0.0,0.0,0.0,0.0,0.0,0.0,0.0,0.0,0.0,0.0,0.0,0.0,0.0,
1.1253,3.56225091722049,3.56225091722049,3.5113364496010706,0.0,0.0,0.0,3.5452794280140165,0.0,0.0,0.0,0.0,0.0,0.0,0.0,0.0,0.0,0.0,0.0,0.0,0.0,0.0,
1.1412,3.5633850241139875,3.5633850241139875,3.512519414306058,0.0,0.0,0.0,3.546429820844678,0.0,0.0,0.0,0.0,0.0,0.0,0.0,0.0,0.0,0.0,0.0,0.0,0.0,0.0,
1.157,3.564529713485405,3.564529713485405,3.5137135550698773,0.0,0.0,0.0,3.547590994013562,0.0,0.0,0.0,0.0,0.0,0.0,0.0,0.0,0.0,0.0,0.0,0.0,0.0,0.0,
1.1729,3.5656995646901013,3.5656995646901013,3.5149340878307065,0.0,0.0,0.0,3.548777739070303,0.0,0.0,0.0,0.0,0.0,0.0,0.0,0.0,0.0,0.0,0.0,0.0,0.0,0.0,
1.1887,3.5668799532817212,3.5668799532817212,3.5161657614118864,0.0,0.0,0.0,3.5499752226584427,0.0,0.0,0.0,0.0,0.0,0.0,0.0,0.0,0.0,0.0,0.0,0.0,0.0,0.0,
1.2046,3.5680859141585852,3.5680859141585852,3.5174242710076093,0.0,0.0,0.0,3.5511986997749267,0.0,0.0,0.0,0.0,0.0,0.0,0.0,0.0,0.0,0.0,0.0,0.0,0.0,0.0,
1.2204,3.5693023723462938,3.5693023723462938,3.5186938919367936,0.0,0.0,0.0,3.5524328788764605,0.0,0.0,0.0,0.0,0.0,0.0,0.0,0.0,0.0,0.0,0.0,0.0,0.0,0.0,
1.2363,3.5705448230933885,3.5705448230933885,3.51999080403888,0.0,0.0,0.0,3.5536934834085527,0.0,0.0,0.0,0.0,0.0,0.0,0.0,0.0,0.0,0.0,0.0,0.0,0.0,0.0,
1.2521,3.571797736236455,3.571797736236455,3.5212988039189588,0.0,0.0,0.0,3.55496475879729,0.0,0.0,0.0,0.0,0.0,0.0,0.0,0.0,0.0,0.0,0.0,0.0,0.0,0.0,
1.268,3.573077072378111,3.573077072378111,3.522634561675432,0.0,0.0,0.0,3.5562629021438847,0.0,0.0,0.0,0.0,0.0,0.0,0.0,0.0,0.0,0.0,0.0,0.0,0.0,0.0,
1.2838,3.5743668413190504,3.5743668413190504,3.5239813897789243,0.0,0.0,0.0,3.557571690805675,0.0,0.0,0.0,0.0,0.0,0.0,0.0,0.0,0.0,0.0,0.0,0.0,0.0,0.0,
1.2997,3.575683474223016,3.575683474223016,3.5253564544332714,0.0,0.0,0.0,3.558907800959768,0.0,0.0,0.0,0.0,0.0,0.0,0.0,0.0,0.0,0.0,0.0,0.0,0.0,0.0,
1.3155,3.577010515816098,3.577010515816098,3.5267425783355697,0.0,0.0,0.0,3.560254536655922,0.0,0.0,0.0,0.0,0.0,0.0,0.0,0.0,0.0,0.0,0.0,0.0,0.0,0.0,
1.3314,3.578364873240531,3.578364873240531,3.5281574298826914,0.0,0.0,0.0,3.561629058787918,0.0,0.0,0.0,0.0,0.0,0.0,0.0,0.0,0.0,0.0,0.0,0.0,0.0,0.0,
1.3472,3.579729620910729,3.579729620910729,3.529583336133076,0.0,0.0,0.0,3.5630141926515115,0.0,0.0,0.0,0.0,0.0,0.0,0.0,0.0,0.0,0.0,0.0,0.0,0.0,0.0,
1.3631,3.5811221475827932,3.5811221475827932,3.531038474014742,0.0,0.0,0.0,3.564427589726776,0.0,0.0,0.0,0.0,0.0,0.0,0.0,0.0,0.0,0.0,0.0,0.0,0.0,0.0,
1.3789,3.5825250519173215,3.5825250519173215,3.532504668848201,0.0,0.0,0.0,3.5658515908942814,0.0,0.0,0.0,0.0,0.0,0.0,0.0,0.0,0.0,0.0,0.0,0.0,0.0,0.0,
1.3948,3.5839562101454763,3.5839562101454763,3.534000612690722,0.0,0.0,0.0,3.567304344327225,0.0,0.0,0.0,0.0,0.0,0.0,0.0,0.0,0.0,0.0,0.0,0.0,0.0,0.0,
1.4106,3.5853977395196925,3.5853977395196925,3.5355076227829345,0.0,0.0,0.0,3.56876770060744,0.0,0.0,0.0,0.0,0.0,0.0,0.0,0.0,0.0,0.0,0.0,0.0,0.0,0.0,
1.4265,3.586868009841854,3.586868009841854,3.5370449131799484,0.0,0.0,0.0,3.570260310954552,0.0,0.0,0.0,0.0,0.0,0.0,0.0,0.0,0.0,0.0,0.0,0.0,0.0,0.0,
1.4423,3.588348651082061,3.588348651082061,3.5385932864487764,0.0,0.0,0.0,3.5717635295376327,0.0,0.0,0.0,0.0,0.0,0.0,0.0,0.0,0.0,0.0,0.0,0.0,0.0,0.0,
1.4582,3.589858532952011,3.589858532952011,3.540172485792321,0.0,0.0,0.0,3.5732965172321145,0.0,0.0,0.0,0.0,0.0,0.0,0.0,0.0,0.0,0.0,0.0,0.0,0.0,0.0,
1.474,3.591378792037442,3.591378792037442,3.541762792248917,0.0,0.0,0.0,3.5748401254412667,0.0,0.0,0.0,0.0,0.0,0.0,0.0,0.0,0.0,0.0,0.0,0.0,0.0,0.0,
1.4899,3.5929288045520273,3.5929288045520273,3.543384485612292,0.0,0.0,0.0,3.5764140315721153,0.0,0.0,0.0,0.0,0.0,0.0,0.0,0.0,0.0,0.0,0.0,0.0,0.0,0.0,
1.5057,3.594489207358807,3.594489207358807,3.5450173182654887,0.0,0.0,0.0,3.577998577661034,0.0,0.0,0.0,0.0,0.0,0.0,0.0,0.0,0.0,0.0,0.0,0.0,0.0,0.0,
1.5216,3.5960798900287196,3.5960798900287196,3.546682114341673,0.0,0.0,0.0,3.579613964799704,0.0,0.0,0.0,0.0,0.0,0.0,0.0,0.0,0.0,0.0,0.0,0.0,0.0,0.0,
1.5374,3.5976809831186176,3.5976809831186176,3.5483580901596423,0.0,0.0,0.0,3.5812400187989595,0.0,0.0,0.0,0.0,0.0,0.0,0.0,0.0,0.0,0.0,0.0,0.0,0.0,0.0,
1.5533,3.599312896685858,3.599312896685858,3.5500666222593273,0.0,0.0,0.0,3.5828974718770144,0.0,0.0,0.0,0.0,0.0,0.0,0.0,0.0,0.0,0.0,0.0,0.0,0.0,0.0,
1.5691,3.6009552481429776,3.6009552481429776,3.5517863831927095,0.0,0.0,0.0,3.584565626492888,0.0,0.0,0.0,0.0,0.0,0.0,0.0,0.0,0.0,0.0,0.0,0.0,0.0,0.0,
1.585,3.6026289754482987,3.6026289754482987,3.5535393103066073,0.0,0.0,0.0,3.5862657537344016,0.0,0.0,0.0,0.0,0.0,0.0,0.0,0.0,0.0,0.0,0.0,0.0,0.0,0.0,
1.6008,3.6043131757671474,3.6043131757671474,3.555303524377748,0.0,0.0,0.0,3.587976625304014,0.0,0.0,0.0,0.0,0.0,0.0,0.0,0.0,0.0,0.0,0.0,0.0,0.0,0.0,
1.6167,3.606029322670852,3.606029322670852,3.5571015323080797,0.0,0.0,0.0,3.5897200592165945,0.0,0.0,0.0,0.0,0.0,0.0,0.0,0.0,0.0,0.0,0.0,0.0,0.0,0.0,
1.6325,3.607755985699475,3.607755985699475,3.558910894771757,0.0,0.0,0.0,3.591474288723569,0.0,0.0,0.0,0.0,0.0,0.0,0.0,0.0,0.0,0.0,0.0,0.0,0.0,0.0,
1.6484,3.6095151820599645,3.6095151820599645,3.5607546973381847,0.0,0.0,0.0,3.5932616871527046,0.0,0.0,0.0,0.0,0.0,0.0,0.0,0.0,0.0,0.0,0.0,0.0,0.0,0.0,
1.6642,3.611284946002375,3.611284946002375,3.562609931919287,0.0,0.0,0.0,3.5950599413080124,0.0,0.0,0.0,0.0,0.0,0.0,0.0,0.0,0.0,0.0,0.0,0.0,0.0,0.0,
1.6801,3.6130878467161525,3.6130878467161525,3.5645002722455192,0.0,0.0,0.0,3.5968919885592747,0.0,0.0,0.0,0.0,0.0,0.0,0.0,0.0,0.0,0.0,0.0,0.0,0.0,0.0,
1.6959,3.6149013751981833,3.6149013751981833,3.5664021324599093,0.0,0.0,0.0,3.598734960952092,0.0,0.0,0.0,0.0,0.0,0.0,0.0,0.0,0.0,0.0,0.0,0.0,0.0,0.0,
1.7118,3.616748661306403,3.616748661306403,3.568339784347379,0.0,0.0,0.0,3.6006123689867287,0.0,0.0,0.0,0.0,0.0,0.0,0.0,0.0,0.0,0.0,0.0,0.0,0.0,0.0,
1.7276,3.6186066445102196,3.6186066445102196,3.5702890549128394,0.0,0.0,0.0,3.602500781311093,0.0,0.0,0.0,0.0,0.0,0.0,0.0,0.0,0.0,0.0,0.0,0.0,0.0,0.0,
1.7435,3.6204990243767323,3.6204990243767323,3.5722748243086113,0.0,0.0,0.0,3.604424291020692,0.0,0.0,0.0,0.0,0.0,0.0,0.0,0.0,0.0,0.0,0.0,0.0,0.0,0.0,
1.7593,3.622402180249015,3.622402180249015,3.574272322653382,0.0,0.0,0.0,3.606358894383804,0.0,0.0,0.0,0.0,0.0,0.0,0.0,0.0,0.0,0.0,0.0,0.0,0.0,0.0,
1.7752,3.624340390815484,3.624340390815484,3.5763070492205187,0.0,0.0,0.0,3.6083292769504958,0.0,0.0,0.0,0.0,0.0,0.0,0.0,0.0,0.0,0.0,0.0,0.0,0.0,0.0,
1.791,3.6262894663552365,3.6262894663552365,3.5783536270977905,0.0,0.0,0.0,3.6103108532694215,0.0,0.0,0.0,0.0,0.0,0.0,0.0,0.0,0.0,0.0,0.0,0.0,0.0,0.0,
1.8069,3.628274274479621,3.628274274479621,3.5804381858966825,0.0,0.0,0.0,3.6123289116186417,0.0,0.0,0.0,0.0,0.0,0.0,0.0,0.0,0.0,0.0,0.0,0.0,0.0,0.0,
1.8227,3.6302700471120986,3.6302700471120986,3.582534731114102,0.0,0.0,0.0,3.614358275112766,0.0,0.0,0.0,0.0,0.0,0.0,0.0,0.0,0.0,0.0,0.0,0.0,0.0,0.0,
1.8386,3.632302250997047,3.632302250997047,3.5846700344047413,0.0,0.0,0.0,3.616424845466278,0.0,0.0,0.0,0.0,0.0,0.0,0.0,0.0,0.0,0.0,0.0,0.0,0.0,0.0,
1.8544,3.634345530040593,3.634345530040593,3.5868174726794484,0.0,0.0,0.0,3.6185028442535447,0.0,0.0,0.0,0.0,0.0,0.0,0.0,0.0,0.0,0.0,0.0,0.0,0.0,0.0,
1.8703,3.6364259607593876,3.6364259607593876,3.589004471855362,0.0,0.0,0.0,3.6206187977913786,0.0,0.0,0.0,0.0,0.0,0.0,0.0,0.0,0.0,0.0,0.0,0.0,0.0,0.0,
1.8861,3.6385175889932317,3.6385175889932317,3.591203768805397,0.0,0.0,0.0,3.6227463155972868,0.0,0.0,0.0,0.0,0.0,0.0,0.0,0.0,0.0,0.0,0.0,0.0,0.0,0.0,
1.902,3.64064711212131,3.64064711212131,3.593443456471224,0.0,0.0,0.0,3.624912560237948,0.0,0.0,0.0,0.0,0.0,0.0,0.0,0.0,0.0,0.0,0.0,0.0,0.0,0.0,
1.9178,3.6427879674626418,3.6427879674626418,3.5956956197565475,0.0,0.0,0.0,3.627090518227277,0.0,0.0,0.0,0.0,0.0,0.0,0.0,0.0,0.0,0.0,0.0,0.0,0.0,0.0,
1.9337,3.64496748482397,3.64496748482397,3.5979890319627326,0.0,0.0,0.0,3.629308000536891,0.0,0.0,0.0,0.0,0.0,0.0,0.0,0.0,0.0,0.0,0.0,0.0,0.0,0.0,
1.9495,3.647158482123867,3.647158482123867,3.6002951135892114,0.0,0.0,0.0,3.631537359278982,0.0,0.0,0.0,0.0,0.0,0.0,0.0,0.0,0.0,0.0,0.0,0.0,0.0,0.0,
1.9654,3.649388933661806,3.649388933661806,3.6026433322386664,0.0,0.0,0.0,3.6338070665207596,0.0,0.0,0.0,0.0,0.0,0.0,0.0,0.0,0.0,0.0,0.0,0.0,0.0,0.0,
1.9812,3.651631026630532,3.651631026630532,3.60500443104124,0.0,0.0,0.0,3.636088828100768,0.0,0.0,0.0,0.0,0.0,0.0,0.0,0.0,0.0,0.0,0.0,0.0,0.0,0.0,
1.9971,3.653913392414627,3.653913392414627,3.6074085864847394,0.0,0.0,0.0,3.638411790437998,0.0,0.0,0.0,0.0,0.0,0.0,0.0,0.0,0.0,0.0,0.0,0.0,0.0,0.0,
2.0129,3.656207575687691,3.656207575687691,3.609825850806951,0.0,0.0,0.0,3.640747000727444,0.0,0.0,0.0,0.0,0.0,0.0,0.0,0.0,0.0,0.0,0.0,0.0,0.0,0.0,
2.0288,3.658542878068614,3.658542878068614,3.6122871246457997,0.0,0.0,0.0,3.6431242935943424,0.0,0.0,0.0,0.0,0.0,0.0,0.0,0.0,0.0,0.0,0.0,0.0,0.0,0.0,
2.0446,3.6608901894267634,3.6608901894267634,3.614761755235613,0.0,0.0,0.0,3.64551404469638,0.0,0.0,0.0,0.0,0.0,0.0,0.0,0.0,0.0,0.0,0.0,0.0,0.0,0.0,
2.0605,3.6632794953529473,3.6632794953529473,3.617281383352657,0.0,0.0,0.0,3.6479467913528505,0.0,0.0,0.0,0.0,0.0,0.0,0.0,0.0,0.0,0.0,0.0,0.0,0.0,0.0,
