energies(eV),real_xx,real_yy,real_zz,real_xy,real_yz,real_xz,real_ave,imag_xx,imag_yy,imag_zz,imag_xy,imag_yz,imag_xz,imag_ave,absorption_xx,absorption_yy,absorption_zz,absorption_xy,absorption_yz,absorption_xz,absorption_ave,band_gap
0.0,2.523121800566441,2.523121800566441,2.4810762611474546,0.0,0.0,0.0,2.5091066207601123,0.0,0.0,0.0,0.0,0.0,0.0,0.0,0.0,0.0,0.0,0.0,0.0,0.0,0.0,3.8992999999999998
0.0133,2.5231250487639976,2.5231250487639976,2.4810792436540776,0.0,0.0,0.0,2.509109780394024,0.0,0.0,0.0,0.0,0.0,0.0,0.0,0.0,0.0,0.0,0.0,0.0,0.0,0.0,
0.0267,2.5231348914062215,2.5231348914062215,2.481088281190482,0.0,0.0,0.0,2.5091193546676416,0.0,0.0,0.0,0.0,0.0,0.0,0.0,0.0,0.0,0.0,0.0,0.0,0.0,0.0,
0.04,2.523151182110733,2.523151182110733,2.481103239309668,0.0,0.0,0.0,2.509135201177045,0.0,0.0,0.0,0.0,0.0,0.0,0.0,0.0,0.0,0.0,0.0,0.0,0.0,0.0,
0.0533,2.5231739707728043,2.5231739707728043,2.4811241637620136,0.0,0.0,0.0,2.509157368435874,0.0,0.0,0.0,0.0,0.0,0.0,0.0,0.0,0.0,0.0,0.0,0.0,0.0,0.0,
0.0666,2.523203258604517,2.523203258604517,2.481151055571396,0.0,0.0,0.0,2.5091858575934767,0.0,0.0,0.0,0.0,0.0,0.0,0.0,0.0,0.0,0.0,0.0,0.0,0.0,0.0,
0.08,2.5232393408779776,2.5232393408779776,2.48118418573649,0.0,0.0,0.0,2.509220955830815,0.0,0.0,0.0,0.0,0.0,0.0,0.0,0.0,0.0,0.0,0.0,0.0,0.0,0.0,
0.0933,2.5232816809693253,2.5232816809693253,2.4812230613969946,0.0,0.0,0.0,2.5092621411118814,0.0,0.0,0.0,0.0,0.0,0.0,0.0,0.0,0.0,0.0,0.0,0.0,0.0,0.0,
0.1066,2.523330525961707,2.523330525961707,2.481267909255973,0.0,0.0,0.0,2.5093096537264628,0.0,0.0,0.0,0.0,0.0,0.0,0.0,0.0,0.0,0.0,0.0,0.0,0.0,0.0,
0.1199,2.5233858784556236,2.5233858784556236,2.4813187315100453,0.0,0.0,0.0,2.509363496140431,0.0,0.0,0.0,0.0,0.0,0.0,0.0,0.0,0.0,0.0,0.0,0.0,0.0,0.0,
0.1333,2.5234482312015363,2.5234482312015363,2.481375980355775,0.0,0.0,0.0,2.5094241475862824,0.0,0.0,0.0,0.0,0.0,0.0,0.0,0.0,0.0,0.0,0.0,0.0,0.0,0.0,
0.1466,2.523516656879525,2.523516656879525,2.481438804135336,0.0,0.0,0.0,2.509490705964795,0.0,0.0,0.0,0.0,0.0,0.0,0.0,0.0,0.0,0.0,0.0,0.0,0.0,0.0,
0.1599,2.5235915999766414,2.5235915999766414,2.4815076106866307,0.0,0.0,0.0,2.509563603546638,0.0,0.0,0.0,0.0,0.0,0.0,0.0,0.0,0.0,0.0,0.0,0.0,0.0,0.0,
0.1732,2.5236730644896395,2.5236730644896395,2.4815824033851936,0.0,0.0,0.0,2.509642844121491,0.0,0.0,0.0,0.0,0.0,0.0,0.0,0.0,0.0,0.0,0.0,0.0,0.0,0.0,
0.1866,2.523761741075525,2.523761741075525,2.481663815986703,0.0,0.0,0.0,2.509729099379251,0.0,0.0,0.0,0.0,0.0,0.0,0.0,0.0,0.0,0.0,0.0,0.0,0.0,0.0,
0.1999,2.523856310931802,2.523856310931802,2.4817506373709777,0.0,0.0,0.0,2.5098210864115273,0.0,0.0,0.0,0.0,0.0,0.0,0.0,0.0,0.0,0.0,0.0,0.0,0.0,0.0,
0.2132,2.523957416337653,2.523957416337653,2.481843456838124,0.0,0.0,0.0,2.50991942983781,0.0,0.0,0.0,0.0,0.0,0.0,0.0,0.0,0.0,0.0,0.0,0.0,0.0,0.0,
0.2265,2.524065062698183,2.524065062698183,2.481942278952177,0.0,0.0,0.0,2.5100241347828476,0.0,0.0,0.0,0.0,0.0,0.0,0.0,0.0,0.0,0.0,0.0,0.0,0.0,0.0,
0.2399,2.524180139178851,2.524180139178851,2.4820479195355682,0.0,0.0,0.0,2.5101360659644234,0.0,0.0,0.0,0.0,0.0,0.0,0.0,0.0,0.0,0.0,0.0,0.0,0.0,0.0,
0.2532,2.5243009343737777,2.5243009343737777,2.482158807058524,0.0,0.0,0.0,2.5102535586020265,0.0,0.0,0.0,0.0,0.0,0.0,0.0,0.0,0.0,0.0,0.0,0.0,0.0,0.0,
0.2665,2.524428288915931,2.524428288915931,2.4822757127568966,0.0,0.0,0.0,2.510377430196253,0.0,0.0,0.0,0.0,0.0,0.0,0.0,0.0,0.0,0.0,0.0,0.0,0.0,0.0,
0.2798,2.524562209635132,2.524562209635132,2.482398642396208,0.0,0.0,0.0,2.5105076872221574,0.0,0.0,0.0,0.0,0.0,0.0,0.0,0.0,0.0,0.0,0.0,0.0,0.0,0.0,
0.2932,2.5247037849829006,2.5247037849829006,2.4825285945212547,0.0,0.0,0.0,2.510645388162352,0.0,0.0,0.0,0.0,0.0,0.0,0.0,0.0,0.0,0.0,0.0,0.0,0.0,0.0,
0.3065,2.5248509094914313,2.5248509094914313,2.4826636359603222,0.0,0.0,0.0,2.5107884849810618,0.0,0.0,0.0,0.0,0.0,0.0,0.0,0.0,0.0,0.0,0.0,0.0,0.0,0.0,
0.3198,2.525004622884362,2.525004622884362,2.4828047205061328,0.0,0.0,0.0,2.5109379887582857,0.0,0.0,0.0,0.0,0.0,0.0,0.0,0.0,0.0,0.0,0.0,0.0,0.0,0.0,
0.3332,2.525166163789048,2.525166163789048,2.4829529843516935,0.0,0.0,0.0,2.5110951039765967,0.0,0.0,0.0,0.0,0.0,0.0,0.0,0.0,0.0,0.0,0.0,0.0,0.0,0.0,
0.3465,2.5253331298426813,2.5253331298426813,2.483106221941184,0.0,0.0,0.0,2.5112574938755157,0.0,0.0,0.0,0.0,0.0,0.0,0.0,0.0,0.0,0.0,0.0,0.0,0.0,0.0,
0.3598,2.5255067107710327,2.5255067107710327,2.4832655245684787,0.0,0.0,0.0,2.5114263153701812,0.0,0.0,0.0,0.0,0.0,0.0,0.0,0.0,0.0,0.0,0.0,0.0,0.0,0.0,
0.3731,2.525686915950728,2.525686915950728,2.4834309001442465,0.0,0.0,0.0,2.5116015773485674,0.0,0.0,0.0,0.0,0.0,0.0,0.0,0.0,0.0,0.0,0.0,0.0,0.0,0.0,
0.3865,2.525875185086682,2.525875185086682,2.483603669093523,0.0,0.0,0.0,2.5117846797556287,0.0,0.0,0.0,0.0,0.0,0.0,0.0,0.0,0.0,0.0,0.0,0.0,0.0,0.0,
0.3998,2.5260687183745647,2.5260687183745647,2.483781261364282,0.0,0.0,0.0,2.511972899371137,0.0,0.0,0.0,0.0,0.0,0.0,0.0,0.0,0.0,0.0,0.0,0.0,0.0,0.0,
0.4131,2.526268906349629,2.526268906349629,2.4839649522555383,0.0,0.0,0.0,2.5121675883182655,0.0,0.0,0.0,0.0,0.0,0.0,0.0,0.0,0.0,0.0,0.0,0.0,0.0,0.0,
0.4264,2.5264757598816105,2.5264757598816105,2.484154750933698,0.0,0.0,0.0,2.5123687568989728,0.0,0.0,0.0,0.0,0.0,0.0,0.0,0.0,0.0,0.0,0.0,0.0,0.0,0.0,
0.4398,2.52669092102787,2.52669092102787,2.4843521631296164,0.0,0.0,0.0,2.512578001728452,0.0,0.0,0.0,0.0,0.0,0.0,0.0,0.0,0.0,0.0,0.0,0.0,0.0,0.0,
0.4531,2.526911190129636,2.526911190129636,2.4845542522581923,0.0,0.0,0.0,2.5127922108391547,0.0,0.0,0.0,0.0,0.0,0.0,0.0,0.0,0.0,0.0,0.0,0.0,0.0,0.0,
0.4664,2.5271381597639992,2.5271381597639992,2.484762478661467,0.0,0.0,0.0,2.5130129327298216,0.0,0.0,0.0,0.0,0.0,0.0,0.0,0.0,0.0,0.0,0.0,0.0,0.0,0.0,
0.4797,2.527371842327632,2.527371842327632,2.484976852788401,0.0,0.0,0.0,2.5132401791478887,0.0,0.0,0.0,0.0,0.0,0.0,0.0,0.0,0.0,0.0,0.0,0.0,0.0,0.0,
0.4931,2.5276140836929955,2.5276140836929955,2.485199066906924,0.0,0.0,0.0,2.513475744764305,0.0,0.0,0.0,0.0,0.0,0.0,0.0,0.0,0.0,0.0,0.0,0.0,0.0,0.0,
0.5064,2.5278612815744195,2.5278612815744195,2.485425815559644,0.0,0.0,0.0,2.513716126236161,0.0,0.0,0.0,0.0,0.0,0.0,0.0,0.0,0.0,0.0,0.0,0.0,0.0,0.0,
0.5197,2.528115232010036,2.528115232010036,2.4856587453262464,0.0,0.0,0.0,2.5139630697821063,0.0,0.0,0.0,0.0,0.0,0.0,0.0,0.0,0.0,0.0,0.0,0.0,0.0,0.0,
0.533,2.528375948962418,2.528375948962418,2.485897867969139,0.0,0.0,0.0,2.514216588631325,0.0,0.0,0.0,0.0,0.0,0.0,0.0,0.0,0.0,0.0,0.0,0.0,0.0,0.0,
0.5464,2.5286454837742944,2.5286454837742944,2.4861450636859646,0.0,0.0,0.0,2.5144786770781846,0.0,0.0,0.0,0.0,0.0,0.0,0.0,0.0,0.0,0.0,0.0,0.0,0.0,0.0,
0.5597,2.5289198283924996,2.5289198283924996,2.486396655498421,0.0,0.0,0.0,2.514745437427807,0.0,0.0,0.0,0.0,0.0,0.0,0.0,0.0,0.0,0.0,0.0,0.0,0.0,0.0,
0.573,2.529200983926879,2.529200983926879,2.4866544775790573,0.0,0.0,0.0,2.5150188151442716,0.0,0.0,0.0,0.0,0.0,0.0,0.0,0.0,0.0,0.0,0.0,0.0,0.0,0.0,
0.5863,2.5294889659502995,2.5294889659502995,2.486918543038869,0.0,0.0,0.0,2.5152988249798227,0.0,0.0,0.0,0.0,0.0,0.0,0.0,0.0,0.0,0.0,0.0,0.0,0.0,0.0,
0.5997,2.5297860331288256,2.5297860331288256,2.48719092156329,0.0,0.0,0.0,2.5155876626069804,0.0,0.0,0.0,0.0,0.0,0.0,0.0,0.0,0.0,0.0,0.0,0.0,0.0,0.0,
0.613,2.5300877681232894,2.5300877681232894,2.487467561687688,0.0,0.0,0.0,2.5158810326447556,0.0,0.0,0.0,0.0,0.0,0.0,0.0,0.0,0.0,0.0,0.0,0.0,0.0,0.0,
0.6263,2.5303963789226684,2.5303963789226684,2.487750486697186,0.0,0.0,0.0,2.516181081514174,0.0,0.0,0.0,0.0,0.0,0.0,0.0,0.0,0.0,0.0,0.0,0.0,0.0,0.0,
0.6397,2.530714281122539,2.530714281122539,2.4880419096078787,0.0,0.0,0.0,2.516490157284319,0.0,0.0,0.0,0.0,0.0,0.0,0.0,0.0,0.0,0.0,0.0,0.0,0.0,0.0,
0.653,2.5310367476824274,2.5310367476824274,2.4883374957710034,0.0,0.0,0.0,2.516803663711953,0.0,0.0,0.0,0.0,0.0,0.0,0.0,0.0,0.0,0.0,0.0,0.0,0.0,0.0,
0.6663,2.531366143156685,2.531366143156685,2.4886394114948587,0.0,0.0,0.0,2.5171238992694094,0.0,0.0,0.0,0.0,0.0,0.0,0.0,0.0,0.0,0.0,0.0,0.0,0.0,0.0,
0.6796,2.5317024860611994,2.5317024860611994,2.4889476723494326,0.0,0.0,0.0,2.5174508814906105,0.0,0.0,0.0,0.0,0.0,0.0,0.0,0.0,0.0,0.0,0.0,0.0,0.0,0.0,
0.693,2.532048403053839,2.532048403053839,2.4892646839796044,0.0,0.0,0.0,2.5177871633624274,0.0,0.0,0.0,0.0,0.0,0.0,0.0,0.0,0.0,0.0,0.0,0.0,0.0,0.0,
0.7063,2.532398750705421,2.532398750705421,2.4895857312690994,0.0,0.0,0.0,2.518127744226647,0.0,0.0,0.0,0.0,0.0,0.0,0.0,0.0,0.0,0.0,0.0,0.0,0.0,0.0,
0.7196,2.532756104105184,2.532756104105184,2.4899131727099864,0.0,0.0,0.0,2.5184751269734513,0.0,0.0,0.0,0.0,0.0,0.0,0.0,0.0,0.0,0.0,0.0,0.0,0.0,0.0,
0.7329,2.5331204835320316,2.5331204835320316,2.4902470253416444,0.0,0.0,0.0,2.5188293308019025,0.0,0.0,0.0,0.0,0.0,0.0,0.0,0.0,0.0,0.0,0.0,0.0,0.0,0.0,
0.7463,2.5334947291373604,2.5334947291373604,2.4905898894780396,0.0,0.0,0.0,2.5191931159175867,0.0,0.0,0.0,0.0,0.0,0.0,0.0,0.0,0.0,0.0,0.0,0.0,0.0,0.0,
0.7596,2.5338732764842513,2.5338732764842513,2.490936665649535,0.0,0.0,0.0,2.5195610728726794,0.0,0.0,0.0,0.0,0.0,0.0,0.0,0.0,0.0,0.0,0.0,0.0,0.0,0.0,
0.7729,2.5342589135783715,2.5342589135783715,2.491289906530664,0.0,0.0,0.0,2.5199359112291355,0.0,0.0,0.0,0.0,0.0,0.0,0.0,0.0,0.0,0.0,0.0,0.0,0.0,0.0,
0.7862,2.5346516625295625,2.5346516625295625,2.4916496306838756,0.0,0.0,0.0,2.5203176519143335,0.0,0.0,0.0,0.0,0.0,0.0,0.0,0.0,0.0,0.0,0.0,0.0,0.0,0.0,
0.7996,2.5350545796389756,2.5350545796389756,2.492018635319474,0.0,0.0,0.0,2.5207092648658085,0.0,0.0,0.0,0.0,0.0,0.0,0.0,0.0,0.0,0.0,0.0,0.0,0.0,0.0,
0.8129,2.5354616744161422,2.5354616744161422,2.492391432372875,0.0,0.0,0.0,2.5211049270683863,0.0,0.0,0.0,0.0,0.0,0.0,0.0,0.0,0.0,0.0,0.0,0.0,0.0,0.0,
0.8262,2.535875950387906,2.535875950387906,2.492770770885375,0.0,0.0,0.0,2.5215075572203958,0.0,0.0,0.0,0.0,0.0,0.0,0.0,0.0,0.0,0.0,0.0,0.0,0.0,0.0,
0.8395,2.5362974315703264,2.5362974315703264,2.4931566710019117,0.0,0.0,0.0,2.5219171780475214,0.0,0.0,0.0,0.0,0.0,0.0,0.0,0.0,0.0,0.0,0.0,0.0,0.0,0.0,
0.8529,2.5367293933048076,2.5367293933048076,2.493552129250676,0.0,0.0,0.0,2.5223369719534303,0.0,0.0,0.0,0.0,0.0,0.0,0.0,0.0,0.0,0.0,0.0,0.0,0.0,0.0,
0.8662,2.5371654135580526,2.5371654135580526,2.493951264361704,0.0,0.0,0.0,2.5227606971592698,0.0,0.0,0.0,0.0,0.0,0.0,0.0,0.0,0.0,0.0,0.0,0.0,0.0,0.0,
0.8795,2.5376087142151125,2.5376087142151125,2.494357024119989,0.0,0.0,0.0,2.5231914841834047,0.0,0.0,0.0,0.0,0.0,0.0,0.0,0.0,0.0,0.0,0.0,0.0,0.0,0.0,
0.8928,2.538059321281543,2.538059321281543,2.494769430318685,0.0,0.0,0.0,2.5236293576272573,0.0,0.0,0.0,0.0,0.0,0.0,0.0,0.0,0.0,0.0,0.0,0.0,0.0,0.0,
0.9062,2.538520732274021,2.538520732274021,2.495191681427776,0.0,0.0,0.0,2.524077715325273,0.0,0.0,0.0,0.0,0.0,0.0,0.0,0.0,0.0,0.0,0.0,0.0,0.0,0.0,
0.9195,2.5389860876651893,2.5389860876651893,2.4956174979779857,0.0,0.0,0.0,2.524529891102788,0.0,0.0,0.0,0.0,0.0,0.0,0.0,0.0,0.0,0.0,0.0,0.0,0.0,0.0,
0.9328,2.5394588307776993,2.5394588307776993,2.4960500290756533,0.0,0.0,0.0,2.5249892302103505,0.0,0.0,0.0,0.0,0.0,0.0,0.0,0.0,0.0,0.0,0.0,0.0,0.0,0.0,
0.9461,2.5399389896985443,2.5399389896985443,2.496489298234611,0.0,0.0,0.0,2.525455759210567,0.0,0.0,0.0,0.0,0.0,0.0,0.0,0.0,0.0,0.0,0.0,0.0,0.0,0.0,
0.9595,2.5404302875106715,2.5404302875106715,2.4969387087019186,0.0,0.0,0.0,2.5259330945744205,0.0,0.0,0.0,0.0,0.0,0.0,0.0,0.0,0.0,0.0,0.0,0.0,0.0,0.0,
0.9728,2.540925420758973,2.540925420758973,2.497391577415433,0.0,0.0,0.0,2.52641413964446,0.0,0.0,0.0,0.0,0.0,0.0,0.0,0.0,0.0,0.0,0.0,0.0,0.0,0.0,
0.9861,2.5414280575367316,2.5414280575367316,2.4978512575899225,0.0,0.0,0.0,2.526902457554462,0.0,0.0,0.0,0.0,0.0,0.0,0.0,0.0,0.0,0.0,0.0,0.0,0.0,0.0,
0.9995,2.541942092595937,2.541942092595937,2.4983213081464686,0.0,0.0,0.0,2.527401831112781,0.0,0.0,0.0,0.0,0.0,0.0,0.0,0.0,0.0,0.0,0.0,0.0,0.0,0.0,
1.0128,2.5424598847984634,2.5424598847984634,2.49879473934565,0.0,0.0,0.0,2.5279048363141925,0.0,0.0,0.0,0.0,0.0,0.0,0.0,0.0,0.0,0.0,0.0,0.0,0.0,0.0,
1.0261,2.5429852732698155,2.5429852732698155,2.499275059541591,0.0,0.0,0.0,2.528415202027074,0.0,0.0,0.0,0.0,0.0,0.0,0.0,0.0,0.0,0.0,0.0,0.0,0.0,0.0,
1.0394,2.5435182899904496,2.5435182899904496,2.4997622954571472,0.0,0.0,0.0,2.528932958479349,0.0,0.0,0.0,0.0,0.0,0.0,0.0,0.0,0.0,0.0,0.0,0.0,0.0,0.0,
1.0528,2.544063061869246,2.544063061869246,2.50026021629275,0.0,0.0,0.0,2.5294621133437474,0.0,0.0,0.0,0.0,0.0,0.0,0.0,0.0,0.0,0.0,0.0,0.0,0.0,0.0,
1.0661,2.544611491348121,2.544611491348121,2.500761418258386,0.0,0.0,0.0,2.5299948003182093,0.0,0.0,0.0,0.0,0.0,0.0,0.0,0.0,0.0,0.0,0.0,0.0,0.0,0.0,
1.0794,2.5451676488057413,2.5451676488057413,2.5012696192294923,0.0,0.0,0.0,2.530534972280325,0.0,0.0,0.0,0.0,0.0,0.0,0.0,0.0,0.0,0.0,0.0,0.0,0.0,0.0,
1.0927,2.5457315686079243,2.5457315686079243,2.501784847888927,0.0,0.0,0.0,2.531082661701592,0.0,0.0,0.0,0.0,0.0,0.0,0.0,0.0,0.0,0.0,0.0,0.0,0.0,0.0,
1.1061,2.5463076139843066,2.5463076139843066,2.5023110871873655,0.0,0.0,0.0,2.531642105051993,0.0,0.0,0.0,0.0,0.0,0.0,0.0,0.0,0.0,0.0,0.0,0.0,0.0,0.0,
1.1194,2.546887223073323,2.546887223073323,2.5028405126944375,0.0,0.0,0.0,2.532204986280361,0.0,0.0,0.0,0.0,0.0,0.0,0.0,0.0,0.0,0.0,0.0,0.0,0.0,0.0,
1.1327,2.5474747016048256,2.5474747016048256,2.5033770552234156,0.0,0.0,0.0,2.5327754861443554,0.0,0.0,0.0,0.0,0.0,0.0,0.0,0.0,0.0,0.0,0.0,0.0,0.0,0.0,
1.146,2.5480700864619514,2.5480700864619514,2.5039207455208934,0.0,0.0,0.0,2.5333536394815988,0.0,0.0,0.0,0.0,0.0,0.0,0.0,0.0,0.0,0.0,0.0,0.0,0.0,0.0,
1.1594,2.5486779816692464,2.5486779816692464,2.504475784012755,0.0,0.0,0.0,2.5339439157837496,0.0,0.0,0.0,0.0,0.0,0.0,0.0,0.0,0.0,0.0,0.0,0.0,0.0,0.0,
1.1727,2.5492893525989375,2.5492893525989375,2.5050339185626527,0.0,0.0,0.0,2.5345375412535094,0.0,0.0,0.0,0.0,0.0,0.0,0.0,0.0,0.0,0.0,0.0,0.0,0.0,0.0,
1.186,2.549908744737018,2.549908744737018,2.505599296589611,0.0,0.0,0.0,2.5351389286878825,0.0,0.0,0.0,0.0,0.0,0.0,0.0,0.0,0.0,0.0,0.0,0.0,0.0,0.0,
1.1993,2.5505361976290972,2.5505361976290972,2.5061719510180684,0.0,0.0,0.0,2.5357481154254207,0.0,0.0,0.0,0.0,0.0,0.0,0.0,0.0,0.0,0.0,0.0,0.0,0.0,0.0,
1.2127,2.551176560897237,2.551176560897237,2.5067563037423577,0.0,0.0,0.0,2.5363698085122772,0.0,0.0,0.0,0.0,0.0,0.0,0.0,0.0,0.0,0.0,0.0,0.0,0.0,0.0,
1.226,2.5518203180734274,2.5518203180734274,2.50734366735342,0.0,0.0,0.0,2.536994767833425,0.0,0.0,0.0,0.0,0.0,0.0,0.0,0.0,0.0,0.0,0.0,0.0,0.0,0.0,
1.2393,2.552472259129436,2.552472259129436,2.5079384098093795,0.0,0.0,0.0,2.5376276426894173,0.0,0.0,0.0,0.0,0.0,0.0,0.0,0.0,0.0,0.0,0.0,0.0,0.0,0.0,
1.2526,2.55313242643321,2.55313242643321,2.5085405663379836,0.0,0.0,0.0,2.5382684730681344,0.0,0.0,0.0,0.0,0.0,0.0,0.0,0.0,0.0,0.0,0.0,0.0,0.0,0.0,
1.266,2.5538059203553423,2.5538059203553423,2.509154784579388,0.0,0.0,0.0,2.5389222084300243,0.0,0.0,0.0,0.0,0.0,0.0,0.0,0.0,0.0,0.0,0.0,0.0,0.0,0.0,
1.2793,2.5544827328669033,2.5544827328669033,2.5097719337561326,0.0,0.0,0.0,2.539579133163313,0.0,0.0,0.0,0.0,0.0,0.0,0.0,0.0,0.0,0.0,0.0,0.0,0.0,0.0,
1.2926,2.5551679034995365,2.5551679034995365,2.5103966065796532,0.0,0.0,0.0,2.5402441378595753,0.0,0.0,0.0,0.0,0.0,0.0,0.0,0.0,0.0,0.0,0.0,0.0,0.0,0.0,
1.306,2.5558667244085544,2.5558667244085544,2.51103362309565,0.0,0.0,0.0,2.540922357304253,0.0,0.0,0.0,0.0,0.0,0.0,0.0,0.0,0.0,0.0,0.0,0.0,0.0,0.0,
1.3193,2.5565688118675833,2.5565688118675833,2.511673514139183,0.0,0.0,0.0,2.541603712624783,0.0,0.0,0.0,0.0,0.0,0.0,0.0,0.0,0.0,0.0,0.0,0.0,0.0,0.0,
1.3326,2.5572793962476994,2.5572793962476994,2.5123210440389068,0.0,0.0,0.0,2.5422932788447685,0.0,0.0,0.0,0.0,0.0,0.0,0.0,0.0,0.0,0.0,0.0,0.0,0.0,0.0,
1.3459,2.5579985252916275,2.5579985252916275,2.5129762523952035,0.0,0.0,0.0,2.5429911009928197,0.0,0.0,0.0,0.0,0.0,0.0,0.0,0.0,0.0,0.0,0.0,0.0,0.0,0.0,
1.3593,2.5587317518267443,2.5587317518267443,2.5136441932240032,0.0,0.0,0.0,2.5437025656258307,0.0,0.0,0.0,0.0,0.0,0.0,0.0,0.0,0.0,0.0,0.0,0.0,0.0,0.0,
1.3726,2.5594681818740885,2.5594681818740885,2.5143149384538543,0.0,0.0,0.0,2.5444171007340106,0.0,0.0,0.0,0.0,0.0,0.0,0.0,0.0,0.0,0.0,0.0,0.0,0.0,0.0,
1.3859,2.5602133051425158,2.5602133051425158,2.514993485272109,0.0,0.0,0.0,2.5451400318523802,0.0,0.0,0.0,0.0,0.0,0.0,0.0,0.0,0.0,0.0,0.0,0.0,0.0,0.0,
1.3992,2.560967172725525,2.560967172725525,2.515679875996783,0.0,0.0,0.0,2.545871407149278,0.0,0.0,0.0,0.0,0.0,0.0,0.0,0.0,0.0,0.0,0.0,0.0,0.0,0.0,
1.4126,2.5617356043532657,2.5617356043532657,2.5163794037676404,0.0,0.0,0.0,2.546616870824724,0.0,0.0,0.0,0.0,0.0,0.0,0.0,0.0,0.0,0.0,0.0,0.0,0.0,0.0,
1.4259,2.56250718408245,2.56250718408245,2.5170816718895557,0.0,0.0,0.0,2.5473653466848183,0.0,0.0,0.0,0.0,0.0,0.0,0.0,0.0,0.0,0.0,0.0,0.0,0.0,0.0,
1.4392,2.5632876671002887,2.5632876671002887,2.51779191548873,0.0,0.0,0.0,2.5481224165631025,0.0,0.0,0.0,0.0,0.0,0.0,0.0,0.0,0.0,0.0,0.0,0.0,0.0,0.0,
1.4525,2.564077108081423,2.564077108081423,2.5185101797812033,0.0,0.0,0.0,2.5488881319813497,0.0,0.0,0.0,0.0,0.0,0.0,0.0,0.0,0.0,0.0,0.0,0.0,0.0,0.0,
1.4659,2.564881600333604,2.564881600333604,2.5192420025432254,0.0,0.0,0.0,2.5496684010701443,0.0,0.0,0.0,0.0,0.0,0.0,0.0,0.0,0.0,0.0,0.0,0.0,0.0,0.0,
1.4792,2.565689193423799,2.565689193423799,2.5199765080788086,0.0,0.0,0.0,2.5504516316421353,0.0,0.0,0.0,0.0,0.0,0.0,0.0,0.0,0.0,0.0,0.0,0.0,0.0,0.0,
1.4925,2.5665059145965685,2.5665059145965685,2.520719174887751,0.0,0.0,0.0,2.5512436680269626,0.0,0.0,0.0,0.0,0.0,0.0,0.0,0.0,0.0,0.0,0.0,0.0,0.0,0.0,
1.5058,2.5673318223623314,2.5673318223623314,2.5214700512833357,0.0,0.0,0.0,2.5520445653359993,0.0,0.0,0.0,0.0,0.0,0.0,0.0,0.0,0.0,0.0,0.0,0.0,0.0,0.0,
1.5192,2.5681732907577137,2.5681732907577137,2.5222349255751952,0.0,0.0,0.0,2.552860502363541,0.0,0.0,0.0,0.0,0.0,0.0,0.0,0.0,0.0,0.0,0.0,0.0,0.0,0.0,
1.5325,2.5690178214649078,2.5690178214649078,2.5230024319856383,0.0,0.0,0.0,2.553679358305151,0.0,0.0,0.0,0.0,0.0,0.0,0.0,0.0,0.0,0.0,0.0,0.0,0.0,0.0,
1.5458,2.5698717208351276,2.5698717208351276,2.523778298202174,0.0,0.0,0.0,2.554507246624143,0.0,0.0,0.0,0.0,0.0,0.0,0.0,0.0,0.0,0.0,0.0,0.0,0.0,0.0,
1.5591,2.570735051496286,2.570735051496286,2.5245625758557075,0.0,0.0,0.0,2.55534422628276,0.0,0.0,0.0,0.0,0.0,0.0,0.0,0.0,0.0,0.0,0.0,0.0,0.0,0.0,
1.5725,2.571614475877418,2.571614475877418,2.5253613100983285,0.0,0.0,0.0,2.556196753951055,0.0,0.0,0.0,0.0,0.0,0.0,0.0,0.0,0.0,0.0,0.0,0.0,0.0,0.0,
1.5858,2.5724969334498367,2.5724969334498367,2.5261626332380454,0.0,0.0,0.0,2.5570521667125727,0.0,0.0,0.0,0.0,0.0,0.0,0.0,0.0,0.0,0.0,0.0,0.0,0.0,0.0,
1.5991,2.5733890172261127,2.5733890172261127,2.5269725283711004,0.0,0.0,0.0,2.557916854274442,0.0,0.0,0.0,0.0,0.0,0.0,0.0,0.0,0.0,0.0,0.0,0.0,0.0,0.0,
1.6125,2.5742976114293823,2.5742976114293823,2.5277972378117393,0.0,0.0,0.0,2.558797486890168,0.0,0.0,0.0,0.0,0.0,0.0,0.0,0.0,0.0,0.0,0.0,0.0,0.0,0.0,
1.6258,2.5752092236002504,2.5752092236002504,2.528624508942012,0.0,0.0,0.0,2.5596809853808375,0.0,0.0,0.0,0.0,0.0,0.0,0.0,0.0,0.0,0.0,0.0,0.0,0.0,0.0,
1.6391,2.5761306671703053,2.5761306671703053,2.5294605208829295,0.0,0.0,0.0,2.56057395174118,0.0,0.0,0.0,0.0,0.0,0.0,0.0,0.0,0.0,0.0,0.0,0.0,0.0,0.0,
1.6524,2.5770620127472617,2.5770620127472617,2.5303053316763036,0.0,0.0,0.0,2.5614764523902758,0.0,0.0,0.0,0.0,0.0,0.0,0.0,0.0,0.0,0.0,0.0,0.0,0.0,0.0,
1.6658,2.5780104477168306,2.5780104477168306,2.5311654526108565,0.0,0.0,0.0,2.562395449348173,0.0,0.0,0.0,0.0,0.0,0.0,0.0,0.0,0.0,0.0,0.0,0.0,0.0,0.0,
1.6791,2.578961889881055,2.578961889881055,2.532028106468328,0.0,0.0,0.0,2.563317295410146,0.0,0.0,0.0,0.0,0.0,0.0,0.0,0.0,0.0,0.0,0.0,0.0,0.0,0.0,
1.6924,2.579923453894126,2.579923453894126,2.5328997397417745,0.0,0.0,0.0,2.5642488825100087,0.0,0.0,0.0,0.0,0.0,0.0,0.0,0.0,0.0,0.0,0.0,0.0,0.0,0.0,
1.7057,2.5808952154256577,2.5808952154256577,2.5337804145284863,0.0,0.0,0.0,2.5651902817932672,0.0,0.0,0.0,0.0,0.0,0.0,0.0,0.0,0.0,0.0,0.0,0.0,0.0,0.0,
1.7191,2.58188467431554,2.58188467431554,2.5346769187059053,0.0,0.0,0.0,2.566148755778995,0.0,0.0,0.0,0.0,0.0,0.0,0.0,0.0,0.0,0.0,0.0,0.0,0.0,0.0,
1.7324,2.5828771413668163,2.5828771413668163,2.535575936263044,0.0,0.0,0.0,2.5671100729988923,0.0,0.0,0.0,0.0,0.0,0.0,0.0,0.0,0.0,0.0,0.0,0.0,0.0,0.0,
