energies(eV),real_xx,real_yy,real_zz,real_xy,real_yz,real_xz,real_ave,imag_xx,imag_yy,imag_zz,imag_xy,imag_yz,imag_xz,imag_ave,absorption_xx,absorption_yy,absorption_zz,absorption_xy,absorption_yz,absorption_xz,absorption_ave,band_gap
0.0,2.574623923012457,2.574623923012457,2.457816172197262,0.0,0.0,0.0,2.5356880060740585,0.0,0.0,0.0,0.0,0.0,0.0,0.0,0.0,0.0,0.0,0.0,0.0,0.0,0.0,5.8126
0.015,2.574626559064967,2.574626559064967,2.457818409071144,0.0,0.0,0.0,2.535690509067026,0.0,0.0,0.0,0.0,0.0,0.0,0.0,0.0,0.0,0.0,0.0,0.0,0.0,0.0,
0.03,2.5746344672989228,2.5746344672989228,2.4578251197541645,0.0,0.0,0.0,2.5356980181173365,0.0,0.0,0.0,0.0,0.0,0.0,0.0,0.0,0.0,0.0,0.0,0.0,0.0,0.0,
0.045,2.5746476479436877,2.5746476479436877,2.457836304430482,0.0,0.0,0.0,2.535710533439286,0.0,0.0,0.0,0.0,0.0,0.0,0.0,0.0,0.0,0.0,0.0,0.0,0.0,0.0,
0.06,2.574666101381526,2.574666101381526,2.4578519634070677,0.0,0.0,0.0,2.53572805539004,0.0,0.0,0.0,0.0,0.0,0.0,0.0,0.0,0.0,0.0,0.0,0.0,0.0,0.0,
0.0751,2.5746900040225205,2.5746900040225205,2.4578722463547877,0.0,0.0,0.0,2.5357507514666096,0.0,0.0,0.0,0.0,0.0,0.0,0.0,0.0,0.0,0.0,0.0,0.0,0.0,0.0,
0.0901,2.574719039967984,2.574719039967984,2.45789688518144,0.0,0.0,0.0,2.5357783217058025,0.0,0.0,0.0,0.0,0.0,0.0,0.0,0.0,0.0,0.0,0.0,0.0,0.0,0.0,
0.1051,2.5747533507774287,2.5747533507774287,2.4579259999712546,0.0,0.0,0.0,2.535810900508704,0.0,0.0,0.0,0.0,0.0,0.0,0.0,0.0,0.0,0.0,0.0,0.0,0.0,0.0,
0.1201,2.5747929374463405,2.5747929374463405,2.4579595915235783,0.0,0.0,0.0,2.53584848880542,0.0,0.0,0.0,0.0,0.0,0.0,0.0,0.0,0.0,0.0,0.0,0.0,0.0,0.0,
0.1351,2.5748378011234783,2.5748378011234783,2.4579976607607907,0.0,0.0,0.0,2.535891087669249,0.0,0.0,0.0,0.0,0.0,0.0,0.0,0.0,0.0,0.0,0.0,0.0,0.0,0.0,
0.1501,2.5748879431108986,2.5748879431108986,2.4580402087284354,0.0,0.0,0.0,2.5359386983167442,0.0,0.0,0.0,0.0,0.0,0.0,0.0,0.0,0.0,0.0,0.0,0.0,0.0,0.0,
0.1651,2.5749433648641844,2.5749433648641844,2.45808723659528,0.0,0.0,0.0,2.535991322107883,0.0,0.0,0.0,0.0,0.0,0.0,0.0,0.0,0.0,0.0,0.0,0.0,0.0,0.0,
0.1801,2.5750040679925252,2.5750040679925252,2.458138745653411,0.0,0.0,0.0,2.536048960546154,0.0,0.0,0.0,0.0,0.0,0.0,0.0,0.0,0.0,0.0,0.0,0.0,0.0,0.0,
0.1952,2.5750705118993835,2.5750705118993835,2.458195125641172,0.0,0.0,0.0,2.536112049813313,0.0,0.0,0.0,0.0,0.0,0.0,0.0,0.0,0.0,0.0,0.0,0.0,0.0,0.0,
0.2102,2.575141818461071,2.575141818461071,2.4582556313518626,0.0,0.0,0.0,2.5361797560913346,0.0,0.0,0.0,0.0,0.0,0.0,0.0,0.0,0.0,0.0,0.0,0.0,0.0,0.0,
0.2252,2.575218412162953,2.575218412162953,2.4583206228829146,0.0,0.0,0.0,2.5362524824029404,0.0,0.0,0.0,0.0,0.0,0.0,0.0,0.0,0.0,0.0,0.0,0.0,0.0,0.0,
0.2402,2.575300295231366,2.575300295231366,2.4583901020218804,0.0,0.0,0.0,2.536330230828204,0.0,0.0,0.0,0.0,0.0,0.0,0.0,0.0,0.0,0.0,0.0,0.0,0.0,0.0,
0.2552,2.575387470047156,2.575387470047156,2.458464070680378,0.0,0.0,0.0,2.5364130035915635,0.0,0.0,0.0,0.0,0.0,0.0,0.0,0.0,0.0,0.0,0.0,0.0,0.0,0.0,
0.2702,2.5754799391458967,2.5754799391458967,2.4585425308942552,0.0,0.0,0.0,2.536500803062016,0.0,0.0,0.0,0.0,0.0,0.0,0.0,0.0,0.0,0.0,0.0,0.0,0.0,0.0,
0.2852,2.5755777052181896,2.5755777052181896,2.4586254848237665,0.0,0.0,0.0,2.536593631753382,0.0,0.0,0.0,0.0,0.0,0.0,0.0,0.0,0.0,0.0,0.0,0.0,0.0,0.0,
0.3002,2.575680771109819,2.575680771109819,2.45871293475376,0.0,0.0,0.0,2.536691492324466,0.0,0.0,0.0,0.0,0.0,0.0,0.0,0.0,0.0,0.0,0.0,0.0,0.0,0.0,
0.3153,2.575789880081119,2.575789880081119,2.4588055111831526,0.0,0.0,0.0,2.5367950904484635,0.0,0.0,0.0,0.0,0.0,0.0,0.0,0.0,0.0,0.0,0.0,0.0,0.0,0.0,
0.3303,2.5759035901553364,2.5759035901553364,2.458901990483312,0.0,0.0,0.0,2.5369030569313282,0.0,0.0,0.0,0.0,0.0,0.0,0.0,0.0,0.0,0.0,0.0,0.0,0.0,0.0,
0.3453,2.576022609543127,2.576022609543127,2.459002973406511,0.0,0.0,0.0,2.537016064164255,0.0,0.0,0.0,0.0,0.0,0.0,0.0,0.0,0.0,0.0,0.0,0.0,0.0,0.0,
0.3603,2.5761469417151357,2.5761469417151357,2.459108462739142,0.0,0.0,0.0,2.5371341153898044,0.0,0.0,0.0,0.0,0.0,0.0,0.0,0.0,0.0,0.0,0.0,0.0,0.0,0.0,
0.3753,2.5762765902987574,2.5762765902987574,2.459218461393322,0.0,0.0,0.0,2.5372572139969454,0.0,0.0,0.0,0.0,0.0,0.0,0.0,0.0,0.0,0.0,0.0,0.0,0.0,0.0,
0.3903,2.576411559078432,2.576411559078432,2.459332972407272,0.0,0.0,0.0,2.5373853635213783,0.0,0.0,0.0,0.0,0.0,0.0,0.0,0.0,0.0,0.0,0.0,0.0,0.0,0.0,
0.4053,2.5765518519960584,2.5765518519960584,2.4594519989455295,0.0,0.0,0.0,2.5375185676458822,0.0,0.0,0.0,0.0,0.0,0.0,0.0,0.0,0.0,0.0,0.0,0.0,0.0,0.0,
0.4203,2.5766974731513113,2.5766974731513113,2.4595755442992635,0.0,0.0,0.0,2.537656830200629,0.0,0.0,0.0,0.0,0.0,0.0,0.0,0.0,0.0,0.0,0.0,0.0,0.0,0.0,
0.4354,2.5768494510631,2.5768494510631,2.4597044808529738,0.0,0.0,0.0,2.5378011276597245,0.0,0.0,0.0,0.0,0.0,0.0,0.0,0.0,0.0,0.0,0.0,0.0,0.0,0.0,
0.4504,2.577005777220572,2.577005777220572,2.4598371044032423,0.0,0.0,0.0,2.537949552948129,0.0,0.0,0.0,0.0,0.0,0.0,0.0,0.0,0.0,0.0,0.0,0.0,0.0,0.0,
0.4654,2.577167444896658,2.577167444896658,2.459974257430296,0.0,0.0,0.0,2.5381030490745373,0.0,0.0,0.0,0.0,0.0,0.0,0.0,0.0,0.0,0.0,0.0,0.0,0.0,0.0,
0.4804,2.577334458827477,2.577334458827477,2.4601159437358633,0.0,0.0,0.0,2.5382616204636057,0.0,0.0,0.0,0.0,0.0,0.0,0.0,0.0,0.0,0.0,0.0,0.0,0.0,0.0,
0.4954,2.577506823908992,2.577506823908992,2.46026216724993,0.0,0.0,0.0,2.5384252716893045,0.0,0.0,0.0,0.0,0.0,0.0,0.0,0.0,0.0,0.0,0.0,0.0,0.0,0.0,
0.5104,2.57768454519759,2.57768454519759,2.460412932031172,0.0,0.0,0.0,2.5385940074754507,0.0,0.0,0.0,0.0,0.0,0.0,0.0,0.0,0.0,0.0,0.0,0.0,0.0,0.0,
0.5254,2.5778676279105177,2.5778676279105177,2.460568242267259,0.0,0.0,0.0,2.5387678326960983,0.0,0.0,0.0,0.0,0.0,0.0,0.0,0.0,0.0,0.0,0.0,0.0,0.0,0.0,
0.5404,2.578056077426413,2.578056077426413,2.460728102275315,0.0,0.0,0.0,2.538946752376047,0.0,0.0,0.0,0.0,0.0,0.0,0.0,0.0,0.0,0.0,0.0,0.0,0.0,0.0,
0.5555,2.578251209471426,2.578251209471426,2.460893627889261,0.0,0.0,0.0,2.5391320156107042,0.0,0.0,0.0,0.0,0.0,0.0,0.0,0.0,0.0,0.0,0.0,0.0,0.0,0.0,
0.5705,2.5784504452503714,2.5784504452503714,2.4610626313199315,0.0,0.0,0.0,2.5393211739402246,0.0,0.0,0.0,0.0,0.0,0.0,0.0,0.0,0.0,0.0,0.0,0.0,0.0,0.0,
0.5855,2.578655064981309,2.578655064981309,2.4612361982863957,0.0,0.0,0.0,2.5395154427496713,0.0,0.0,0.0,0.0,0.0,0.0,0.0,0.0,0.0,0.0,0.0,0.0,0.0,0.0,
0.6005,2.5788650746948,2.5788650746948,2.461414333628497,0.0,0.0,0.0,2.539714827672699,0.0,0.0,0.0,0.0,0.0,0.0,0.0,0.0,0.0,0.0,0.0,0.0,0.0,0.0,
0.6155,2.579080480585487,2.579080480585487,2.4615970423176696,0.0,0.0,0.0,2.5399193344962145,0.0,0.0,0.0,0.0,0.0,0.0,0.0,0.0,0.0,0.0,0.0,0.0,0.0,0.0,
0.6305,2.5793012890127702,2.5793012890127702,2.461784329457423,0.0,0.0,0.0,2.5401289691609876,0.0,0.0,0.0,0.0,0.0,0.0,0.0,0.0,0.0,0.0,0.0,0.0,0.0,0.0,
0.6455,2.5795275065013885,2.5795275065013885,2.46197620028377,0.0,0.0,0.0,2.5403437377621825,0.0,0.0,0.0,0.0,0.0,0.0,0.0,0.0,0.0,0.0,0.0,0.0,0.0,0.0,
0.6605,2.579759139742053,2.579759139742053,2.4621726601657588,0.0,0.0,0.0,2.540563646549955,0.0,0.0,0.0,0.0,0.0,0.0,0.0,0.0,0.0,0.0,0.0,0.0,0.0,0.0,
0.6755,2.5799961955920683,2.5799961955920683,2.4623737146059987,0.0,0.0,0.0,2.5407887019300452,0.0,0.0,0.0,0.0,0.0,0.0,0.0,0.0,0.0,0.0,0.0,0.0,0.0,0.0,
0.6906,2.580240315881429,2.580240315881429,2.462580755721117,0.0,0.0,0.0,2.541020462494658,0.0,0.0,0.0,0.0,0.0,0.0,0.0,0.0,0.0,0.0,0.0,0.0,0.0,0.0,
0.7056,2.5804882744619957,2.5804882744619957,2.4627910470485093,0.0,0.0,0.0,2.541255865324167,0.0,0.0,0.0,0.0,0.0,0.0,0.0,0.0,0.0,0.0,0.0,0.0,0.0,0.0,
0.7206,2.5807416772800305,2.5807416772800305,2.4630059502882684,0.0,0.0,0.0,2.541496434949443,0.0,0.0,0.0,0.0,0.0,0.0,0.0,0.0,0.0,0.0,0.0,0.0,0.0,0.0,
0.7356,2.5810005318673186,2.5810005318673186,2.46322547148344,0.0,0.0,0.0,2.5417421784060257,0.0,0.0,0.0,0.0,0.0,0.0,0.0,0.0,0.0,0.0,0.0,0.0,0.0,0.0,
0.7506,2.5812648459257814,2.5812648459257814,2.4634496168133313,0.0,0.0,0.0,2.541993102888298,0.0,0.0,0.0,0.0,0.0,0.0,0.0,0.0,0.0,0.0,0.0,0.0,0.0,0.0,
0.7656,2.581534627328253,2.581534627328253,2.4636783925941614,0.0,0.0,0.0,2.5422492157502226,0.0,0.0,0.0,0.0,0.0,0.0,0.0,0.0,0.0,0.0,0.0,0.0,0.0,0.0,
0.7806,2.581809884119214,2.581809884119214,2.4639118052796167,0.0,0.0,0.0,2.542510524506015,0.0,0.0,0.0,0.0,0.0,0.0,0.0,0.0,0.0,0.0,0.0,0.0,0.0,0.0,
0.7956,2.5820906245156285,2.5820906245156285,2.4641498614615287,0.0,0.0,0.0,2.5427770368309286,0.0,0.0,0.0,0.0,0.0,0.0,0.0,0.0,0.0,0.0,0.0,0.0,0.0,0.0,
0.8107,2.582378783571469,2.582378783571469,2.464394201532635,0.0,0.0,0.0,2.5430505895585243,0.0,0.0,0.0,0.0,0.0,0.0,0.0,0.0,0.0,0.0,0.0,0.0,0.0,0.0,
0.8257,2.582670553223081,2.582670553223081,2.464641596109262,0.0,0.0,0.0,2.5433275675184746,0.0,0.0,0.0,0.0,0.0,0.0,0.0,0.0,0.0,0.0,0.0,0.0,0.0,0.0,
0.8407,2.582967832232801,2.582967832232801,2.464893654840142,0.0,0.0,0.0,2.5436097731019145,0.0,0.0,0.0,0.0,0.0,0.0,0.0,0.0,0.0,0.0,0.0,0.0,0.0,0.0,
0.8557,2.583270629516919,2.583270629516919,2.465150384877006,0.0,0.0,0.0,2.543897214636948,0.0,0.0,0.0,0.0,0.0,0.0,0.0,0.0,0.0,0.0,0.0,0.0,0.0,0.0,
0.8707,2.583578954168388,2.583578954168388,2.465411793513044,0.0,0.0,0.0,2.544189900616607,0.0,0.0,0.0,0.0,0.0,0.0,0.0,0.0,0.0,0.0,0.0,0.0,0.0,0.0,
0.8857,2.583892815457828,2.583892815457828,2.4656778881835772,0.0,0.0,0.0,2.5444878396997446,0.0,0.0,0.0,0.0,0.0,0.0,0.0,0.0,0.0,0.0,0.0,0.0,0.0,0.0,
0.9007,2.584212222834343,2.584212222834343,2.465948676466848,0.0,0.0,0.0,2.5447910407118446,0.0,0.0,0.0,0.0,0.0,0.0,0.0,0.0,0.0,0.0,0.0,0.0,0.0,0.0,
0.9157,2.5845371859265933,2.5845371859265933,2.466224166084702,0.0,0.0,0.0,2.545099512645963,0.0,0.0,0.0,0.0,0.0,0.0,0.0,0.0,0.0,0.0,0.0,0.0,0.0,0.0,
0.9308,2.5848699367655166,2.5848699367655166,2.466506248715378,0.0,0.0,0.0,2.545415374082137,0.0,0.0,0.0,0.0,0.0,0.0,0.0,0.0,0.0,0.0,0.0,0.0,0.0,0.0,
0.9458,2.5852060781019435,2.5852060781019435,2.4667911962215427,0.0,0.0,0.0,2.5457344508084767,0.0,0.0,0.0,0.0,0.0,0.0,0.0,0.0,0.0,0.0,0.0,0.0,0.0,0.0,
0.9608,2.585547805195115,2.585547805195115,2.4670808691521153,0.0,0.0,0.0,2.546058826514115,0.0,0.0,0.0,0.0,0.0,0.0,0.0,0.0,0.0,0.0,0.0,0.0,0.0,0.0,
0.9758,2.585895128402699,2.585895128402699,2.467375275812171,0.0,0.0,0.0,2.546388510872523,0.0,0.0,0.0,0.0,0.0,0.0,0.0,0.0,0.0,0.0,0.0,0.0,0.0,0.0,
0.9908,2.586248058266907,2.586248058266907,2.4676744246543527,0.0,0.0,0.0,2.5467235137293893,0.0,0.0,0.0,0.0,0.0,0.0,0.0,0.0,0.0,0.0,0.0,0.0,0.0,0.0,
1.0058,2.5866066055155716,2.5866066055155716,2.467978324279737,0.0,0.0,0.0,2.5470638451036267,0.0,0.0,0.0,0.0,0.0,0.0,0.0,0.0,0.0,0.0,0.0,0.0,0.0,0.0,
1.0208,2.5869707810631946,2.5869707810631946,2.46828698343864,0.0,0.0,0.0,2.547409515188343,0.0,0.0,0.0,0.0,0.0,0.0,0.0,0.0,0.0,0.0,0.0,0.0,0.0,0.0,
1.0358,2.5873405960120985,2.5873405960120985,2.4686004110315456,0.0,0.0,0.0,2.547760534351914,0.0,0.0,0.0,0.0,0.0,0.0,0.0,0.0,0.0,0.0,0.0,0.0,0.0,0.0,
1.0509,2.587718583744689,2.587718583744689,2.468920753528857,0.0,0.0,0.0,2.5481193070060786,0.0,0.0,0.0,0.0,0.0,0.0,0.0,0.0,0.0,0.0,0.0,0.0,0.0,0.0,
1.0659,2.5880997493468083,2.5880997493468083,2.4692437772387477,0.0,0.0,0.0,2.5484810919774548,0.0,0.0,0.0,0.0,0.0,0.0,0.0,0.0,0.0,0.0,0.0,0.0,0.0,0.0,
1.0809,2.588486588873956,2.588486588873956,2.4695715970568326,0.0,0.0,0.0,2.548848258268248,0.0,0.0,0.0,0.0,0.0,0.0,0.0,0.0,0.0,0.0,0.0,0.0,0.0,0.0,
1.0959,2.5888791141925385,2.5888791141925385,2.4699042224942716,0.0,0.0,0.0,2.549220816959783,0.0,0.0,0.0,0.0,0.0,0.0,0.0,0.0,0.0,0.0,0.0,0.0,0.0,0.0,
1.1109,2.589277337362704,2.589277337362704,2.4702416632169966,0.0,0.0,0.0,2.549598779314135,0.0,0.0,0.0,0.0,0.0,0.0,0.0,0.0,0.0,0.0,0.0,0.0,0.0,0.0,
1.1259,2.5896812706395633,2.5896812706395633,2.47058392904669,0.0,0.0,0.0,2.5499821567752723,0.0,0.0,0.0,0.0,0.0,0.0,0.0,0.0,0.0,0.0,0.0,0.0,0.0,0.0,
1.1409,2.5900909264744745,2.5900909264744745,2.470931029961802,0.0,0.0,0.0,2.5503709609702505,0.0,0.0,0.0,0.0,0.0,0.0,0.0,0.0,0.0,0.0,0.0,0.0,0.0,0.0,
1.1559,2.5905063175163363,2.5905063175163363,2.4712829760985437,0.0,0.0,0.0,2.5507652037104056,0.0,0.0,0.0,0.0,0.0,0.0,0.0,0.0,0.0,0.0,0.0,0.0,0.0,0.0,
1.171,2.59093028352396,2.59093028352396,2.471642172745935,0.0,0.0,0.0,2.551167579931285,0.0,0.0,0.0,0.0,0.0,0.0,0.0,0.0,0.0,0.0,0.0,0.0,0.0,0.0,
1.186,2.5913572221747807,2.5913572221747807,2.4720038728460674,0.0,0.0,0.0,2.551572772398543,0.0,0.0,0.0,0.0,0.0,0.0,0.0,0.0,0.0,0.0,0.0,0.0,0.0,0.0,
1.201,2.591789935266835,2.591789935266835,2.472370449604828,0.0,0.0,0.0,2.551983440046166,0.0,0.0,0.0,0.0,0.0,0.0,0.0,0.0,0.0,0.0,0.0,0.0,0.0,0.0,
1.216,2.5922284362540085,2.5922284362540085,2.472741913801128,0.0,0.0,0.0,2.552399595436382,0.0,0.0,0.0,0.0,0.0,0.0,0.0,0.0,0.0,0.0,0.0,0.0,0.0,0.0,
1.231,2.592672738794598,2.592672738794598,2.473118276377003,0.0,0.0,0.0,2.5528212513220665,0.0,0.0,0.0,0.0,0.0,0.0,0.0,0.0,0.0,0.0,0.0,0.0,0.0,0.0,
1.246,2.5931228567527462,2.5931228567527462,2.473499548438811,0.0,0.0,0.0,2.553248420648101,0.0,0.0,0.0,0.0,0.0,0.0,0.0,0.0,0.0,0.0,0.0,0.0,0.0,0.0,
1.261,2.593578804199932,2.593578804199932,2.4738857412583095,0.0,0.0,0.0,2.5536811165527245,0.0,0.0,0.0,0.0,0.0,0.0,0.0,0.0,0.0,0.0,0.0,0.0,0.0,0.0,
1.276,2.594040595416482,2.594040595416482,2.4742768662738834,0.0,0.0,0.0,2.554119352368949,0.0,0.0,0.0,0.0,0.0,0.0,0.0,0.0,0.0,0.0,0.0,0.0,0.0,0.0,
1.291,2.594508244893065,2.594508244893065,2.4746729350917156,0.0,0.0,0.0,2.5545631416259487,0.0,0.0,0.0,0.0,0.0,0.0,0.0,0.0,0.0,0.0,0.0,0.0,0.0,0.0,
1.3061,2.5949849438889547,2.5949849438889547,2.4750766496384196,0.0,0.0,0.0,2.5550155124721097,0.0,0.0,0.0,0.0,0.0,0.0,0.0,0.0,0.0,0.0,0.0,0.0,0.0,0.0,
1.3211,2.595464393509963,2.595464393509963,2.475482674713942,0.0,0.0,0.0,2.5554704872446226,0.0,0.0,0.0,0.0,0.0,0.0,0.0,0.0,0.0,0.0,0.0,0.0,0.0,0.0,
1.3361,2.5959497462424848,2.5959497462424848,2.4758936795107633,0.0,0.0,0.0,2.555931057331911,0.0,0.0,0.0,0.0,0.0,0.0,0.0,0.0,0.0,0.0,0.0,0.0,0.0,0.0,
1.3511,2.5964410174359545,2.5964410174359545,2.476309676319829,0.0,0.0,0.0,2.5563972370639125,0.0,0.0,0.0,0.0,0.0,0.0,0.0,0.0,0.0,0.0,0.0,0.0,0.0,0.0,
1.3661,2.5969382226582134,2.5969382226582134,2.476730677606236,0.0,0.0,0.0,2.5568690409742207,0.0,0.0,0.0,0.0,0.0,0.0,0.0,0.0,0.0,0.0,0.0,0.0,0.0,0.0,
1.3811,2.5974413776972263,2.5974413776972263,2.477156696010513,0.0,0.0,0.0,2.557346483801655,0.0,0.0,0.0,0.0,0.0,0.0,0.0,0.0,0.0,0.0,0.0,0.0,0.0,0.0,
1.3961,2.5979504985628186,2.5979504985628186,2.477587744350012,0.0,0.0,0.0,2.5578295804918834,0.0,0.0,0.0,0.0,0.0,0.0,0.0,0.0,0.0,0.0,0.0,0.0,0.0,0.0,
1.4111,2.5984656014884804,2.5984656014884804,2.4780238356202506,0.0,0.0,0.0,2.5583183461990706,0.0,0.0,0.0,0.0,0.0,0.0,0.0,0.0,0.0,0.0,0.0,0.0,0.0,0.0,
1.4262,2.598990197108355,2.598990197108355,2.4784679409747508,0.0,0.0,0.0,2.558816111730487,0.0,0.0,0.0,0.0,0.0,0.0,0.0,0.0,0.0,0.0,0.0,0.0,0.0,0.0,
1.4412,2.5995173539157888,2.5995173539157888,2.478914191654426,0.0,0.0,0.0,2.559316299828668,0.0,0.0,0.0,0.0,0.0,0.0,0.0,0.0,0.0,0.0,0.0,0.0,0.0,0.0,
1.4562,2.6000505429569474,2.6000505429569474,2.479365525425501,0.0,0.0,0.0,2.5598222037797984,0.0,0.0,0.0,0.0,0.0,0.0,0.0,0.0,0.0,0.0,0.0,0.0,0.0,0.0,
1.4712,2.60058978137952,2.60058978137952,2.4798219560116976,0.0,0.0,0.0,2.5603338395902457,0.0,0.0,0.0,0.0,0.0,0.0,0.0,0.0,0.0,0.0,0.0,0.0,0.0,0.0,
1.4862,2.6011350865640925,2.6011350865640925,2.4802834973221994,0.0,0.0,0.0,2.5608512234834615,0.0,0.0,0.0,0.0,0.0,0.0,0.0,0.0,0.0,0.0,0.0,0.0,0.0,0.0,
1.5012,2.601686476126102,2.601686476126102,2.4807501634531377,0.0,0.0,0.0,2.5613743719017807,0.0,0.0,0.0,0.0,0.0,0.0,0.0,0.0,0.0,0.0,0.0,0.0,0.0,0.0,
1.5162,2.6022439679178255,2.6022439679178255,2.48122196868918,0.0,0.0,0.0,2.561903301508277,0.0,0.0,0.0,0.0,0.0,0.0,0.0,0.0,0.0,0.0,0.0,0.0,0.0,0.0,
1.5312,2.6028075800303814,2.6028075800303814,2.481698927505055,0.0,0.0,0.0,2.562438029188606,0.0,0.0,0.0,0.0,0.0,0.0,0.0,0.0,0.0,0.0,0.0,0.0,0.0,0.0,
1.5463,2.603381149774383,2.603381149774383,2.4821842861232333,0.0,0.0,0.0,2.562982195224,0.0,0.0,0.0,0.0,0.0,0.0,0.0,0.0,0.0,0.0,0.0,0.0,0.0,0.0,
1.5613,2.603957098878738,2.603957098878738,2.4826716308958474,0.0,0.0,0.0,2.5635286095511076,0.0,0.0,0.0,0.0,0.0,0.0,0.0,0.0,0.0,0.0,0.0,0.0,0.0,0.0,
1.5763,2.6045392241574143,2.6045392241574143,2.483164173930363,0.0,0.0,0.0,2.5640808740817307,0.0,0.0,0.0,0.0,0.0,0.0,0.0,0.0,0.0,0.0,0.0,0.0,0.0,0.0,
1.5913,2.6051275446794784,2.6051275446794784,2.483661930479564,0.0,0.0,0.0,2.56463900661284,0.0,0.0,0.0,0.0,0.0,0.0,0.0,0.0,0.0,0.0,0.0,0.0,0.0,0.0,
1.6063,2.605722079763489,2.605722079763489,2.4841649159946737,0.0,0.0,0.0,2.5652030251738838,0.0,0.0,0.0,0.0,0.0,0.0,0.0,0.0,0.0,0.0,0.0,0.0,0.0,0.0,
1.6213,2.6063228489797465,2.6063228489797465,2.484673146127059,0.0,0.0,0.0,2.5657729480288505,0.0,0.0,0.0,0.0,0.0,0.0,0.0,0.0,0.0,0.0,0.0,0.0,0.0,0.0,
1.6363,2.606929872152535,2.606929872152535,2.4851866367300293,0.0,0.0,0.0,2.5663487936783667,0.0,0.0,0.0,0.0,0.0,0.0,0.0,0.0,0.0,0.0,0.0,0.0,0.0,0.0,
1.6513,2.607543169362452,2.607543169362452,2.4857054038606625,0.0,0.0,0.0,2.566930580861855,0.0,0.0,0.0,0.0,0.0,0.0,0.0,0.0,0.0,0.0,0.0,0.0,0.0,0.0,
1.6664,2.608166912726577,2.608166912726577,2.4862329753114736,0.0,0.0,0.0,2.5675222669215425,0.0,0.0,0.0,0.0,0.0,0.0,0.0,0.0,0.0,0.0,0.0,0.0,0.0,0.0,
1.6814,2.6087928614591887,2.6087928614591887,2.486762379943604,0.0,0.0,0.0,2.568116034287327,0.0,0.0,0.0,0.0,0.0,0.0,0.0,0.0,0.0,0.0,0.0,0.0,0.0,0.0,
1.6964,2.6094251461723355,2.6094251461723355,2.487297110627502,0.0,0.0,0.0,2.568715800990724,0.0,0.0,0.0,0.0,0.0,0.0,0.0,0.0,0.0,0.0,0.0,0.0,0.0,0.0,
1.7114,2.610063787997565,2.610063787997565,2.487837184255339,0.0,0.0,0.0,2.5693215867501564,0.0,0.0,0.0,0.0,0.0,0.0,0.0,0.0,0.0,0.0,0.0,0.0,0.0,0.0,
1.7264,2.61070880833494,2.61070880833494,2.4883826179325625,0.0,0.0,0.0,2.5699334115341474,0.0,0.0,0.0,0.0,0.0,0.0,0.0,0.0,0.0,0.0,0.0,0.0,0.0,0.0,
1.7414,2.6113602288555535,2.6113602288555535,2.488933428979878,0.0,0.0,0.0,2.570551295563662,0.0,0.0,0.0,0.0,0.0,0.0,0.0,0.0,0.0,0.0,0.0,0.0,0.0,0.0,
1.7564,2.612018071504209,2.612018071504209,2.4894896349353157,0.0,0.0,0.0,2.571175259314578,0.0,0.0,0.0,0.0,0.0,0.0,0.0,0.0,0.0,0.0,0.0,0.0,0.0,0.0,
1.7714,2.6126823585019663,2.6126823585019663,2.490051253556252,0.0,0.0,0.0,2.5718053235200613,0.0,0.0,0.0,0.0,0.0,0.0,0.0,0.0,0.0,0.0,0.0,0.0,0.0,0.0,
1.7865,2.6133576057920695,2.6133576057920695,2.490622101413556,0.0,0.0,0.0,2.5724457709992317,0.0,0.0,0.0,0.0,0.0,0.0,0.0,0.0,0.0,0.0,0.0,0.0,0.0,0.0,
1.8015,2.6140348926112944,2.6140348926112944,2.491194635912942,0.0,0.0,0.0,2.5730881403785104,0.0,0.0,0.0,0.0,0.0,0.0,0.0,0.0,0.0,0.0,0.0,0.0,0.0,0.0,
1.8165,2.614718692282607,2.614718692282607,2.491772637811069,0.0,0.0,0.0,2.5737366741254277,0.0,0.0,0.0,0.0,0.0,0.0,0.0,0.0,0.0,0.0,0.0,0.0,0.0,0.0,
1.8315,2.615409028161612,2.615409028161612,2.4923561257657445,0.0,0.0,0.0,2.574391394029656,0.0,0.0,0.0,0.0,0.0,0.0,0.0,0.0,0.0,0.0,0.0,0.0,0.0,0.0,
1.8465,2.6161059238941755,2.6161059238941755,2.4929451186650358,0.0,0.0,0.0,2.575052322151129,0.0,0.0,0.0,0.0,0.0,0.0,0.0,0.0,0.0,0.0,0.0,0.0,0.0,0.0,
1.8615,2.6168094034193636,2.6168094034193636,2.493539635629558,0.0,0.0,0.0,2.575719480822762,0.0,0.0,0.0,0.0,0.0,0.0,0.0,0.0,0.0,0.0,0.0,0.0,0.0,0.0,
1.8765,2.617519490972409,2.617519490972409,2.494139696014831,0.0,0.0,0.0,2.5763928926532165,0.0,0.0,0.0,0.0,0.0,0.0,0.0,0.0,0.0,0.0,0.0,0.0,0.0,0.0,
1.8915,2.6182362110877344,2.6182362110877344,2.494745319413616,0.0,0.0,0.0,2.577072580529695,0.0,0.0,0.0,0.0,0.0,0.0,0.0,0.0,0.0,0.0,0.0,0.0,0.0,0.0,
1.9066,2.6189644335143236,2.6189644335143236,2.495360619145086,0.0,0.0,0.0,2.577763162057911,0.0,0.0,0.0,0.0,0.0,0.0,0.0,0.0,0.0,0.0,0.0,0.0,0.0,0.0,
1.9216,2.6196945382050334,2.6196945382050334,2.495977465730933,0.0,0.0,0.0,2.578455514047,0.0,0.0,0.0,0.0,0.0,0.0,0.0,0.0,0.0,0.0,0.0,0.0,0.0,0.0,
1.9366,2.620431351058272,2.620431351058272,2.49659993569263,0.0,0.0,0.0,2.579154212603058,0.0,0.0,0.0,0.0,0.0,0.0,0.0,0.0,0.0,0.0,0.0,0.0,0.0,0.0,
1.9516,2.621174897838701,2.621174897838701,2.4972280495980663,0.0,0.0,0.0,2.5798592817584893,0.0,0.0,0.0,0.0,0.0,0.0,0.0,0.0,0.0,0.0,0.0,0.0,0.0,0.0,
1.9666,2.6219252046261383,2.6219252046261383,2.4978618282648504,0.0,0.0,0.0,2.5805707458390423,0.0,0.0,0.0,0.0,0.0,0.0,0.0,0.0,0.0,0.0,0.0,0.0,0.0,0.0,
