energies(eV),real_xx,real_yy,real_zz,real_xy,real_yz,real_xz,real_ave,imag_xx,imag_yy,imag_zz,imag_xy,imag_yz,imag_xz,imag_ave,absorption_xx,absorption_yy,absorption_zz,absorption_xy,absorption_yz,absorption_xz,absorption_ave,band_gap
0.0,3.1483460558735152,3.1207324933031177,3.097476304935113,0.0,0.0,0.006577090377703248,3.1221849513705826,0.0,0.0,0.0,0.0,0.0,0.0,0.0,0.0,0.0,0.0,0.0,0.0,0.0,0.0,6.0667
0.0195,3.148352316130535,3.1207386541585818,3.0974822943723512,0.0,0.0,0.006577130083024209,3.1221910882204895,0.0,0.0,0.0,0.0,0.0,0.0,0.0,0.0,0.0,0.0,0.0,0.0,0.0,0.0,
0.0389,3.148370968952724,3.120757010808059,3.0975001402668685,0.0,0.0,0.006577248387853538,3.122209373342551,0.0,0.0,0.0,0.0,0.0,0.0,0.0,0.0,0.0,0.0,0.0,0.0,0.0,0.0,
0.0584,3.1484022075489904,3.1207877533932327,3.0975300274586224,0.0,0.0,0.006577446518740615,3.122239996133615,0.0,0.0,0.0,0.0,0.0,0.0,0.0,0.0,0.0,0.0,0.0,0.0,0.0,0.0,
0.0778,3.148445713032269,3.1208305680915496,3.0975716508383373,0.0,0.0,0.0065777224550124455,3.122282643987385,0.0,0.0,0.0,0.0,0.0,0.0,0.0,0.0,0.0,0.0,0.0,0.0,0.0,0.0,
0.0973,3.1485019360395596,3.1208858983863146,3.0976254415231264,0.0,0.0,0.006578079057496529,3.122337758649667,0.0,0.0,0.0,0.0,0.0,0.0,0.0,0.0,0.0,0.0,0.0,0.0,0.0,0.0,
0.1168,3.148570687174796,3.1209535578908016,3.0976912182784777,0.0,0.0,0.006578515128343962,3.122405154448025,0.0,0.0,0.0,0.0,0.0,0.0,0.0,0.0,0.0,0.0,0.0,0.0,0.0,0.0,
0.1362,3.1486515209894286,3.1210331082317424,3.097768554888994,0.0,0.0,0.006579027846262719,3.1224843947033882,0.0,0.0,0.0,0.0,0.0,0.0,0.0,0.0,0.0,0.0,0.0,0.0,0.0,0.0,
0.1557,3.14874527477539,3.121125373409576,3.0978582523759672,0.0,0.0,0.0065796225269733576,3.122576300186978,0.0,0.0,0.0,0.0,0.0,0.0,0.0,0.0,0.0,0.0,0.0,0.0,0.0,0.0,
0.1751,3.148850991487232,3.1212294115780947,3.0979593950483024,0.0,0.0,0.006580293105536332,3.122679932704543,0.0,0.0,0.0,0.0,0.0,0.0,0.0,0.0,0.0,0.0,0.0,0.0,0.0,0.0,
0.1946,3.148969766161156,3.121346300390655,3.098073030503176,0.0,0.0,0.006581046534340627,3.1227963656849957,0.0,0.0,0.0,0.0,0.0,0.0,0.0,0.0,0.0,0.0,0.0,0.0,0.0,0.0,
0.2141,3.1491010918324656,3.1214755409364656,3.0981986736427913,0.0,0.0,0.006581879604845433,3.122925102137241,0.0,0.0,0.0,0.0,0.0,0.0,0.0,0.0,0.0,0.0,0.0,0.0,0.0,0.0,
0.2335,3.149244205018743,3.1216163818599614,3.098335593948798,0.0,0.0,0.0065827874815362715,3.1230653936091675,0.0,0.0,0.0,0.0,0.0,0.0,0.0,0.0,0.0,0.0,0.0,0.0,0.0,0.0,
0.253,3.149400588123484,3.1217702820332884,3.098485209595851,0.0,0.0,0.0065837795770817015,3.1232186932508745,0.0,0.0,0.0,0.0,0.0,0.0,0.0,0.0,0.0,0.0,0.0,0.0,0.0,0.0,
0.2724,3.149568644788845,3.1219356704500973,3.0986459932202446,0.0,0.0,0.006584845773507302,3.1233834361530626,0.0,0.0,0.0,0.0,0.0,0.0,0.0,0.0,0.0,0.0,0.0,0.0,0.0,0.0,
0.2919,3.149750115795944,3.1221142602592784,3.0988196101711334,0.0,0.0,0.006585997124938282,3.1235613287421184,0.0,0.0,0.0,0.0,0.0,0.0,0.0,0.0,0.0,0.0,0.0,0.0,0.0,0.0,
0.3114,3.149944176008279,3.1223052394319115,3.0990052709172957,0.0,0.0,0.006587228407542308,3.1237515621191623,0.0,0.0,0.0,0.0,0.0,0.0,0.0,0.0,0.0,0.0,0.0,0.0,0.0,0.0,
0.3308,3.1501497429943415,3.1225075427289237,3.099201939772423,0.0,0.0,0.006588532764617676,3.1239530751652294,0.0,0.0,0.0,0.0,0.0,0.0,0.0,0.0,0.0,0.0,0.0,0.0,0.0,0.0,
0.3503,3.150368946092977,3.1227232656903734,3.0994116537880214,0.0,0.0,0.006589923719565405,3.124167955190457,0.0,0.0,0.0,0.0,0.0,0.0,0.0,0.0,0.0,0.0,0.0,0.0,0.0,0.0,
0.3697,3.1505995477056796,3.1229502062508354,3.099632272105491,0.0,0.0,0.006591387086731603,3.1243940086873354,0.0,0.0,0.0,0.0,0.0,0.0,0.0,0.0,0.0,0.0,0.0,0.0,0.0,0.0,
0.3892,3.15084393650194,3.1231907151657565,3.099866079851558,0.0,0.0,0.006592938038174366,3.124633577173084,0.0,0.0,0.0,0.0,0.0,0.0,0.0,0.0,0.0,0.0,0.0,0.0,0.0,0.0,
0.4087,3.1511009681886386,3.12344366631841,3.100111982130832,0.0,0.0,0.006594569327266463,3.1248855388792935,0.0,0.0,0.0,0.0,0.0,0.0,0.0,0.0,0.0,0.0,0.0,0.0,0.0,0.0,
0.4281,3.151369240085651,3.1237076793063268,3.1003686368607175,0.0,0.0,0.006596272066232587,3.125148518750899,0.0,0.0,0.0,0.0,0.0,0.0,0.0,0.0,0.0,0.0,0.0,0.0,0.0,0.0,
0.4476,3.151651531092671,3.123985488923565,3.1006387024509925,0.0,0.0,0.0065980639090385,3.125425240822409,0.0,0.0,0.0,0.0,0.0,0.0,0.0,0.0,0.0,0.0,0.0,0.0,0.0,0.0,
0.467,3.151944959661638,3.124274259377624,3.1009194219878125,0.0,0.0,0.006599926581788128,3.1257128803423586,0.0,0.0,0.0,0.0,0.0,0.0,0.0,0.0,0.0,0.0,0.0,0.0,0.0,0.0,
0.4865,3.152252565299037,3.1245769819348745,3.101213703162152,0.0,0.0,0.006601879396738319,3.126014416798688,0.0,0.0,0.0,0.0,0.0,0.0,0.0,0.0,0.0,0.0,0.0,0.0,0.0,0.0,
0.506,3.152572883185447,3.124892215041872,3.101520144419885,0.0,0.0,0.006603913074037551,3.1263284142157346,0.0,0.0,0.0,0.0,0.0,0.0,0.0,0.0,0.0,0.0,0.0,0.0,0.0,0.0,
0.5254,3.1529041887035842,3.1252182614698882,3.1018370956862564,0.0,0.0,0.00660601668199931,3.126653181953243,0.0,0.0,0.0,0.0,0.0,0.0,0.0,0.0,0.0,0.0,0.0,0.0,0.0,0.0,
0.5449,3.153249913751242,3.1255584986524223,3.102167839977671,0.0,0.0,0.00660821203109443,3.126992084127112,0.0,0.0,0.0,0.0,0.0,0.0,0.0,0.0,0.0,0.0,0.0,0.0,0.0,0.0,
0.5643,3.153606529331093,3.125909453623286,3.1025090010174208,0.0,0.0,0.006610476732641059,3.1273416613239333,0.0,0.0,0.0,0.0,0.0,0.0,0.0,0.0,0.0,0.0,0.0,0.0,0.0,0.0,
0.5838,3.1539777295517126,3.1262747618682076,3.1028641126190206,0.0,0.0,0.006612834267497902,3.127705534679647,0.0,0.0,0.0,0.0,0.0,0.0,0.0,0.0,0.0,0.0,0.0,0.0,0.0,0.0,
0.6033,3.1543617273078066,3.126652664664171,3.103231464906538,0.0,0.0,0.006615273309201806,3.1280819522928383,0.0,0.0,0.0,0.0,0.0,0.0,0.0,0.0,0.0,0.0,0.0,0.0,0.0,0.0,
0.6227,3.154756473961516,3.1270411459043777,3.1036090978438984,0.0,0.0,0.006617780866328167,3.1284689059032638,0.0,0.0,0.0,0.0,0.0,0.0,0.0,0.0,0.0,0.0,0.0,0.0,0.0,0.0,
0.6422,3.155166058670249,3.1274442298593264,3.104000923081599,0.0,0.0,0.006620382937978979,3.128870403870392,0.0,0.0,0.0,0.0,0.0,0.0,0.0,0.0,0.0,0.0,0.0,0.0,0.0,0.0,
0.6616,3.1555863006845546,3.1278578021512535,3.1044029409133533,0.0,0.0,0.006623052988082826,3.129282347916387,0.0,0.0,0.0,0.0,0.0,0.0,0.0,0.0,0.0,0.0,0.0,0.0,0.0,0.0,
0.6811,3.1560215533105325,3.1282861470117047,3.1048193156181605,0.0,0.0,0.0066258187007252395,3.1297090053134657,0.0,0.0,0.0,0.0,0.0,0.0,0.0,0.0,0.0,0.0,0.0,0.0,0.0,0.0,
0.7006,3.1564697050014336,3.1287271864252277,3.1052480269609513,0.0,0.0,0.006628666686447092,3.130148306129204,0.0,0.0,0.0,0.0,0.0,0.0,0.0,0.0,0.0,0.0,0.0,0.0,0.0,0.0,
0.72,3.1569283806129285,3.1291785829587164,3.1056868025949225,0.0,0.0,0.006631581875221397,3.130597922055523,0.0,0.0,0.0,0.0,0.0,0.0,0.0,0.0,0.0,0.0,0.0,0.0,0.0,0.0,
0.7395,3.157402331664014,3.1296450127450828,3.10614018762618,0.0,0.0,0.006634594493189823,3.1310625106784253,0.0,0.0,0.0,0.0,0.0,0.0,0.0,0.0,0.0,0.0,0.0,0.0,0.0,0.0,
0.7589,3.1578867205312555,3.1301217149505103,3.1066035540783288,0.0,0.0,0.006637673818129624,3.1315373298533644,0.0,0.0,0.0,0.0,0.0,0.0,0.0,0.0,0.0,0.0,0.0,0.0,0.0,0.0,
0.7784,3.158386565161468,3.1306136279139283,3.1070817018398027,0.0,0.0,0.00664085177830445,3.1320272983050663,0.0,0.0,0.0,0.0,0.0,0.0,0.0,0.0,0.0,0.0,0.0,0.0,0.0,0.0,
0.7979,3.158899427007048,3.1311183518068297,3.107572297897489,0.0,0.0,0.006644112901827648,3.1325300255704556,0.0,0.0,0.0,0.0,0.0,0.0,0.0,0.0,0.0,0.0,0.0,0.0,0.0,0.0,
0.8173,3.159422601519942,3.1316332250163867,3.108072754855705,0.0,0.0,0.006647440018112442,3.1330428604640113,0.0,0.0,0.0,0.0,0.0,0.0,0.0,0.0,0.0,0.0,0.0,0.0,0.0,0.0,
0.8368,3.159961508542384,3.1321635814102993,3.1085882569100756,0.0,0.0,0.006650867625146152,3.1335711156209194,0.0,0.0,0.0,0.0,0.0,0.0,0.0,0.0,0.0,0.0,0.0,0.0,0.0,0.0,
0.8562,3.160510647617413,3.132704007828946,3.109113542181896,0.0,0.0,0.006654360769518652,3.1341093992094184,0.0,0.0,0.0,0.0,0.0,0.0,0.0,0.0,0.0,0.0,0.0,0.0,0.0,0.0,
0.8757,3.1610757076439904,3.1332601029356786,3.1096540521335476,0.0,0.0,0.006657955671072264,3.1346632875710725,0.0,0.0,0.0,0.0,0.0,0.0,0.0,0.0,0.0,0.0,0.0,0.0,0.0,0.0,
0.8952,3.161653920101383,3.1338291421616615,3.1102071381647405,0.0,0.0,0.006661634752956219,3.1352300668092616,0.0,0.0,0.0,0.0,0.0,0.0,0.0,0.0,0.0,0.0,0.0,0.0,0.0,0.0,
0.9146,3.162242247718657,3.134408136445244,3.110769894694039,0.0,0.0,0.00666537871890666,3.1358067596193138,0.0,0.0,0.0,0.0,0.0,0.0,0.0,0.0,0.0,0.0,0.0,0.0,0.0,0.0,
0.9341,3.1628467855052507,3.135003084130633,3.111348151474311,0.0,0.0,0.006669226390095453,3.136399340370065,0.0,0.0,0.0,0.0,0.0,0.0,0.0,0.0,0.0,0.0,0.0,0.0,0.0,0.0,
0.9535,3.163461363351489,3.135607913015777,3.1119360062799446,0.0,0.0,0.00667313853047862,3.1370017608824035,0.0,0.0,0.0,0.0,0.0,0.0,0.0,0.0,0.0,0.0,0.0,0.0,0.0,0.0,
0.973,3.1640923483123062,3.136228889184818,3.1125395489550383,0.0,0.0,0.00667715570546975,3.1376202621507208,0.0,0.0,0.0,0.0,0.0,0.0,0.0,0.0,0.0,0.0,0.0,0.0,0.0,0.0,
0.9925,3.164736638497848,3.1368629599838367,3.1131558121026655,0.0,0.0,0.006681258207544541,3.138251803528117,0.0,0.0,0.0,0.0,0.0,0.0,0.0,0.0,0.0,0.0,0.0,0.0,0.0,0.0,
1.0119,3.1653908601611525,3.137506805205626,3.113781568408648,0.0,0.0,0.006685424586409316,3.138893077925142,0.0,0.0,0.0,0.0,0.0,0.0,0.0,0.0,0.0,0.0,0.0,0.0,0.0,0.0,
1.0314,3.166061791231439,3.138167095308195,3.1144233005093342,0.0,0.0,0.006689698044445994,3.1395507290163227,0.0,0.0,0.0,0.0,0.0,0.0,0.0,0.0,0.0,0.0,0.0,0.0,0.0,0.0,
1.0508,3.166742584241973,3.1388370914581185,3.115074458551363,0.0,0.0,0.006694035004965896,3.1402180447504846,0.0,0.0,0.0,0.0,0.0,0.0,0.0,0.0,0.0,0.0,0.0,0.0,0.0,0.0,
1.0703,3.1674402925279126,3.139523735163729,3.1157417884378664,0.0,0.0,0.006698480439700335,3.140901938709836,0.0,0.0,0.0,0.0,0.0,0.0,0.0,0.0,0.0,0.0,0.0,0.0,0.0,0.0,
1.0898,3.1681514769980805,3.1402236419115424,3.1164220003537166,0.0,0.0,0.006703012481491401,3.1415990397544467,0.0,0.0,0.0,0.0,0.0,0.0,0.0,0.0,0.0,0.0,0.0,0.0,0.0,0.0,
1.1092,3.1688724232282204,3.1409331562107026,3.117111541281615,0.0,0.0,0.006707607494342343,3.142305706906846,0.0,0.0,0.0,0.0,0.0,0.0,0.0,0.0,0.0,0.0,0.0,0.0,0.0,0.0,
1.1287,3.169610600759059,3.1416596291954906,3.1178175549549696,0.0,0.0,0.00671231312673159,3.1430292616365065,0.0,0.0,0.0,0.0,0.0,0.0,0.0,0.0,0.0,0.0,0.0,0.0,0.0,0.0,
1.1481,3.1703584761480745,3.1423956469114254,3.1185328357478537,0.0,0.0,0.006717081396575456,3.1437623196024513,0.0,0.0,0.0,0.0,0.0,0.0,0.0,0.0,0.0,0.0,0.0,0.0,0.0,0.0,
1.1676,3.1711237980870592,3.1431488352327617,3.119264794199482,0.0,0.0,0.00672196174960555,3.144512475839768,0.0,0.0,0.0,0.0,0.0,0.0,0.0,0.0,0.0,0.0,0.0,0.0,0.0,0.0,
1.1871,3.1719027860009565,3.143915473568221,3.1200098140293506,0.0,0.0,0.006726930126732681,3.1452760245328424,0.0,0.0,0.0,0.0,0.0,0.0,0.0,0.0,0.0,0.0,0.0,0.0,0.0,0.0,
1.2065,3.1726913801232444,3.144691566548172,3.12076401210863,0.0,0.0,0.0067319606711672645,3.146048986260015,0.0,0.0,0.0,0.0,0.0,0.0,0.0,0.0,0.0,0.0,0.0,0.0,0.0,0.0,
1.226,3.1734977512710216,3.1454851555050096,3.121535202400843,0.0,0.0,0.006737105549426391,3.1468393697256247,0.0,0.0,0.0,0.0,0.0,0.0,0.0,0.0,0.0,0.0,0.0,0.0,0.0,0.0,
1.2454,3.174313670460128,3.146288141939923,3.1223155144677706,0.0,0.0,0.006742312302346361,3.1476391089559406,0.0,0.0,0.0,0.0,0.0,0.0,0.0,0.0,0.0,0.0,0.0,0.0,0.0,0.0,
1.2649,3.1751475918035563,3.1471088460089853,3.1231130329954406,0.0,0.0,0.006747634924480939,3.1484564902693273,0.0,0.0,0.0,0.0,0.0,0.0,0.0,0.0,0.0,0.0,0.0,0.0,0.0,0.0,
1.2844,3.175995388493447,3.1479432063652437,3.1239238107502,0.0,0.0,0.006753047129076326,3.149287468536297,0.0,0.0,0.0,0.0,0.0,0.0,0.0,0.0,0.0,0.0,0.0,0.0,0.0,0.0,
1.3038,3.176852650274427,3.1487868826905268,3.12474362962828,0.0,0.0,0.006758520799938286,3.150127720864411,0.0,0.0,0.0,0.0,0.0,0.0,0.0,0.0,0.0,0.0,0.0,0.0,0.0,0.0,
1.3233,3.177728259916923,3.1496486170348605,3.125580983912556,0.0,0.0,0.006764112700835148,3.1509859536214466,0.0,0.0,0.0,0.0,0.0,0.0,0.0,0.0,0.0,0.0,0.0,0.0,0.0,0.0,
1.3428,3.1786178803207465,3.150524141083484,3.126431725384496,0.0,0.0,0.006769795189326017,3.151857915596242,0.0,0.0,0.0,0.0,0.0,0.0,0.0,0.0,0.0,0.0,0.0,0.0,0.0,0.0,
1.3622,3.179516888185913,3.151408904838827,3.1272914323547307,0.0,0.0,0.006775538773057216,3.1527390751264903,0.0,0.0,0.0,0.0,0.0,0.0,0.0,0.0,0.0,0.0,0.0,0.0,0.0,0.0,
1.3817,3.1804345991658654,3.152312076408406,3.128169012695899,0.0,0.0,0.006781403016247735,3.1536385627567234,0.0,0.0,0.0,0.0,0.0,0.0,0.0,0.0,0.0,0.0,0.0,0.0,0.0,0.0,
1.4011,3.181361648892622,3.1532244398398377,3.1290555109905593,0.0,0.0,0.006787328128408814,3.154547199907673,0.0,0.0,0.0,0.0,0.0,0.0,0.0,0.0,0.0,0.0,0.0,0.0,0.0,0.0,
1.4206,3.1823076438223676,3.1541554494608106,3.1299601129275016,0.0,0.0,0.006793375557281267,3.1554744020702272,0.0,0.0,0.0,0.0,0.0,0.0,0.0,0.0,0.0,0.0,0.0,0.0,0.0,0.0,
1.4401,3.183267892006453,3.155100487713817,3.1308783311935287,0.0,0.0,0.0067995153681566015,3.1564155703045995,0.0,0.0,0.0,0.0,0.0,0.0,0.0,0.0,0.0,0.0,0.0,0.0,0.0,0.0,
1.4595,3.184237410368318,3.156054650503028,3.1318054003478055,0.0,0.0,0.006805715739865318,3.1573658204063837,0.0,0.0,0.0,0.0,0.0,0.0,0.0,0.0,0.0,0.0,0.0,0.0,0.0,0.0,
1.479,3.185226245815924,3.1570278256715847,3.1327509268208797,0.0,0.0,0.006812040976360516,3.15833499943613,0.0,0.0,0.0,0.0,0.0,0.0,0.0,0.0,0.0,0.0,0.0,0.0,0.0,0.0,
1.4984,3.186224308853362,3.1580100835748377,3.133705262425337,0.0,0.0,0.006818426589606923,3.1593132182845127,0.0,0.0,0.0,0.0,0.0,0.0,0.0,0.0,0.0,0.0,0.0,0.0,0.0,0.0,
1.5179,3.1872419424590737,3.159011603466975,3.134678296385512,0.0,0.0,0.006824938805803475,3.1603106141038535,0.0,0.0,0.0,0.0,0.0,0.0,0.0,0.0,0.0,0.0,0.0,0.0,0.0,0.0,
1.5374,3.1882740937843397,3.160027412585881,3.135665196575121,0.0,0.0,0.006831545352774053,3.1613222343151137,0.0,0.0,0.0,0.0,0.0,0.0,0.0,0.0,0.0,0.0,0.0,0.0,0.0,0.0,
1.5568,3.1893154134785626,3.16105224633605,3.1366608476623044,0.0,0.0,0.006838212032187573,3.1623428358256387,0.0,0.0,0.0,0.0,0.0,0.0,0.0,0.0,0.0,0.0,0.0,0.0,0.0,0.0,
1.5763,3.190376693229048,3.1620967256239574,3.1376755674155863,0.0,0.0,0.006845007987011051,3.163382995422864,0.0,0.0,0.0,0.0,0.0,0.0,0.0,0.0,0.0,0.0,0.0,0.0,0.0,0.0,
1.5957,3.191447105095618,3.163150193992106,3.1386990022945294,0.0,0.0,0.0068518639330670435,3.164432100460751,0.0,0.0,0.0,0.0,0.0,0.0,0.0,0.0,0.0,0.0,0.0,0.0,0.0,0.0,
1.6152,3.1925377425737627,3.164223569412341,3.1397417582831992,0.0,0.0,0.006858850977543924,3.1655010234231007,0.0,0.0,0.0,0.0,0.0,0.0,0.0,0.0,0.0,0.0,0.0,0.0,0.0,0.0,
1.6347,3.1936431853210627,3.1653115174218294,3.140798652211855,0.0,0.0,0.006865934461720225,3.166584451651582,0.0,0.0,0.0,0.0,0.0,0.0,0.0,0.0,0.0,0.0,0.0,0.0,0.0,0.0,
1.6541,3.194757710651306,3.166408405967682,3.141864212185036,0.0,0.0,0.006873077757762133,3.167676776268008,0.0,0.0,0.0,0.0,0.0,0.0,0.0,0.0,0.0,0.0,0.0,0.0,0.0,0.0,
1.6736,3.19589286974968,3.1675256035247634,3.1429494812171432,0.0,0.0,0.006880354955154343,3.1687893181638622,0.0,0.0,0.0,0.0,0.0,0.0,0.0,0.0,0.0,0.0,0.0,0.0,0.0,0.0,
1.693,3.197037081757806,3.1686517125606426,3.1440433867383555,0.0,0.0,0.0068876918668707016,3.169910727018935,0.0,0.0,0.0,0.0,0.0,0.0,0.0,0.0,0.0,0.0,0.0,0.0,0.0,0.0,
1.7125,3.1982022059016404,3.1697984047581,3.1451572658678906,0.0,0.0,0.006895164591967029,3.17105262550921,0.0,0.0,0.0,0.0,0.0,0.0,0.0,0.0,0.0,0.0,0.0,0.0,0.0,0.0,
1.732,3.1993824471830408,3.1709599768969,3.146285577625205,0.0,0.0,0.006902736032073029,3.1722093339017157,0.0,0.0,0.0,0.0,0.0,0.0,0.0,0.0,0.0,0.0,0.0,0.0,0.0,0.0,
1.7514,3.200571701925219,3.1721304219239403,3.147422486318245,0.0,0.0,0.006910367073357399,3.173374870055801,0.0,0.0,0.0,0.0,0.0,0.0,0.0,0.0,0.0,0.0,0.0,0.0,0.0,0.0,
1.7709,3.2017822967876874,3.173321871628498,3.148579775303861,0.0,0.0,0.006918136867863472,3.174561314573349,0.0,0.0,0.0,0.0,0.0,0.0,0.0,0.0,0.0,0.0,0.0,0.0,0.0,0.0,
1.7903,3.203001882301726,3.1745221719395658,3.1497456381553146,0.0,0.0,0.006925966210581216,3.175756564132202,0.0,0.0,0.0,0.0,0.0,0.0,0.0,0.0,0.0,0.0,0.0,0.0,0.0,0.0,
1.8098,3.2042430999225426,3.1757437645122306,3.1509321587172456,0.0,0.0,0.006933936311981377,3.17697300771734,0.0,0.0,0.0,0.0,0.0,0.0,0.0,0.0,0.0,0.0,0.0,0.0,0.0,0.0,
1.8293,3.205499772236342,3.1769805697226516,3.152133430866188,0.0,0.0,0.006942007576753919,3.178204590941727,0.0,0.0,0.0,0.0,0.0,0.0,0.0,0.0,0.0,0.0,0.0,0.0,0.0,0.0,
1.8487,3.2067654062955,3.178226197357795,3.1533432472896274,0.0,0.0,0.006950138344251412,3.179444950314308,0.0,0.0,0.0,0.0,0.0,0.0,0.0,0.0,0.0,0.0,0.0,0.0,0.0,0.0,
1.8682,3.2080531215393493,3.1794935595788725,3.15457414803946,0.0,0.0,0.006958412953990633,3.1807069430525607,0.0,0.0,0.0,0.0,0.0,0.0,0.0,0.0,0.0,0.0,0.0,0.0,0.0,0.0,
1.8876,3.209349782910968,3.1807697290441537,3.155813576789871,0.0,0.0,0.006966747059070791,3.1819776962483313,0.0,0.0,0.0,0.0,0.0,0.0,0.0,0.0,0.0,0.0,0.0,0.0,0.0,0.0,
1.9071,3.210668831953359,3.1820679349844423,3.157074380986041,0.0,0.0,0.006975227109938514,3.1832703826412807,0.0,0.0,0.0,0.0,0.0,0.0,0.0,0.0,0.0,0.0,0.0,0.0,0.0,0.0,
1.9266,3.21200370044675,3.183381713104069,3.1583502814339464,0.0,0.0,0.006983810952692773,3.184578564994922,0.0,0.0,0.0,0.0,0.0,0.0,0.0,0.0,0.0,0.0,0.0,0.0,0.0,0.0,
1.946,3.2133474972314477,3.184704281218395,3.1596346907525508,0.0,0.0,0.006992454314544645,3.1858954897341314,0.0,0.0,0.0,0.0,0.0,0.0,0.0,0.0,0.0,0.0,0.0,0.0,0.0,0.0,
1.9655,3.2147141532402945,3.186049350307826,3.1609409233719967,0.0,0.0,0.007001246856629348,3.187234808973372,0.0,0.0,0.0,0.0,0.0,0.0,0.0,0.0,0.0,0.0,0.0,0.0,0.0,0.0,
1.9849,3.216089729490006,3.1874032016857035,3.1622556557400845,0.0,0.0,0.007010098957110624,3.1885828623052643,0.0,0.0,0.0,0.0,0.0,0.0,0.0,0.0,0.0,0.0,0.0,0.0,0.0,0.0,
2.0044,3.21748848691202,3.188779871185131,3.1635925171406263,0.0,0.0,0.007019102444350291,3.189953625079259,0.0,0.0,0.0,0.0,0.0,0.0,0.0,0.0,0.0,0.0,0.0,0.0,0.0,0.0,
2.0239,3.218903457423846,3.1901725009130955,3.1649448467518786,0.0,0.0,0.007028212539658535,3.1913402683629406,0.0,0.0,0.0,0.0,0.0,0.0,0.0,0.0,0.0,0.0,0.0,0.0,0.0,0.0,
2.0433,3.2203273420124425,3.191573907210818,3.1663056680146773,0.0,0.0,0.007037382288077638,3.192735639079313,0.0,0.0,0.0,0.0,0.0,0.0,0.0,0.0,0.0,0.0,0.0,0.0,0.0,0.0,
2.0628,3.221774903313502,3.192998619801734,3.1676890888345706,0.0,0.0,0.007046706816112779,3.194154203983269,0.0,0.0,0.0,0.0,0.0,0.0,0.0,0.0,0.0,0.0,0.0,0.0,0.0,0.0,
2.0822,3.223231378636588,3.194432109156136,3.169080999742331,0.0,0.0,0.007056091084420717,3.1955814958450186,0.0,0.0,0.0,0.0,0.0,0.0,0.0,0.0,0.0,0.0,0.0,0.0,0.0,0.0,
2.1017,3.2247118691355166,3.195889238249926,3.1704958315479113,0.0,0.0,0.007065632446979737,3.1970323129777847,0.0,0.0,0.0,0.0,0.0,0.0,0.0,0.0,0.0,0.0,0.0,0.0,0.0,0.0,
2.1212,3.2262089971022205,3.1973627459704552,3.17192653257758,0.0,0.0,0.007075283429367477,3.198499425216752,0.0,0.0,0.0,0.0,0.0,0.0,0.0,0.0,0.0,0.0,0.0,0.0,0.0,0.0,
2.1406,3.227715045285677,3.198845036948614,3.173365727282238,0.0,0.0,0.007084994319521116,3.199975269838843,0.0,0.0,0.0,0.0,0.0,0.0,0.0,0.0,0.0,0.0,0.0,0.0,0.0,0.0,
2.1601,3.229245629826707,3.2003514811474973,3.1748283376455957,0.0,0.0,0.0070948658630676405,3.201475149539933,0.0,0.0,0.0,0.0,0.0,0.0,0.0,0.0,0.0,0.0,0.0,0.0,0.0,0.0,
2.1795,3.230785143012918,3.2018667171820514,3.176299448141334,0.0,0.0,0.007104797450646639,3.2029837694454346,0.0,0.0,0.0,0.0,0.0,0.0,0.0,0.0,0.0,0.0,0.0,0.0,0.0,0.0,
2.199,3.2323495486890623,3.2034064573257295,3.177794312338312,0.0,0.0,0.0071148921197168435,3.204516772784368,0.0,0.0,0.0,0.0,0.0,0.0,0.0,0.0,0.0,0.0,0.0,0.0,0.0,0.0,
2.2185,3.233931049008754,3.2049630268836946,3.1793054777781506,0.0,0.0,0.007125099624221665,3.2060665178902,0.0,0.0,0.0,0.0,0.0,0.0,0.0,0.0,0.0,0.0,0.0,0.0,0.0,0.0,
2.2379,3.2355214973071864,3.206528407759357,3.1808251593623007,0.0,0.0,0.007135367414928287,3.207625021476281,0.0,0.0,0.0,0.0,0.0,0.0,0.0,0.0,0.0,0.0,0.0,0.0,0.0,0.0,
2.2574,3.2371373867330444,3.2081188333317097,3.1823691153634264,0.0,0.0,0.007145802020747337,3.209208445142727,0.0,0.0,0.0,0.0,0.0,0.0,0.0,0.0,0.0,0.0,0.0,0.0,0.0,0.0,
2.2768,3.238762241602555,3.209718087733982,3.183921602512931,0.0,0.0,0.007156297099418509,3.2108006439498227,0.0,0.0,0.0,0.0,0.0,0.0,0.0,0.0,0.0,0.0,0.0,0.0,0.0,0.0,
