energies(eV),real_xx,real_yy,real_zz,real_xy,real_yz,real_xz,real_ave,imag_xx,imag_yy,imag_zz,imag_xy,imag_yz,imag_xz,imag_ave,absorption_xx,absorption_yy,absorption_zz,absorption_xy,absorption_yz,absorption_xz,absorption_ave,band_gap
0.0,3.0948640233385034,3.0948640233385034,3.28671051362661,0.0,0.0,0.0,3.1588128534345388,0.0,0.0,0.0,0.0,0.0,0.0,0.0,0.0,0.0,0.0,0.0,0.0,0.0,0.0,7.2187
0.0249,3.0948727991273333,3.0948727991273333,3.286720224811357,0.0,0.0,0.0,3.158821941022008,0.0,0.0,0.0,0.0,0.0,0.0,0.0,0.0,0.0,0.0,0.0,0.0,0.0,0.0,
0.0498,3.0948991271219586,3.0948991271219586,3.286749359027444,0.0,0.0,0.0,3.158849204423787,0.0,0.0,0.0,0.0,0.0,0.0,0.0,0.0,0.0,0.0,0.0,0.0,0.0,0.0,
0.0747,3.094943009206991,3.094943009206991,3.28679791826052,0.0,0.0,0.0,3.158894645558167,0.0,0.0,0.0,0.0,0.0,0.0,0.0,0.0,0.0,0.0,0.0,0.0,0.0,0.0,
0.0996,3.095004448523894,3.095004448523894,3.2868659058204504,0.0,0.0,0.0,3.158958267622746,0.0,0.0,0.0,0.0,0.0,0.0,0.0,0.0,0.0,0.0,0.0,0.0,0.0,0.0,
0.1244,3.095083097068959,3.095083097068959,3.2869529363827237,0.0,0.0,0.0,3.159039710173547,0.0,0.0,0.0,0.0,0.0,0.0,0.0,0.0,0.0,0.0,0.0,0.0,0.0,0.0,
0.1493,3.0951795947406264,3.0951795947406264,3.287059717744575,0.0,0.0,0.0,3.159139635741943,0.0,0.0,0.0,0.0,0.0,0.0,0.0,0.0,0.0,0.0,0.0,0.0,0.0,0.0,
0.1742,3.0952936665873985,3.0952936665873985,3.2871859452839365,0.0,0.0,0.0,3.1592577594862448,0.0,0.0,0.0,0.0,0.0,0.0,0.0,0.0,0.0,0.0,0.0,0.0,0.0,0.0,
0.1991,3.0954253207824394,3.0954253207824394,3.2873316276112443,0.0,0.0,0.0,3.1593940897253745,0.0,0.0,0.0,0.0,0.0,0.0,0.0,0.0,0.0,0.0,0.0,0.0,0.0,0.0,
0.224,3.095574566761898,3.095574566761898,3.287496774666895,0.0,0.0,0.0,3.1595486360635636,0.0,0.0,0.0,0.0,0.0,0.0,0.0,0.0,0.0,0.0,0.0,0.0,0.0,0.0,
0.2489,3.095741415226734,3.095741415226734,3.2876813977234383,0.0,0.0,0.0,3.159721409392302,0.0,0.0,0.0,0.0,0.0,0.0,0.0,0.0,0.0,0.0,0.0,0.0,0.0,0.0,
0.2738,3.095925878145238,3.095925878145238,3.287885509387508,0.0,0.0,0.0,3.1599124218926615,0.0,0.0,0.0,0.0,0.0,0.0,0.0,0.0,0.0,0.0,0.0,0.0,0.0,0.0,
0.2987,3.09612796875536,3.09612796875536,3.288109123602493,0.0,0.0,0.0,3.1601216870377375,0.0,0.0,0.0,0.0,0.0,0.0,0.0,0.0,0.0,0.0,0.0,0.0,0.0,0.0,
0.3236,3.096347701567774,3.096347701567774,3.2883522556511946,0.0,0.0,0.0,3.160349219595581,0.0,0.0,0.0,0.0,0.0,0.0,0.0,0.0,0.0,0.0,0.0,0.0,0.0,0.0,
0.3484,3.096584103654441,3.096584103654441,3.288613828181559,0.0,0.0,0.0,3.160594011830147,0.0,0.0,0.0,0.0,0.0,0.0,0.0,0.0,0.0,0.0,0.0,0.0,0.0,0.0,
0.3733,3.0968390984896907,3.0968390984896907,3.2888959685577146,0.0,0.0,0.0,3.160858055179032,0.0,0.0,0.0,0.0,0.0,0.0,0.0,0.0,0.0,0.0,0.0,0.0,0.0,0.0,
0.3982,3.0971117866511624,3.0971117866511624,3.289197680603819,0.0,0.0,0.0,3.161140417968715,0.0,0.0,0.0,0.0,0.0,0.0,0.0,0.0,0.0,0.0,0.0,0.0,0.0,0.0,
0.4231,3.0974021877687963,3.0974021877687963,3.289518984987781,0.0,0.0,0.0,3.1614411201751245,0.0,0.0,0.0,0.0,0.0,0.0,0.0,0.0,0.0,0.0,0.0,0.0,0.0,0.0,
0.448,3.0977103227634566,3.0977103227634566,3.2898599037346994,0.0,0.0,0.0,3.1617601830872046,0.0,0.0,0.0,0.0,0.0,0.0,0.0,0.0,0.0,0.0,0.0,0.0,0.0,0.0,
0.4729,3.09803621385157,3.09803621385157,3.2902204602311804,0.0,0.0,0.0,3.16209762931144,0.0,0.0,0.0,0.0,0.0,0.0,0.0,0.0,0.0,0.0,0.0,0.0,0.0,0.0,
0.4978,3.0983798845497934,3.0983798845497934,3.2906006792299256,0.0,0.0,0.0,3.1624534827765043,0.0,0.0,0.0,0.0,0.0,0.0,0.0,0.0,0.0,0.0,0.0,0.0,0.0,0.0,
0.5227,3.0987413596802855,3.0987413596802855,3.2910005868547754,0.0,0.0,0.0,3.162827768738449,0.0,0.0,0.0,0.0,0.0,0.0,0.0,0.0,0.0,0.0,0.0,0.0,0.0,0.0,
0.5476,3.0991206653759114,3.0991206653759114,3.2914202106058053,0.0,0.0,0.0,3.1632205137858755,0.0,0.0,0.0,0.0,0.0,0.0,0.0,0.0,0.0,0.0,0.0,0.0,0.0,0.0,
0.5724,3.0995161982977617,3.0995161982977617,3.291857775302424,0.0,0.0,0.0,3.1636300572993155,0.0,0.0,0.0,0.0,0.0,0.0,0.0,0.0,0.0,0.0,0.0,0.0,0.0,0.0,
0.5973,3.099931176900368,3.099931176900368,3.29231683985745,0.0,0.0,0.0,3.1640597312193948,0.0,0.0,0.0,0.0,0.0,0.0,0.0,0.0,0.0,0.0,0.0,0.0,0.0,0.0,
0.6222,3.100364072266219,3.100364072266219,3.292795711222519,0.0,0.0,0.0,3.1645079519183192,0.0,0.0,0.0,0.0,0.0,0.0,0.0,0.0,0.0,0.0,0.0,0.0,0.0,0.0,
0.6471,3.100814915825707,3.100814915825707,3.2932944224546397,0.0,0.0,0.0,3.164974751368684,0.0,0.0,0.0,0.0,0.0,0.0,0.0,0.0,0.0,0.0,0.0,0.0,0.0,0.0,
0.672,3.1012837403513314,3.1012837403513314,3.293813008017183,0.0,0.0,0.0,3.1654601629066152,0.0,0.0,0.0,0.0,0.0,0.0,0.0,0.0,0.0,0.0,0.0,0.0,0.0,0.0,
0.6969,3.1017705799649438,3.1017705799649438,3.294351503786929,0.0,0.0,0.0,3.165964221238939,0.0,0.0,0.0,0.0,0.0,0.0,0.0,0.0,0.0,0.0,0.0,0.0,0.0,0.0,
0.7218,3.102275470145188,3.102275470145188,3.2949099470611727,0.0,0.0,0.0,3.166486962450516,0.0,0.0,0.0,0.0,0.0,0.0,0.0,0.0,0.0,0.0,0.0,0.0,0.0,0.0,
0.7467,3.102798447735274,3.102798447735274,3.2954883765652716,0.0,0.0,0.0,3.16702842401194,0.0,0.0,0.0,0.0,0.0,0.0,0.0,0.0,0.0,0.0,0.0,0.0,0.0,0.0,
0.7716,3.1033395509511776,3.1033395509511776,3.2960868324603974,0.0,0.0,0.0,3.167588644787584,0.0,0.0,0.0,0.0,0.0,0.0,0.0,0.0,0.0,0.0,0.0,0.0,0.0,0.0,
0.7964,3.1038965369481373,3.1038965369481373,3.2967028321278753,0.0,0.0,0.0,3.1681653020080502,0.0,0.0,0.0,0.0,0.0,0.0,0.0,0.0,0.0,0.0,0.0,0.0,0.0,0.0,
0.8213,3.104473938395906,3.104473938395906,3.2973413862175964,0.0,0.0,0.0,3.1687630876698027,0.0,0.0,0.0,0.0,0.0,0.0,0.0,0.0,0.0,0.0,0.0,0.0,0.0,0.0,
0.8462,3.105069588266825,3.105069588266825,3.298000095697983,0.0,0.0,0.0,3.1693797574105442,0.0,0.0,0.0,0.0,0.0,0.0,0.0,0.0,0.0,0.0,0.0,0.0,0.0,0.0,
0.8711,3.1056835303498134,3.1056835303498134,3.298679006551896,0.0,0.0,0.0,3.1700153557505075,0.0,0.0,0.0,0.0,0.0,0.0,0.0,0.0,0.0,0.0,0.0,0.0,0.0,0.0,
0.896,3.1063158098520227,3.1063158098520227,3.2993781662417447,0.0,0.0,0.0,3.1706699286485964,0.0,0.0,0.0,0.0,0.0,0.0,0.0,0.0,0.0,0.0,0.0,0.0,0.0,0.0,
0.9209,3.1069664734088778,3.1069664734088778,3.3000976237190716,0.0,0.0,0.0,3.1713435235122756,0.0,0.0,0.0,0.0,0.0,0.0,0.0,0.0,0.0,0.0,0.0,0.0,0.0,0.0,
0.9458,3.1076355690946262,3.1076355690946262,3.3008374294345924,0.0,0.0,0.0,3.1720361892079487,0.0,0.0,0.0,0.0,0.0,0.0,0.0,0.0,0.0,0.0,0.0,0.0,0.0,0.0,
0.9707,3.108323146433123,3.108323146433123,3.301597635348615,0.0,0.0,0.0,3.1727479760716206,0.0,0.0,0.0,0.0,0.0,0.0,0.0,0.0,0.0,0.0,0.0,0.0,0.0,0.0,
0.9956,3.109029256408899,3.109029256408899,3.302378294941643,0.0,0.0,0.0,3.173478935919814,0.0,0.0,0.0,0.0,0.0,0.0,0.0,0.0,0.0,0.0,0.0,0.0,0.0,0.0,
1.0204,3.1097510038160103,3.1097510038160103,3.3031762045906334,0.0,0.0,0.0,3.1742260707408847,0.0,0.0,0.0,0.0,0.0,0.0,0.0,0.0,0.0,0.0,0.0,0.0,0.0,0.0,
1.0453,3.1104942629557475,3.1104942629557475,3.303997855412975,0.0,0.0,0.0,3.1749954604414903,0.0,0.0,0.0,0.0,0.0,0.0,0.0,0.0,0.0,0.0,0.0,0.0,0.0,0.0,
1.0702,3.1112562163425657,3.1112562163425657,3.3048401293526637,0.0,0.0,0.0,3.1757841873459314,0.0,0.0,0.0,0.0,0.0,0.0,0.0,0.0,0.0,0.0,0.0,0.0,0.0,0.0,
1.0951,3.112036920917003,3.112036920917003,3.3057030860784735,0.0,0.0,0.0,3.17659230930416,0.0,0.0,0.0,0.0,0.0,0.0,0.0,0.0,0.0,0.0,0.0,0.0,0.0,0.0,
1.12,3.112836435141706,3.112836435141706,3.306586786838017,0.0,0.0,0.0,3.177419885707143,0.0,0.0,0.0,0.0,0.0,0.0,0.0,0.0,0.0,0.0,0.0,0.0,0.0,0.0,
1.1449,3.1136548190148012,3.1136548190148012,3.3074912944705024,0.0,0.0,0.0,3.178266977500035,0.0,0.0,0.0,0.0,0.0,0.0,0.0,0.0,0.0,0.0,0.0,0.0,0.0,0.0,
1.1698,3.114492134083842,3.114492134083842,3.308416673419914,0.0,0.0,0.0,3.1791336471958664,0.0,0.0,0.0,0.0,0.0,0.0,0.0,0.0,0.0,0.0,0.0,0.0,0.0,0.0,
1.1947,3.1153484434598857,3.1153484434598857,3.3093629897485055,0.0,0.0,0.0,3.180019958889426,0.0,0.0,0.0,0.0,0.0,0.0,0.0,0.0,0.0,0.0,0.0,0.0,0.0,0.0,
1.2196,3.1162238118322687,3.1162238118322687,3.310330311150856,0.0,0.0,0.0,3.180925978271798,0.0,0.0,0.0,0.0,0.0,0.0,0.0,0.0,0.0,0.0,0.0,0.0,0.0,0.0,
1.2445,3.117118305483614,3.117118305483614,3.3113187069680907,0.0,0.0,0.0,3.1818517726451065,0.0,0.0,0.0,0.0,0.0,0.0,0.0,0.0,0.0,0.0,0.0,0.0,0.0,0.0,
1.2693,3.118028284402651,3.118028284402651,3.3123241514338493,0.0,0.0,0.0,3.1827935734130506,0.0,0.0,0.0,0.0,0.0,0.0,0.0,0.0,0.0,0.0,0.0,0.0,0.0,0.0,
1.2942,3.1189611564094437,3.1189611564094437,3.3133548254036533,0.0,0.0,0.0,3.1837590460741807,0.0,0.0,0.0,0.0,0.0,0.0,0.0,0.0,0.0,0.0,0.0,0.0,0.0,0.0,
1.3191,3.11991336197084,3.11991336197084,3.314406791538246,0.0,0.0,0.0,3.184744505159975,0.0,0.0,0.0,0.0,0.0,0.0,0.0,0.0,0.0,0.0,0.0,0.0,0.0,0.0,
1.344,3.120884973895224,3.120884973895224,3.315480125909408,0.0,0.0,0.0,3.185750024566618,0.0,0.0,0.0,0.0,0.0,0.0,0.0,0.0,0.0,0.0,0.0,0.0,0.0,0.0,
1.3689,3.121876066666167,3.121876066666167,3.3165749063130696,0.0,0.0,0.0,3.1867756798818014,0.0,0.0,0.0,0.0,0.0,0.0,0.0,0.0,0.0,0.0,0.0,0.0,0.0,0.0,
1.3938,3.122886716459962,3.122886716459962,3.3176912122861277,0.0,0.0,0.0,3.187821548402017,0.0,0.0,0.0,0.0,0.0,0.0,0.0,0.0,0.0,0.0,0.0,0.0,0.0,0.0,
1.4187,3.1239170011641737,3.1239170011641737,3.318829125123764,0.0,0.0,0.0,3.1888877091507037,0.0,0.0,0.0,0.0,0.0,0.0,0.0,0.0,0.0,0.0,0.0,0.0,0.0,0.0,
1.4436,3.124967000395988,3.124967000395988,3.3199887278969618,0.0,0.0,0.0,3.1899742428963123,0.0,0.0,0.0,0.0,0.0,0.0,0.0,0.0,0.0,0.0,0.0,0.0,0.0,0.0,
1.4685,3.1260367955216677,3.1260367955216677,3.321170105470827,0.0,0.0,0.0,3.191081232171387,0.0,0.0,0.0,0.0,0.0,0.0,0.0,0.0,0.0,0.0,0.0,0.0,0.0,0.0,
1.4933,3.127122053604952,3.127122053604952,3.3223684683982375,0.0,0.0,0.0,3.1922041918693806,0.0,0.0,0.0,0.0,0.0,0.0,0.0,0.0,0.0,0.0,0.0,0.0,0.0,0.0,
1.5182,3.1282316113634736,3.1282316113634736,3.323593569106053,0.0,0.0,0.0,3.1933522639443335,0.0,0.0,0.0,0.0,0.0,0.0,0.0,0.0,0.0,0.0,0.0,0.0,0.0,0.0,
1.5431,3.1293612194564067,3.1293612194564067,3.3248407097955637,0.0,0.0,0.0,3.194521049569459,0.0,0.0,0.0,0.0,0.0,0.0,0.0,0.0,0.0,0.0,0.0,0.0,0.0,0.0,
1.568,3.1305109664409274,3.1305109664409274,3.326109982691057,0.0,0.0,0.0,3.1957106385243037,0.0,0.0,0.0,0.0,0.0,0.0,0.0,0.0,0.0,0.0,0.0,0.0,0.0,0.0,
1.5929,3.1316809427270393,3.1316809427270393,3.3274014819086286,0.0,0.0,0.0,3.196921122454236,0.0,0.0,0.0,0.0,0.0,0.0,0.0,0.0,0.0,0.0,0.0,0.0,0.0,0.0,
1.6178,3.132871240599888,3.132871240599888,3.328715303477049,0.0,0.0,0.0,3.198152594892275,0.0,0.0,0.0,0.0,0.0,0.0,0.0,0.0,0.0,0.0,0.0,0.0,0.0,0.0,
1.6427,3.134081954242717,3.134081954242717,3.3300515453594977,0.0,0.0,0.0,3.1994051512816437,0.0,0.0,0.0,0.0,0.0,0.0,0.0,0.0,0.0,0.0,0.0,0.0,0.0,0.0,
1.6676,3.135313179760525,3.135313179760525,3.331410307475483,0.0,0.0,0.0,3.2006788889988442,0.0,0.0,0.0,0.0,0.0,0.0,0.0,0.0,0.0,0.0,0.0,0.0,0.0,0.0,
1.6925,3.136565015204151,3.136565015204151,3.3327916917236386,0.0,0.0,0.0,3.2019739073773135,0.0,0.0,0.0,0.0,0.0,0.0,0.0,0.0,0.0,0.0,0.0,0.0,0.0,0.0,
1.7173,3.1378324084167155,3.1378324084167155,3.3341901174160182,0.0,0.0,0.0,3.20328497808315,0.0,0.0,0.0,0.0,0.0,0.0,0.0,0.0,0.0,0.0,0.0,0.0,0.0,0.0,
1.7422,3.1391256819835593,3.1391256819835593,3.335616967747633,0.0,0.0,0.0,3.2046227772382507,0.0,0.0,0.0,0.0,0.0,0.0,0.0,0.0,0.0,0.0,0.0,0.0,0.0,0.0,
1.7671,3.1404398711329256,3.1404398711329256,3.3370667575781825,0.0,0.0,0.0,3.205982166614678,0.0,0.0,0.0,0.0,0.0,0.0,0.0,0.0,0.0,0.0,0.0,0.0,0.0,0.0,
1.792,3.141775081944936,3.141775081944936,3.338539596951472,0.0,0.0,0.0,3.2073632536137815,0.0,0.0,0.0,0.0,0.0,0.0,0.0,0.0,0.0,0.0,0.0,0.0,0.0,0.0,
1.8169,3.143131422575694,3.143131422575694,3.340035598011789,0.0,0.0,0.0,3.2087661477210587,0.0,0.0,0.0,0.0,0.0,0.0,0.0,0.0,0.0,0.0,0.0,0.0,0.0,0.0,
1.8418,3.1445090032854273,3.1445090032854273,3.3415548750301443,0.0,0.0,0.0,3.2101909605336663,0.0,0.0,0.0,0.0,0.0,0.0,0.0,0.0,0.0,0.0,0.0,0.0,0.0,0.0,
1.8667,3.1459079364671463,3.1459079364671463,3.343097544430849,0.0,0.0,0.0,3.21163780578838,0.0,0.0,0.0,0.0,0.0,0.0,0.0,0.0,0.0,0.0,0.0,0.0,0.0,0.0,
1.8916,3.1473283366761833,3.1473283366761833,3.3446637248189974,0.0,0.0,0.0,3.2131067993904545,0.0,0.0,0.0,0.0,0.0,0.0,0.0,0.0,0.0,0.0,0.0,0.0,0.0,0.0,
1.9165,3.1487703206603133,3.1487703206603133,3.3462535370083497,0.0,0.0,0.0,3.214598059442992,0.0,0.0,0.0,0.0,0.0,0.0,0.0,0.0,0.0,0.0,0.0,0.0,0.0,0.0,
1.9413,3.1502280855654714,3.1502280855654714,3.3478605761863007,0.0,0.0,0.0,3.216105582439081,0.0,0.0,0.0,0.0,0.0,0.0,0.0,0.0,0.0,0.0,0.0,0.0,0.0,0.0,
1.9662,3.1517135083766656,3.1517135083766656,3.349497927240519,0.0,0.0,0.0,3.2176416479979504,0.0,0.0,0.0,0.0,0.0,0.0,0.0,0.0,0.0,0.0,0.0,0.0,0.0,0.0,
1.9911,3.153220878173958,3.153220878173958,3.351159285562759,0.0,0.0,0.0,3.2192003473035586,0.0,0.0,0.0,0.0,0.0,0.0,0.0,0.0,0.0,0.0,0.0,0.0,0.0,0.0,
2.016,3.154750320782965,3.154750320782965,3.3528447810859725,0.0,0.0,0.0,3.2207818075506345,0.0,0.0,0.0,0.0,0.0,0.0,0.0,0.0,0.0,0.0,0.0,0.0,0.0,0.0,
2.0409,3.1563019643842662,3.1563019643842662,3.3545545461019857,0.0,0.0,0.0,3.2223861582901727,0.0,0.0,0.0,0.0,0.0,0.0,0.0,0.0,0.0,0.0,0.0,0.0,0.0,0.0,
2.0658,3.157875939548454,3.157875939548454,3.3562887152938137,0.0,0.0,0.0,3.2240135314635743,0.0,0.0,0.0,0.0,0.0,0.0,0.0,0.0,0.0,0.0,0.0,0.0,0.0,0.0,
2.0907,3.1594723792719517,3.1594723792719517,3.3580474257685737,0.0,0.0,0.0,3.225664061437492,0.0,0.0,0.0,0.0,0.0,0.0,0.0,0.0,0.0,0.0,0.0,0.0,0.0,0.0,
2.1156,3.1610914190137156,3.1610914190137156,3.3598308170912494,0.0,0.0,0.0,3.22733788503956,0.0,0.0,0.0,0.0,0.0,0.0,0.0,0.0,0.0,0.0,0.0,0.0,0.0,0.0,
2.1405,3.1627331967329853,3.1627331967329853,3.361639031319322,0.0,0.0,0.0,3.2290351415950975,0.0,0.0,0.0,0.0,0.0,0.0,0.0,0.0,0.0,0.0,0.0,0.0,0.0,0.0,
2.1653,3.1643911216158647,3.1643911216158647,3.3634648007333823,0.0,0.0,0.0,3.230749014655037,0.0,0.0,0.0,0.0,0.0,0.0,0.0,0.0,0.0,0.0,0.0,0.0,0.0,0.0,
2.1902,3.1660787066171254,3.1660787066171254,3.365322995932338,0.0,0.0,0.0,3.2324934697221965,0.0,0.0,0.0,0.0,0.0,0.0,0.0,0.0,0.0,0.0,0.0,0.0,0.0,0.0,
2.2151,3.167789458275492,3.167789458275492,3.367206454914926,0.0,0.0,0.0,3.234261790488637,0.0,0.0,0.0,0.0,0.0,0.0,0.0,0.0,0.0,0.0,0.0,0.0,0.0,0.0,
2.24,3.1695235249361353,3.1695235249361353,3.3691153300598535,0.0,0.0,0.0,3.2360541266440417,0.0,0.0,0.0,0.0,0.0,0.0,0.0,0.0,0.0,0.0,0.0,0.0,0.0,0.0,
2.2649,3.1712810576472785,3.1712810576472785,3.371049776423499,0.0,0.0,0.0,3.237870630572685,0.0,0.0,0.0,0.0,0.0,0.0,0.0,0.0,0.0,0.0,0.0,0.0,0.0,0.0,
2.2898,3.1730622102036565,3.1730622102036565,3.373009951779641,0.0,0.0,0.0,3.2397114573956514,0.0,0.0,0.0,0.0,0.0,0.0,0.0,0.0,0.0,0.0,0.0,0.0,0.0,0.0,
2.3147,3.174867139191436,3.174867139191436,3.3749960166601634,0.0,0.0,0.0,3.241576765014345,0.0,0.0,0.0,0.0,0.0,0.0,0.0,0.0,0.0,0.0,0.0,0.0,0.0,0.0,
2.3396,3.1766960040340977,3.1766960040340977,3.37700813439671,0.0,0.0,0.0,3.2434667141549682,0.0,0.0,0.0,0.0,0.0,0.0,0.0,0.0,0.0,0.0,0.0,0.0,0.0,0.0,
2.3645,3.1785489670393683,3.1785489670393683,3.3790464711632295,0.0,0.0,0.0,3.2453814684139886,0.0,0.0,0.0,0.0,0.0,0.0,0.0,0.0,0.0,0.0,0.0,0.0,0.0,0.0,
2.3893,3.1804186056367745,3.1804186056367745,3.381102850948866,0.0,0.0,0.0,3.2473133540741386,0.0,0.0,0.0,0.0,0.0,0.0,0.0,0.0,0.0,0.0,0.0,0.0,0.0,0.0,
2.4142,3.1823201652106343,3.1823201652106343,3.383194028871154,0.0,0.0,0.0,3.2492781197641407,0.0,0.0,0.0,0.0,0.0,0.0,0.0,0.0,0.0,0.0,0.0,0.0,0.0,0.0,
2.4391,3.1842463269707064,3.1842463269707064,3.385311941132516,0.0,0.0,0.0,3.2512681983579763,0.0,0.0,0.0,0.0,0.0,0.0,0.0,0.0,0.0,0.0,0.0,0.0,0.0,0.0,
2.464,3.186197265244101,3.186197265244101,3.3874567657110926,0.0,0.0,0.0,3.2532837653997646,0.0,0.0,0.0,0.0,0.0,0.0,0.0,0.0,0.0,0.0,0.0,0.0,0.0,0.0,
2.4889,3.188173157495709,3.188173157495709,3.389628683655973,0.0,0.0,0.0,3.25532499954913,0.0,0.0,0.0,0.0,0.0,0.0,0.0,0.0,0.0,0.0,0.0,0.0,0.0,0.0,
2.5138,3.190174184382816,3.190174184382816,3.3918278791364016,0.0,0.0,0.0,3.257392082634011,0.0,0.0,0.0,0.0,0.0,0.0,0.0,0.0,0.0,0.0,0.0,0.0,0.0,0.0,
2.5387,3.1922005298112395,3.1922005298112395,3.3940545394919392,0.0,0.0,0.0,3.2594851997048058,0.0,0.0,0.0,0.0,0.0,0.0,0.0,0.0,0.0,0.0,0.0,0.0,0.0,0.0,
2.5636,3.1942523809927463,3.1942523809927463,3.396308855283991,0.0,0.0,0.0,3.2616045390898276,0.0,0.0,0.0,0.0,0.0,0.0,0.0,0.0,0.0,0.0,0.0,0.0,0.0,0.0,
2.5885,3.1963299285040683,3.1963299285040683,3.3985910203485195,0.0,0.0,0.0,3.263750292452219,0.0,0.0,0.0,0.0,0.0,0.0,0.0,0.0,0.0,0.0,0.0,0.0,0.0,0.0,
2.6133,3.198424866764472,3.198424866764472,3.4008918975344664,0.0,0.0,0.0,3.2659138770211364,0.0,0.0,0.0,0.0,0.0,0.0,0.0,0.0,0.0,0.0,0.0,0.0,0.0,0.0,
2.6382,3.2005542872595854,3.2005542872595854,3.403230242173844,0.0,0.0,0.0,3.2681129388976715,0.0,0.0,0.0,0.0,0.0,0.0,0.0,0.0,0.0,0.0,0.0,0.0,0.0,0.0,
2.6631,3.2027099958028837,3.2027099958028837,3.4055970369609785,0.0,0.0,0.0,3.270339009522248,0.0,0.0,0.0,0.0,0.0,0.0,0.0,0.0,0.0,0.0,0.0,0.0,0.0,0.0,
2.688,3.2048921970371955,3.2048921970371955,3.40799248936892,0.0,0.0,0.0,3.272592294481104,0.0,0.0,0.0,0.0,0.0,0.0,0.0,0.0,0.0,0.0,0.0,0.0,0.0,0.0,
2.7129,3.207101099288764,3.207101099288764,3.410416810428311,0.0,0.0,0.0,3.2748730030019466,0.0,0.0,0.0,0.0,0.0,0.0,0.0,0.0,0.0,0.0,0.0,0.0,0.0,0.0,
2.7378,3.209336914635877,3.209336914635877,3.4128702147882772,0.0,0.0,0.0,3.2771813480200103,0.0,0.0,0.0,0.0,0.0,0.0,0.0,0.0,0.0,0.0,0.0,0.0,0.0,0.0,
2.7627,3.2115998589796027,3.2115998589796027,3.415352920778825,0.0,0.0,0.0,3.27951754624601,0.0,0.0,0.0,0.0,0.0,0.0,0.0,0.0,0.0,0.0,0.0,0.0,0.0,0.0,
2.7876,3.2138901521161998,3.2138901521161998,3.4178651504746416,0.0,0.0,0.0,3.2818818182356804,0.0,0.0,0.0,0.0,0.0,0.0,0.0,0.0,0.0,0.0,0.0,0.0,0.0,0.0,
2.8125,3.216208017811546,3.216208017811546,3.4204071297606804,0.0,0.0,0.0,3.2842743884612573,0.0,0.0,0.0,0.0,0.0,0.0,0.0,0.0,0.0,0.0,0.0,0.0,0.0,0.0,
2.8373,3.2185442076247597,3.2185442076247597,3.422968698980613,0.0,0.0,0.0,3.2866857047433773,0.0,0.0,0.0,0.0,0.0,0.0,0.0,0.0,0.0,0.0,0.0,0.0,0.0,0.0,
2.8622,3.220917792948591,3.220917792948591,3.4255707488694385,0.0,0.0,0.0,3.289135444922207,0.0,0.0,0.0,0.0,0.0,0.0,0.0,0.0,0.0,0.0,0.0,0.0,0.0,0.0,
2.8871,3.2233196457635285,3.2233196457635285,3.428203248580818,0.0,0.0,0.0,3.291614180035958,0.0,0.0,0.0,0.0,0.0,0.0,0.0,0.0,0.0,0.0,0.0,0.0,0.0,0.0,
2.912,3.225750006481004,3.225750006481004,3.43086643991168,0.0,0.0,0.0,3.294122150957896,0.0,0.0,0.0,0.0,0.0,0.0,0.0,0.0,0.0,0.0,0.0,0.0,0.0,0.0,
2.9369,3.2282091198845393,3.2282091198845393,3.43356056882135,0.0,0.0,0.0,3.296659602863476,0.0,0.0,0.0,0.0,0.0,0.0,0.0,0.0,0.0,0.0,0.0,0.0,0.0,0.0,
2.9618,3.2306972352171064,3.2306972352171064,3.4362858855075165,0.0,0.0,0.0,3.2992267853139094,0.0,0.0,0.0,0.0,0.0,0.0,0.0,0.0,0.0,0.0,0.0,0.0,0.0,0.0,
2.9867,3.2332146062706446,3.2332146062706446,3.4390426444839877,0.0,0.0,0.0,3.3018239523417585,0.0,0.0,0.0,0.0,0.0,0.0,0.0,0.0,0.0,0.0,0.0,0.0,0.0,0.0,
3.0116,3.235761491478154,3.235761491478154,3.4418311046604653,0.0,0.0,0.0,3.304451362538924,0.0,0.0,0.0,0.0,0.0,0.0,0.0,0.0,0.0,0.0,0.0,0.0,0.0,0.0,
3.0365,3.2383381540082583,3.2383381540082583,3.444651529424402,0.0,0.0,0.0,3.3071092791469727,0.0,0.0,0.0,0.0,0.0,0.0,0.0,0.0,0.0,0.0,0.0,0.0,0.0,0.0,
3.0613,3.240934332704939,3.240934332704939,3.4474926654446034,0.0,0.0,0.0,3.309787110284827,0.0,0.0,0.0,0.0,0.0,0.0,0.0,0.0,0.0,0.0,0.0,0.0,0.0,0.0,
3.0862,3.2435712365046308,3.2435712365046308,3.4503776967840034,0.0,0.0,0.0,3.3125067232644216,0.0,0.0,0.0,0.0,0.0,0.0,0.0,0.0,0.0,0.0,0.0,0.0,0.0,0.0,
3.1111,3.24623873540544,3.24623873540544,3.453295509465731,0.0,0.0,0.0,3.315257660092204,0.0,0.0,0.0,0.0,0.0,0.0,0.0,0.0,0.0,0.0,0.0,0.0,0.0,0.0,
3.136,3.248937112496999,3.248937112496999,3.4562463856292194,0.0,0.0,0.0,3.3180402035410723,0.0,0.0,0.0,0.0,0.0,0.0,0.0,0.0,0.0,0.0,0.0,0.0,0.0,0.0,
3.1609,3.2516666561178877,3.2516666561178877,3.4592306123328282,0.0,0.0,0.0,3.320854641522868,0.0,0.0,0.0,0.0,0.0,0.0,0.0,0.0,0.0,0.0,0.0,0.0,0.0,0.0,
3.1858,3.254427659967306,3.254427659967306,3.4622484816491492,0.0,0.0,0.0,3.3237012671945867,0.0,0.0,0.0,0.0,0.0,0.0,0.0,0.0,0.0,0.0,0.0,0.0,0.0,0.0,
3.2107,3.257220423219761,3.257220423219761,3.4653002907627957,0.0,0.0,0.0,3.326580379067439,0.0,0.0,0.0,0.0,0.0,0.0,0.0,0.0,0.0,0.0,0.0,0.0,0.0,0.0,
3.2356,3.2600452506431177,3.2600452506431177,3.4683863420707333,0.0,0.0,0.0,3.3294922811189895,0.0,0.0,0.0,0.0,0.0,0.0,0.0,0.0,0.0,0.0,0.0,0.0,0.0,0.0,
