energies(eV),real_xx,real_yy,real_zz,real_xy,real_yz,real_xz,real_ave,imag_xx,imag_yy,imag_zz,imag_xy,imag_yz,imag_xz,imag_ave,absorption_xx,absorption_yy,absorption_zz,absorption_xy,absorption_yz,absorption_xz,absorption_ave,band_gap
0.0,2.373325922718304,2.373325922718304,2.373325922718304,0.0,0.0,0.0,2.373325922718304,0.0,0.0,0.0,0.0,0.0,0.0,0.0,0.0,0.0,0.0,0.0,0.0,0.0,0.0,8.5997
0.0164,2.3733274194025293,2.3733274194025293,2.3733274194025293,0.0,0.0,0.0,2.3733274194025293,0.0,0.0,0.0,0.0,0.0,0.0,0.0,0.0,0.0,0.0,0.0,0.0,0.0,0.0,
0.0328,2.3733319094807275,2.3733319094807275,2.3733319094807275,0.0,0.0,0.0,2.3733319094807275,0.0,0.0,0.0,0.0,0.0,0.0,0.0,0.0,0.0,0.0,0.0,0.0,0.0,0.0,
0.0492,2.373339393029593,2.373339393029593,2.373339393029593,0.0,0.0,0.0,2.373339393029593,0.0,0.0,0.0,0.0,0.0,0.0,0.0,0.0,0.0,0.0,0.0,0.0,0.0,0.0,
0.0655,2.3733497972203317,2.3733497972203317,2.3733497972203317,0.0,0.0,0.0,2.3733497972203317,0.0,0.0,0.0,0.0,0.0,0.0,0.0,0.0,0.0,0.0,0.0,0.0,0.0,0.0,
0.0819,2.3733632498896085,2.3733632498896085,2.3733632498896085,0.0,0.0,0.0,2.3733632498896085,0.0,0.0,0.0,0.0,0.0,0.0,0.0,0.0,0.0,0.0,0.0,0.0,0.0,0.0,
0.0983,2.3733796965647054,2.3733796965647054,2.3733796965647054,0.0,0.0,0.0,2.3733796965647054,0.0,0.0,0.0,0.0,0.0,0.0,0.0,0.0,0.0,0.0,0.0,0.0,0.0,0.0,
0.1147,2.373399137526529,2.373399137526529,2.373399137526529,0.0,0.0,0.0,2.373399137526529,0.0,0.0,0.0,0.0,0.0,0.0,0.0,0.0,0.0,0.0,0.0,0.0,0.0,0.0,
0.1311,2.373421573107075,2.373421573107075,2.373421573107075,0.0,0.0,0.0,2.373421573107075,0.0,0.0,0.0,0.0,0.0,0.0,0.0,0.0,0.0,0.0,0.0,0.0,0.0,0.0,
0.1475,2.373447003689612,2.373447003689612,2.373447003689612,0.0,0.0,0.0,2.373447003689612,0.0,0.0,0.0,0.0,0.0,0.0,0.0,0.0,0.0,0.0,0.0,0.0,0.0,0.0,
0.1638,2.3734752473014287,2.3734752473014287,2.3734752473014287,0.0,0.0,0.0,2.3734752473014287,0.0,0.0,0.0,0.0,0.0,0.0,0.0,0.0,0.0,0.0,0.0,0.0,0.0,0.0,
0.1802,2.3735066509729426,2.3735066509729426,2.3735066509729426,0.0,0.0,0.0,2.3735066509729426,0.0,0.0,0.0,0.0,0.0,0.0,0.0,0.0,0.0,0.0,0.0,0.0,0.0,0.0,
0.1966,2.3735410510999366,2.3735410510999366,2.3735410510999366,0.0,0.0,0.0,2.3735410510999366,0.0,0.0,0.0,0.0,0.0,0.0,0.0,0.0,0.0,0.0,0.0,0.0,0.0,0.0,
0.213,2.3735784482702345,2.3735784482702345,2.3735784482702345,0.0,0.0,0.0,2.3735784482702345,0.0,0.0,0.0,0.0,0.0,0.0,0.0,0.0,0.0,0.0,0.0,0.0,0.0,0.0,
0.2294,2.373618843122994,2.373618843122994,2.373618843122994,0.0,0.0,0.0,2.373618843122994,0.0,0.0,0.0,0.0,0.0,0.0,0.0,0.0,0.0,0.0,0.0,0.0,0.0,0.0,
0.2458,2.373662236348718,2.373662236348718,2.373662236348718,0.0,0.0,0.0,2.373662236348718,0.0,0.0,0.0,0.0,0.0,0.0,0.0,0.0,0.0,0.0,0.0,0.0,0.0,0.0,
0.2622,2.373708628689281,2.373708628689281,2.373708628689281,0.0,0.0,0.0,2.373708628689281,0.0,0.0,0.0,0.0,0.0,0.0,0.0,0.0,0.0,0.0,0.0,0.0,0.0,0.0,
0.2785,2.373757710673763,2.373757710673763,2.373757710673763,0.0,0.0,0.0,2.373757710673763,0.0,0.0,0.0,0.0,0.0,0.0,0.0,0.0,0.0,0.0,0.0,0.0,0.0,0.0,
0.2949,2.373810085375407,2.373810085375407,2.373810085375407,0.0,0.0,0.0,2.373810085375407,0.0,0.0,0.0,0.0,0.0,0.0,0.0,0.0,0.0,0.0,0.0,0.0,0.0,0.0,
0.3113,2.373865461720574,2.373865461720574,2.373865461720574,0.0,0.0,0.0,2.373865461720574,0.0,0.0,0.0,0.0,0.0,0.0,0.0,0.0,0.0,0.0,0.0,0.0,0.0,0.0,
0.3277,2.3739238406567686,2.3739238406567686,2.3739238406567686,0.0,0.0,0.0,2.3739238406567686,0.0,0.0,0.0,0.0,0.0,0.0,0.0,0.0,0.0,0.0,0.0,0.0,0.0,0.0,
0.3441,2.3739852231830927,2.3739852231830927,2.3739852231830927,0.0,0.0,0.0,2.3739852231830927,0.0,0.0,0.0,0.0,0.0,0.0,0.0,0.0,0.0,0.0,0.0,0.0,0.0,0.0,
0.3605,2.3740496103503066,2.3740496103503066,2.3740496103503066,0.0,0.0,0.0,2.3740496103503066,0.0,0.0,0.0,0.0,0.0,0.0,0.0,0.0,0.0,0.0,0.0,0.0,0.0,0.0,
0.3768,2.3741165832182443,2.3741165832182443,2.3741165832182443,0.0,0.0,0.0,2.3741165832182443,0.0,0.0,0.0,0.0,0.0,0.0,0.0,0.0,0.0,0.0,0.0,0.0,0.0,0.0,
0.3932,2.3741869646881195,2.3741869646881195,2.3741869646881195,0.0,0.0,0.0,2.3741869646881195,0.0,0.0,0.0,0.0,0.0,0.0,0.0,0.0,0.0,0.0,0.0,0.0,0.0,0.0,
0.4096,2.3742603542541945,2.3742603542541945,2.3742603542541945,0.0,0.0,0.0,2.3742603542541945,0.0,0.0,0.0,0.0,0.0,0.0,0.0,0.0,0.0,0.0,0.0,0.0,0.0,0.0,
0.426,2.374336753174136,2.374336753174136,2.374336753174136,0.0,0.0,0.0,2.374336753174136,0.0,0.0,0.0,0.0,0.0,0.0,0.0,0.0,0.0,0.0,0.0,0.0,0.0,0.0,
0.4424,2.374416162757586,2.374416162757586,2.374416162757586,0.0,0.0,0.0,2.374416162757586,0.0,0.0,0.0,0.0,0.0,0.0,0.0,0.0,0.0,0.0,0.0,0.0,0.0,0.0,
0.4588,2.374498584366223,2.374498584366223,2.374498584366223,0.0,0.0,0.0,2.374498584366223,0.0,0.0,0.0,0.0,0.0,0.0,0.0,0.0,0.0,0.0,0.0,0.0,0.0,0.0,
0.4752,2.3745840194138226,2.3745840194138226,2.3745840194138226,0.0,0.0,0.0,2.3745840194138226,0.0,0.0,0.0,0.0,0.0,0.0,0.0,0.0,0.0,0.0,0.0,0.0,0.0,0.0,
0.4915,2.374671920898631,2.374671920898631,2.374671920898631,0.0,0.0,0.0,2.374671920898631,0.0,0.0,0.0,0.0,0.0,0.0,0.0,0.0,0.0,0.0,0.0,0.0,0.0,0.0,
0.5079,2.374763368876841,2.374763368876841,2.374763368876841,0.0,0.0,0.0,2.374763368876841,0.0,0.0,0.0,0.0,0.0,0.0,0.0,0.0,0.0,0.0,0.0,0.0,0.0,0.0,
0.5243,2.3748578348390987,2.3748578348390987,2.3748578348390987,0.0,0.0,0.0,2.3748578348390987,0.0,0.0,0.0,0.0,0.0,0.0,0.0,0.0,0.0,0.0,0.0,0.0,0.0,0.0,
0.5407,2.3749553204080884,2.3749553204080884,2.3749553204080884,0.0,0.0,0.0,2.3749553204080884,0.0,0.0,0.0,0.0,0.0,0.0,0.0,0.0,0.0,0.0,0.0,0.0,0.0,0.0,
0.5571,2.3750558272590365,2.3750558272590365,2.3750558272590365,0.0,0.0,0.0,2.3750558272590365,0.0,0.0,0.0,0.0,0.0,0.0,0.0,0.0,0.0,0.0,0.0,0.0,0.0,0.0,
0.5735,2.3751593571197898,2.3751593571197898,2.3751593571197898,0.0,0.0,0.0,2.3751593571197898,0.0,0.0,0.0,0.0,0.0,0.0,0.0,0.0,0.0,0.0,0.0,0.0,0.0,0.0,
0.5898,2.3752652528780267,2.3752652528780267,2.3752652528780267,0.0,0.0,0.0,2.3752652528780267,0.0,0.0,0.0,0.0,0.0,0.0,0.0,0.0,0.0,0.0,0.0,0.0,0.0,0.0,
0.6062,2.375374815692088,2.375374815692088,2.375374815692088,0.0,0.0,0.0,2.375374815692088,0.0,0.0,0.0,0.0,0.0,0.0,0.0,0.0,0.0,0.0,0.0,0.0,0.0,0.0,
0.6226,2.375487407004374,2.375487407004374,2.375487407004374,0.0,0.0,0.0,2.375487407004374,0.0,0.0,0.0,0.0,0.0,0.0,0.0,0.0,0.0,0.0,0.0,0.0,0.0,0.0,
0.639,2.3756030287537993,2.3756030287537993,2.3756030287537993,0.0,0.0,0.0,2.3756030287537993,0.0,0.0,0.0,0.0,0.0,0.0,0.0,0.0,0.0,0.0,0.0,0.0,0.0,0.0,
0.6554,2.3757216829323933,2.3757216829323933,2.3757216829323933,0.0,0.0,0.0,2.3757216829323933,0.0,0.0,0.0,0.0,0.0,0.0,0.0,0.0,0.0,0.0,0.0,0.0,0.0,0.0,
0.6718,2.375843371585371,2.375843371585371,2.375843371585371,0.0,0.0,0.0,2.375843371585371,0.0,0.0,0.0,0.0,0.0,0.0,0.0,0.0,0.0,0.0,0.0,0.0,0.0,0.0,
0.6882,2.3759680968112997,2.3759680968112997,2.3759680968112997,0.0,0.0,0.0,2.3759680968112997,0.0,0.0,0.0,0.0,0.0,0.0,0.0,0.0,0.0,0.0,0.0,0.0,0.0,0.0,
0.7045,2.3760950725013457,2.3760950725013457,2.3760950725013457,0.0,0.0,0.0,2.3760950725013457,0.0,0.0,0.0,0.0,0.0,0.0,0.0,0.0,0.0,0.0,0.0,0.0,0.0,0.0,
0.7209,2.3762258588336396,2.3762258588336396,2.3762258588336396,0.0,0.0,0.0,2.3762258588336396,0.0,0.0,0.0,0.0,0.0,0.0,0.0,0.0,0.0,0.0,0.0,0.0,0.0,0.0,
0.7373,2.376359688341698,2.376359688341698,2.376359688341698,0.0,0.0,0.0,2.376359688341698,0.0,0.0,0.0,0.0,0.0,0.0,0.0,0.0,0.0,0.0,0.0,0.0,0.0,0.0,
0.7537,2.376496563338222,2.376496563338222,2.376496563338222,0.0,0.0,0.0,2.376496563338222,0.0,0.0,0.0,0.0,0.0,0.0,0.0,0.0,0.0,0.0,0.0,0.0,0.0,0.0,
0.7701,2.3766364861898284,2.3766364861898284,2.3766364861898284,0.0,0.0,0.0,2.3766364861898284,0.0,0.0,0.0,0.0,0.0,0.0,0.0,0.0,0.0,0.0,0.0,0.0,0.0,0.0,
0.7865,2.3767794593171834,2.3767794593171834,2.3767794593171834,0.0,0.0,0.0,2.3767794593171834,0.0,0.0,0.0,0.0,0.0,0.0,0.0,0.0,0.0,0.0,0.0,0.0,0.0,0.0,
0.8028,2.3769245855379553,2.3769245855379553,2.3769245855379553,0.0,0.0,0.0,2.3769245855379553,0.0,0.0,0.0,0.0,0.0,0.0,0.0,0.0,0.0,0.0,0.0,0.0,0.0,0.0,
0.8192,2.377073648058168,2.377073648058168,2.377073648058168,0.0,0.0,0.0,2.377073648058168,0.0,0.0,0.0,0.0,0.0,0.0,0.0,0.0,0.0,0.0,0.0,0.0,0.0,0.0,
0.8356,2.377225768425883,2.377225768425883,2.377225768425883,0.0,0.0,0.0,2.377225768425883,0.0,0.0,0.0,0.0,0.0,0.0,0.0,0.0,0.0,0.0,0.0,0.0,0.0,0.0,
0.852,2.3773809492790035,2.3773809492790035,2.3773809492790035,0.0,0.0,0.0,2.3773809492790035,0.0,0.0,0.0,0.0,0.0,0.0,0.0,0.0,0.0,0.0,0.0,0.0,0.0,0.0,
0.8684,2.377539193310181,2.377539193310181,2.377539193310181,0.0,0.0,0.0,2.377539193310181,0.0,0.0,0.0,0.0,0.0,0.0,0.0,0.0,0.0,0.0,0.0,0.0,0.0,0.0,
0.8848,2.377700503266948,2.377700503266948,2.377700503266948,0.0,0.0,0.0,2.377700503266948,0.0,0.0,0.0,0.0,0.0,0.0,0.0,0.0,0.0,0.0,0.0,0.0,0.0,0.0,
0.9012,2.377864881951891,2.377864881951891,2.377864881951891,0.0,0.0,0.0,2.377864881951891,0.0,0.0,0.0,0.0,0.0,0.0,0.0,0.0,0.0,0.0,0.0,0.0,0.0,0.0,
0.9175,2.378031301871218,2.378031301871218,2.378031301871218,0.0,0.0,0.0,2.378031301871218,0.0,0.0,0.0,0.0,0.0,0.0,0.0,0.0,0.0,0.0,0.0,0.0,0.0,0.0,
0.9339,2.3782018078853477,2.3782018078853477,2.3782018078853477,0.0,0.0,0.0,2.3782018078853477,0.0,0.0,0.0,0.0,0.0,0.0,0.0,0.0,0.0,0.0,0.0,0.0,0.0,0.0,
0.9503,2.3783753913489356,2.3783753913489356,2.3783753913489356,0.0,0.0,0.0,2.3783753913489356,0.0,0.0,0.0,0.0,0.0,0.0,0.0,0.0,0.0,0.0,0.0,0.0,0.0,0.0,
0.9667,2.3785520552860087,2.3785520552860087,2.3785520552860087,0.0,0.0,0.0,2.3785520552860087,0.0,0.0,0.0,0.0,0.0,0.0,0.0,0.0,0.0,0.0,0.0,0.0,0.0,0.0,
0.9831,2.378731802776398,2.378731802776398,2.378731802776398,0.0,0.0,0.0,2.378731802776398,0.0,0.0,0.0,0.0,0.0,0.0,0.0,0.0,0.0,0.0,0.0,0.0,0.0,0.0,
0.9995,2.378914636955951,2.378914636955951,2.378914636955951,0.0,0.0,0.0,2.378914636955951,0.0,0.0,0.0,0.0,0.0,0.0,0.0,0.0,0.0,0.0,0.0,0.0,0.0,0.0,
1.0158,2.379099417963989,2.379099417963989,2.379099417963989,0.0,0.0,0.0,2.379099417963989,0.0,0.0,0.0,0.0,0.0,0.0,0.0,0.0,0.0,0.0,0.0,0.0,0.0,0.0,
1.0322,2.37928841628391,2.37928841628391,2.37928841628391,0.0,0.0,0.0,2.37928841628391,0.0,0.0,0.0,0.0,0.0,0.0,0.0,0.0,0.0,0.0,0.0,0.0,0.0,0.0,
1.0486,2.3794805110180963,2.3794805110180963,2.3794805110180963,0.0,0.0,0.0,2.3794805110180963,0.0,0.0,0.0,0.0,0.0,0.0,0.0,0.0,0.0,0.0,0.0,0.0,0.0,0.0,
1.065,2.379675705527919,2.379675705527919,2.379675705527919,0.0,0.0,0.0,2.379675705527919,0.0,0.0,0.0,0.0,0.0,0.0,0.0,0.0,0.0,0.0,0.0,0.0,0.0,0.0,
1.0814,2.3798740032316266,2.3798740032316266,2.3798740032316266,0.0,0.0,0.0,2.3798740032316266,0.0,0.0,0.0,0.0,0.0,0.0,0.0,0.0,0.0,0.0,0.0,0.0,0.0,0.0,
1.0978,2.3800754076046275,2.3800754076046275,2.3800754076046275,0.0,0.0,0.0,2.3800754076046275,0.0,0.0,0.0,0.0,0.0,0.0,0.0,0.0,0.0,0.0,0.0,0.0,0.0,0.0,
1.1142,2.3802799221795903,2.3802799221795903,2.3802799221795903,0.0,0.0,0.0,2.3802799221795903,0.0,0.0,0.0,0.0,0.0,0.0,0.0,0.0,0.0,0.0,0.0,0.0,0.0,0.0,
1.1305,2.3804862750773683,2.3804862750773683,2.3804862750773683,0.0,0.0,0.0,2.3804862750773683,0.0,0.0,0.0,0.0,0.0,0.0,0.0,0.0,0.0,0.0,0.0,0.0,0.0,0.0,
1.1469,2.38069700186456,2.38069700186456,2.38069700186456,0.0,0.0,0.0,2.38069700186456,0.0,0.0,0.0,0.0,0.0,0.0,0.0,0.0,0.0,0.0,0.0,0.0,0.0,0.0,
1.1633,2.3809108497748186,2.3809108497748186,2.3809108497748186,0.0,0.0,0.0,2.3809108497748186,0.0,0.0,0.0,0.0,0.0,0.0,0.0,0.0,0.0,0.0,0.0,0.0,0.0,0.0,
1.1797,2.381127822571703,2.381127822571703,2.381127822571703,0.0,0.0,0.0,2.381127822571703,0.0,0.0,0.0,0.0,0.0,0.0,0.0,0.0,0.0,0.0,0.0,0.0,0.0,0.0,
1.1961,2.381347924077084,2.381347924077084,2.381347924077084,0.0,0.0,0.0,2.381347924077084,0.0,0.0,0.0,0.0,0.0,0.0,0.0,0.0,0.0,0.0,0.0,0.0,0.0,0.0,
1.2125,2.381571158171396,2.381571158171396,2.381571158171396,0.0,0.0,0.0,2.381571158171396,0.0,0.0,0.0,0.0,0.0,0.0,0.0,0.0,0.0,0.0,0.0,0.0,0.0,0.0,
1.2288,2.381796138972872,2.381796138972872,2.381796138972872,0.0,0.0,0.0,2.381796138972872,0.0,0.0,0.0,0.0,0.0,0.0,0.0,0.0,0.0,0.0,0.0,0.0,0.0,0.0,
1.2452,2.3820256309598316,2.3820256309598316,2.3820256309598316,0.0,0.0,0.0,2.3820256309598316,0.0,0.0,0.0,0.0,0.0,0.0,0.0,0.0,0.0,0.0,0.0,0.0,0.0,0.0,
1.2616,2.382258267505544,2.382258267505544,2.382258267505544,0.0,0.0,0.0,2.382258267505544,0.0,0.0,0.0,0.0,0.0,0.0,0.0,0.0,0.0,0.0,0.0,0.0,0.0,0.0,
1.278,2.3824940527264964,2.3824940527264964,2.3824940527264964,0.0,0.0,0.0,2.3824940527264964,0.0,0.0,0.0,0.0,0.0,0.0,0.0,0.0,0.0,0.0,0.0,0.0,0.0,0.0,
1.2944,2.382732990798823,2.382732990798823,2.382732990798823,0.0,0.0,0.0,2.382732990798823,0.0,0.0,0.0,0.0,0.0,0.0,0.0,0.0,0.0,0.0,0.0,0.0,0.0,0.0,
1.3108,2.3829750859585617,2.3829750859585617,2.3829750859585617,0.0,0.0,0.0,2.3829750859585617,0.0,0.0,0.0,0.0,0.0,0.0,0.0,0.0,0.0,0.0,0.0,0.0,0.0,0.0,
1.3271,2.3832188374468535,2.3832188374468535,2.3832188374468535,0.0,0.0,0.0,2.3832188374468535,0.0,0.0,0.0,0.0,0.0,0.0,0.0,0.0,0.0,0.0,0.0,0.0,0.0,0.0,
1.3435,2.3834672404138297,2.3834672404138297,2.3834672404138297,0.0,0.0,0.0,2.3834672404138297,0.0,0.0,0.0,0.0,0.0,0.0,0.0,0.0,0.0,0.0,0.0,0.0,0.0,0.0,
1.3599,2.3837188135111598,2.3837188135111598,2.3837188135111598,0.0,0.0,0.0,2.3837188135111598,0.0,0.0,0.0,0.0,0.0,0.0,0.0,0.0,0.0,0.0,0.0,0.0,0.0,0.0,
1.3763,2.383973561216641,2.383973561216641,2.383973561216641,0.0,0.0,0.0,2.383973561216641,0.0,0.0,0.0,0.0,0.0,0.0,0.0,0.0,0.0,0.0,0.0,0.0,0.0,0.0,
1.3927,2.384231488069207,2.384231488069207,2.384231488069207,0.0,0.0,0.0,2.384231488069207,0.0,0.0,0.0,0.0,0.0,0.0,0.0,0.0,0.0,0.0,0.0,0.0,0.0,0.0,
1.4091,2.384492598669217,2.384492598669217,2.384492598669217,0.0,0.0,0.0,2.384492598669217,0.0,0.0,0.0,0.0,0.0,0.0,0.0,0.0,0.0,0.0,0.0,0.0,0.0,0.0,
1.4255,2.3847568976787157,2.3847568976787157,2.3847568976787157,0.0,0.0,0.0,2.3847568976787157,0.0,0.0,0.0,0.0,0.0,0.0,0.0,0.0,0.0,0.0,0.0,0.0,0.0,0.0,
1.4418,2.3850227490866454,2.3850227490866454,2.3850227490866454,0.0,0.0,0.0,2.3850227490866454,0.0,0.0,0.0,0.0,0.0,0.0,0.0,0.0,0.0,0.0,0.0,0.0,0.0,0.0,
1.4582,2.3852934196352034,2.3852934196352034,2.3852934196352034,0.0,0.0,0.0,2.3852934196352034,0.0,0.0,0.0,0.0,0.0,0.0,0.0,0.0,0.0,0.0,0.0,0.0,0.0,0.0,
1.4746,2.385567292922439,2.385567292922439,2.385567292922439,0.0,0.0,0.0,2.385567292922439,0.0,0.0,0.0,0.0,0.0,0.0,0.0,0.0,0.0,0.0,0.0,0.0,0.0,0.0,
1.491,2.385844373859496,2.385844373859496,2.385844373859496,0.0,0.0,0.0,2.385844373859496,0.0,0.0,0.0,0.0,0.0,0.0,0.0,0.0,0.0,0.0,0.0,0.0,0.0,0.0,
1.5074,2.3861246674205674,2.3861246674205674,2.3861246674205674,0.0,0.0,0.0,2.3861246674205674,0.0,0.0,0.0,0.0,0.0,0.0,0.0,0.0,0.0,0.0,0.0,0.0,0.0,0.0,
1.5238,2.3864081786432174,2.3864081786432174,2.3864081786432174,0.0,0.0,0.0,2.3864081786432174,0.0,0.0,0.0,0.0,0.0,0.0,0.0,0.0,0.0,0.0,0.0,0.0,0.0,0.0,
1.5401,2.386693154474748,2.386693154474748,2.386693154474748,0.0,0.0,0.0,2.386693154474748,0.0,0.0,0.0,0.0,0.0,0.0,0.0,0.0,0.0,0.0,0.0,0.0,0.0,0.0,
1.5565,2.386983096689897,2.386983096689897,2.386983096689897,0.0,0.0,0.0,2.386983096689897,0.0,0.0,0.0,0.0,0.0,0.0,0.0,0.0,0.0,0.0,0.0,0.0,0.0,0.0,
1.5729,2.3872762720303458,2.3872762720303458,2.3872762720303458,0.0,0.0,0.0,2.3872762720303458,0.0,0.0,0.0,0.0,0.0,0.0,0.0,0.0,0.0,0.0,0.0,0.0,0.0,0.0,
1.5893,2.387572685789703,2.387572685789703,2.387572685789703,0.0,0.0,0.0,2.387572685789703,0.0,0.0,0.0,0.0,0.0,0.0,0.0,0.0,0.0,0.0,0.0,0.0,0.0,0.0,
1.6057,2.3878723433264257,2.3878723433264257,2.3878723433264257,0.0,0.0,0.0,2.3878723433264257,0.0,0.0,0.0,0.0,0.0,0.0,0.0,0.0,0.0,0.0,0.0,0.0,0.0,0.0,
1.6221,2.3881752500642026,2.3881752500642026,2.3881752500642026,0.0,0.0,0.0,2.3881752500642026,0.0,0.0,0.0,0.0,0.0,0.0,0.0,0.0,0.0,0.0,0.0,0.0,0.0,0.0,
1.6385,2.388481411492182,2.388481411492182,2.388481411492182,0.0,0.0,0.0,2.388481411492182,0.0,0.0,0.0,0.0,0.0,0.0,0.0,0.0,0.0,0.0,0.0,0.0,0.0,0.0,
1.6548,2.388788936557401,2.388788936557401,2.388788936557401,0.0,0.0,0.0,2.388788936557401,0.0,0.0,0.0,0.0,0.0,0.0,0.0,0.0,0.0,0.0,0.0,0.0,0.0,0.0,
1.6712,2.3891016041659903,2.3891016041659903,2.3891016041659903,0.0,0.0,0.0,2.3891016041659903,0.0,0.0,0.0,0.0,0.0,0.0,0.0,0.0,0.0,0.0,0.0,0.0,0.0,0.0,
1.6876,2.389417543293766,2.389417543293766,2.389417543293766,0.0,0.0,0.0,2.389417543293766,0.0,0.0,0.0,0.0,0.0,0.0,0.0,0.0,0.0,0.0,0.0,0.0,0.0,0.0,
1.704,2.389736759694827,2.389736759694827,2.389736759694827,0.0,0.0,0.0,2.389736759694827,0.0,0.0,0.0,0.0,0.0,0.0,0.0,0.0,0.0,0.0,0.0,0.0,0.0,0.0,
1.7204,2.3900592591904766,2.3900592591904766,2.3900592591904766,0.0,0.0,0.0,2.3900592591904766,0.0,0.0,0.0,0.0,0.0,0.0,0.0,0.0,0.0,0.0,0.0,0.0,0.0,0.0,
1.7368,2.390385047669531,2.390385047669531,2.390385047669531,0.0,0.0,0.0,2.390385047669531,0.0,0.0,0.0,0.0,0.0,0.0,0.0,0.0,0.0,0.0,0.0,0.0,0.0,0.0,
1.7531,2.3907121144860755,2.3907121144860755,2.3907121144860755,0.0,0.0,0.0,2.3907121144860755,0.0,0.0,0.0,0.0,0.0,0.0,0.0,0.0,0.0,0.0,0.0,0.0,0.0,0.0,
1.7695,2.391044478724069,2.391044478724069,2.391044478724069,0.0,0.0,0.0,2.391044478724069,0.0,0.0,0.0,0.0,0.0,0.0,0.0,0.0,0.0,0.0,0.0,0.0,0.0,0.0,
1.7859,2.3913801499833203,2.3913801499833203,2.3913801499833203,0.0,0.0,0.0,2.3913801499833203,0.0,0.0,0.0,0.0,0.0,0.0,0.0,0.0,0.0,0.0,0.0,0.0,0.0,0.0,
1.8023,2.391719134425948,2.391719134425948,2.391719134425948,0.0,0.0,0.0,2.391719134425948,0.0,0.0,0.0,0.0,0.0,0.0,0.0,0.0,0.0,0.0,0.0,0.0,0.0,0.0,
1.8187,2.3920614382834073,2.3920614382834073,2.3920614382834073,0.0,0.0,0.0,2.3920614382834073,0.0,0.0,0.0,0.0,0.0,0.0,0.0,0.0,0.0,0.0,0.0,0.0,0.0,0.0,
1.8351,2.392407067856896,2.392407067856896,2.392407067856896,0.0,0.0,0.0,2.392407067856896,0.0,0.0,0.0,0.0,0.0,0.0,0.0,0.0,0.0,0.0,0.0,0.0,0.0,0.0,
1.8515,2.3927560295177157,2.3927560295177157,2.3927560295177157,0.0,0.0,0.0,2.3927560295177157,0.0,0.0,0.0,0.0,0.0,0.0,0.0,0.0,0.0,0.0,0.0,0.0,0.0,0.0,
1.8678,2.393106171406308,2.393106171406308,2.393106171406308,0.0,0.0,0.0,2.393106171406308,0.0,0.0,0.0,0.0,0.0,0.0,0.0,0.0,0.0,0.0,0.0,0.0,0.0,0.0,
1.8842,2.393461796221621,2.393461796221621,2.393461796221621,0.0,0.0,0.0,2.393461796221621,0.0,0.0,0.0,0.0,0.0,0.0,0.0,0.0,0.0,0.0,0.0,0.0,0.0,0.0,
1.9006,2.393820772622348,2.393820772622348,2.393820772622348,0.0,0.0,0.0,2.393820772622348,0.0,0.0,0.0,0.0,0.0,0.0,0.0,0.0,0.0,0.0,0.0,0.0,0.0,0.0,
1.917,2.394183107263794,2.394183107263794,2.394183107263794,0.0,0.0,0.0,2.394183107263794,0.0,0.0,0.0,0.0,0.0,0.0,0.0,0.0,0.0,0.0,0.0,0.0,0.0,0.0,
1.9334,2.3945488068732925,2.3945488068732925,2.3945488068732925,0.0,0.0,0.0,2.3945488068732925,0.0,0.0,0.0,0.0,0.0,0.0,0.0,0.0,0.0,0.0,0.0,0.0,0.0,0.0,
1.9498,2.394917878250715,2.394917878250715,2.394917878250715,0.0,0.0,0.0,2.394917878250715,0.0,0.0,0.0,0.0,0.0,0.0,0.0,0.0,0.0,0.0,0.0,0.0,0.0,0.0,
1.9661,2.39528804698032,2.39528804698032,2.39528804698032,0.0,0.0,0.0,2.39528804698032,0.0,0.0,0.0,0.0,0.0,0.0,0.0,0.0,0.0,0.0,0.0,0.0,0.0,0.0,
1.9825,2.395663861920451,2.395663861920451,2.395663861920451,0.0,0.0,0.0,2.395663861920451,0.0,0.0,0.0,0.0,0.0,0.0,0.0,0.0,0.0,0.0,0.0,0.0,0.0,0.0,
1.9989,2.3960430694244907,2.3960430694244907,2.3960430694244907,0.0,0.0,0.0,2.3960430694244907,0.0,0.0,0.0,0.0,0.0,0.0,0.0,0.0,0.0,0.0,0.0,0.0,0.0,0.0,
2.0153,2.3964256765862575,2.3964256765862575,2.3964256765862575,0.0,0.0,0.0,2.3964256765862575,0.0,0.0,0.0,0.0,0.0,0.0,0.0,0.0,0.0,0.0,0.0,0.0,0.0,0.0,
2.0317,2.396811690574226,2.396811690574226,2.396811690574226,0.0,0.0,0.0,2.396811690574226,0.0,0.0,0.0,0.0,0.0,0.0,0.0,0.0,0.0,0.0,0.0,0.0,0.0,0.0,
2.0481,2.3972011186319877,2.3972011186319877,2.3972011186319877,0.0,0.0,0.0,2.3972011186319877,0.0,0.0,0.0,0.0,0.0,0.0,0.0,0.0,0.0,0.0,0.0,0.0,0.0,0.0,
2.0645,2.3975939680787706,2.3975939680787706,2.3975939680787706,0.0,0.0,0.0,2.3975939680787706,0.0,0.0,0.0,0.0,0.0,0.0,0.0,0.0,0.0,0.0,0.0,0.0,0.0,0.0,
2.0808,2.3979878195742677,2.3979878195742677,2.3979878195742677,0.0,0.0,0.0,2.3979878195742677,0.0,0.0,0.0,0.0,0.0,0.0,0.0,0.0,0.0,0.0,0.0,0.0,0.0,0.0,
2.0972,2.398387513085792,2.398387513085792,2.398387513085792,0.0,0.0,0.0,2.398387513085792,0.0,0.0,0.0,0.0,0.0,0.0,0.0,0.0,0.0,0.0,0.0,0.0,0.0,0.0,
2.1136,2.3987906503558962,2.3987906503558962,2.3987906503558962,0.0,0.0,0.0,2.3987906503558962,0.0,0.0,0.0,0.0,0.0,0.0,0.0,0.0,0.0,0.0,0.0,0.0,0.0,0.0,
2.13,2.399197239010341,2.399197239010341,2.399197239010341,0.0,0.0,0.0,2.399197239010341,0.0,0.0,0.0,0.0,0.0,0.0,0.0,0.0,0.0,0.0,0.0,0.0,0.0,0.0,
