energies(eV),real_xx,real_yy,real_zz,real_xy,real_yz,real_xz,real_ave,imag_xx,imag_yy,imag_zz,imag_xy,imag_yz,imag_xz,imag_ave,absorption_xx,absorption_yy,absorption_zz,absorption_xy,absorption_yz,absorption_xz,absorption_ave,band_gap
0.0,3.217486778722919,2.844281820877307,3.097387535171028,0.0,0.0,0.0,3.0530520449237515,0.0,0.0,0.0,0.0,0.0,0.0,0.0,0.0,0.0,0.0,0.0,0.0,0.0,0.0,3.5121
0.0145,3.217495432603783,2.8442888366897043,3.097395427049925,0.0,0.0,0.0,3.0530598987811373,0.0,0.0,0.0,0.0,0.0,0.0,0.0,0.0,0.0,0.0,0.0,0.0,0.0,0.0,
0.029,3.2175213949177355,2.8443098847421897,3.0974191033126663,0.0,0.0,0.0,3.0530834609908637,0.0,0.0,0.0,0.0,0.0,0.0,0.0,0.0,0.0,0.0,0.0,0.0,0.0,0.0,
0.0435,3.2175646676791527,2.8443449668808767,3.097458565837627,0.0,0.0,0.0,3.0531227334658855,0.0,0.0,0.0,0.0,0.0,0.0,0.0,0.0,0.0,0.0,0.0,0.0,0.0,0.0,
0.058,3.217625254245791,2.8443940861831343,3.097513817755906,0.0,0.0,0.0,3.053177719394944,0.0,0.0,0.0,0.0,0.0,0.0,0.0,0.0,0.0,0.0,0.0,0.0,0.0,0.0,
0.0725,3.2177031593197287,2.844457246958509,3.09758486345224,0.0,0.0,0.0,3.053248423243493,0.0,0.0,0.0,0.0,0.0,0.0,0.0,0.0,0.0,0.0,0.0,0.0,0.0,0.0,
0.0869,3.217797672848535,2.8445338741637656,3.0976710555141684,0.0,0.0,0.0,3.0533342008421562,0.0,0.0,0.0,0.0,0.0,0.0,0.0,0.0,0.0,0.0,0.0,0.0,0.0,0.0,
0.1014,3.217910114867449,2.8446250388003333,3.0977735979053116,0.0,0.0,0.0,3.053436250524365,0.0,0.0,0.0,0.0,0.0,0.0,0.0,0.0,0.0,0.0,0.0,0.0,0.0,0.0,
0.1159,3.218039897513847,2.8447302651859143,3.09789195470225,0.0,0.0,0.0,3.053554039134004,0.0,0.0,0.0,0.0,0.0,0.0,0.0,0.0,0.0,0.0,0.0,0.0,0.0,0.0,
0.1304,3.2181870308725116,2.844849562565688,3.098026135309617,0.0,0.0,0.0,3.0536875762492723,0.0,0.0,0.0,0.0,0.0,0.0,0.0,0.0,0.0,0.0,0.0,0.0,0.0,0.0,
0.1449,3.2183515263816,2.844982941426449,3.0981761503944685,0.0,0.0,0.0,3.053836872734173,0.0,0.0,0.0,0.0,0.0,0.0,0.0,0.0,0.0,0.0,0.0,0.0,0.0,0.0,
0.1594,3.218533396835481,2.845130413499589,3.0983420118889,0.0,0.0,0.0,3.054001940741323,0.0,0.0,0.0,0.0,0.0,0.0,0.0,0.0,0.0,0.0,0.0,0.0,0.0,0.0,
0.1739,3.218732656387943,2.845291991764359,3.098523732993157,0.0,0.0,0.0,3.054182793715153,0.0,0.0,0.0,0.0,0.0,0.0,0.0,0.0,0.0,0.0,0.0,0.0,0.0,0.0,
0.1884,3.218949320555615,2.8454676904515908,3.0987213281790043,0.0,0.0,0.0,3.0543794463954033,0.0,0.0,0.0,0.0,0.0,0.0,0.0,0.0,0.0,0.0,0.0,0.0,0.0,0.0,
0.2029,3.219183406221921,2.845657525047594,3.098934813193461,0.0,0.0,0.0,3.054591914820992,0.0,0.0,0.0,0.0,0.0,0.0,0.0,0.0,0.0,0.0,0.0,0.0,0.0,0.0,
0.2174,3.219434931641204,2.845861512298611,3.099164205062782,0.0,0.0,0.0,3.0548202163341984,0.0,0.0,0.0,0.0,0.0,0.0,0.0,0.0,0.0,0.0,0.0,0.0,0.0,0.0,
0.2319,3.2197039164432666,2.8460796702155218,3.0994095220969204,0.0,0.0,0.0,3.0550643695852364,0.0,0.0,0.0,0.0,0.0,0.0,0.0,0.0,0.0,0.0,0.0,0.0,0.0,0.0,
0.2464,3.219990381638309,2.846312018078884,3.099670783894163,0.0,0.0,0.0,3.0553243945371187,0.0,0.0,0.0,0.0,0.0,0.0,0.0,0.0,0.0,0.0,0.0,0.0,0.0,0.0,
0.2608,3.2202921932996382,2.8465568273292625,3.0999460447087355,0.0,0.0,0.0,3.0555983551125454,0.0,0.0,0.0,0.0,0.0,0.0,0.0,0.0,0.0,0.0,0.0,0.0,0.0,0.0,
0.2753,3.220613566901575,2.846817519802136,3.1002391496662254,0.0,0.0,0.0,3.0558900787899788,0.0,0.0,0.0,0.0,0.0,0.0,0.0,0.0,0.0,0.0,0.0,0.0,0.0,0.0,
0.2898,3.22095249208488,2.8470924675741154,3.1005482657976655,0.0,0.0,0.0,3.056197741818887,0.0,0.0,0.0,0.0,0.0,0.0,0.0,0.0,0.0,0.0,0.0,0.0,0.0,0.0,
0.3043,3.2213089954274086,2.847381695054045,3.100873417899743,0.0,0.0,0.0,3.0565213694603988,0.0,0.0,0.0,0.0,0.0,0.0,0.0,0.0,0.0,0.0,0.0,0.0,0.0,0.0,
0.3188,3.2216831049171244,2.8476852279514473,3.1012146320861724,0.0,0.0,0.0,3.0568609883182476,0.0,0.0,0.0,0.0,0.0,0.0,0.0,0.0,0.0,0.0,0.0,0.0,0.0,0.0,
0.3333,3.2220748499590965,2.8480030932839187,3.1015719357944995,0.0,0.0,0.0,3.0572166263458382,0.0,0.0,0.0,0.0,0.0,0.0,0.0,0.0,0.0,0.0,0.0,0.0,0.0,0.0,
0.3478,3.2224842613828972,2.84833531938483,3.101945357793245,0.0,0.0,0.0,3.057588312853657,0.0,0.0,0.0,0.0,0.0,0.0,0.0,0.0,0.0,0.0,0.0,0.0,0.0,0.0,
0.3623,3.2229113714504356,2.848681935911457,3.1023349281894337,0.0,0.0,0.0,3.057976078517109,0.0,0.0,0.0,0.0,0.0,0.0,0.0,0.0,0.0,0.0,0.0,0.0,0.0,0.0,
0.3768,3.2233562138640752,2.8490429738535354,3.1027406784364495,0.0,0.0,0.0,3.058379955384687,0.0,0.0,0.0,0.0,0.0,0.0,0.0,0.0,0.0,0.0,0.0,0.0,0.0,0.0,
0.3913,3.2238188237752095,2.8494184655421635,3.103162641342284,0.0,0.0,0.0,3.058799976886552,0.0,0.0,0.0,0.0,0.0,0.0,0.0,0.0,0.0,0.0,0.0,0.0,0.0,0.0,
0.4058,3.2242992377931614,2.849808444659179,3.1036008510782294,0.0,0.0,0.0,3.0592361778435233,0.0,0.0,0.0,0.0,0.0,0.0,0.0,0.0,0.0,0.0,0.0,0.0,0.0,0.0,
0.4203,3.2247974939945645,2.8502129462468835,3.1040553431877704,0.0,0.0,0.0,3.059688594476406,0.0,0.0,0.0,0.0,0.0,0.0,0.0,0.0,0.0,0.0,0.0,0.0,0.0,0.0,
0.4347,3.2253100110325805,2.8506290667040317,3.1045228516491186,0.0,0.0,0.0,3.06015397646191,0.0,0.0,0.0,0.0,0.0,0.0,0.0,0.0,0.0,0.0,0.0,0.0,0.0,0.0,
0.4492,3.225843947999527,2.851062623054004,3.105009907727268,0.0,0.0,0.0,3.0606388262602664,0.0,0.0,0.0,0.0,0.0,0.0,0.0,0.0,0.0,0.0,0.0,0.0,0.0,0.0,
0.4637,3.2263958499841805,2.851510814993415,3.105513360860257,0.0,0.0,0.0,3.0611400086126177,0.0,0.0,0.0,0.0,0.0,0.0,0.0,0.0,0.0,0.0,0.0,0.0,0.0,0.0,
0.4782,3.2269657610231723,2.851973683102966,3.1060332521687397,0.0,0.0,0.0,3.061657565431626,0.0,0.0,0.0,0.0,0.0,0.0,0.0,0.0,0.0,0.0,0.0,0.0,0.0,0.0,
0.4927,3.2275537266730323,2.8524512693789577,3.1065696241964926,0.0,0.0,0.0,3.0621915400828272,0.0,0.0,0.0,0.0,0.0,0.0,0.0,0.0,0.0,0.0,0.0,0.0,0.0,0.0,
0.5072,3.228159794022046,2.8529436172457965,3.107122520921794,0.0,0.0,0.0,3.0627419773965454,0.0,0.0,0.0,0.0,0.0,0.0,0.0,0.0,0.0,0.0,0.0,0.0,0.0,0.0,
0.5217,3.228784011702442,2.853450771568742,3.1076919877693094,0.0,0.0,0.0,3.0633089236801645,0.0,0.0,0.0,0.0,0.0,0.0,0.0,0.0,0.0,0.0,0.0,0.0,0.0,0.0,
0.5362,3.2294264299031026,2.8539727786673406,3.108278071622302,0.0,0.0,0.0,3.063892426730915,0.0,0.0,0.0,0.0,0.0,0.0,0.0,0.0,0.0,0.0,0.0,0.0,0.0,0.0,
0.5507,3.230087100382678,2.8545096863291413,3.1088808208353558,0.0,0.0,0.0,3.0644925358490585,0.0,0.0,0.0,0.0,0.0,0.0,0.0,0.0,0.0,0.0,0.0,0.0,0.0,0.0,
0.5652,3.2307660764831674,2.8550615438240294,3.1095002852474747,0.0,0.0,0.0,3.065109301851557,0.0,0.0,0.0,0.0,0.0,0.0,0.0,0.0,0.0,0.0,0.0,0.0,0.0,0.0,
0.5797,3.2314634131439806,2.855628401919052,3.1101365161957384,0.0,0.0,0.0,3.065742777086257,0.0,0.0,0.0,0.0,0.0,0.0,0.0,0.0,0.0,0.0,0.0,0.0,0.0,0.0,
0.5942,3.232179166916443,2.856210312893646,3.1107895665292684,0.0,0.0,0.0,3.0663930154464523,0.0,0.0,0.0,0.0,0.0,0.0,0.0,0.0,0.0,0.0,0.0,0.0,0.0,0.0,
0.6086,3.232908268926414,2.8568031613345246,3.1114548125472092,0.0,0.0,0.0,3.067055414269383,0.0,0.0,0.0,0.0,0.0,0.0,0.0,0.0,0.0,0.0,0.0,0.0,0.0,0.0,
0.6231,3.2336609050623606,2.857415236277109,3.1121415493687024,0.0,0.0,0.0,3.0677392302360573,0.0,0.0,0.0,0.0,0.0,0.0,0.0,0.0,0.0,0.0,0.0,0.0,0.0,0.0,
0.6376,3.2344321373582265,2.858042529775201,3.112845272941195,0.0,0.0,0.0,3.068439980024874,0.0,0.0,0.0,0.0,0.0,0.0,0.0,0.0,0.0,0.0,0.0,0.0,0.0,0.0,
0.6521,3.2352220289563287,2.8586851003105487,3.1135660423012887,0.0,0.0,0.0,3.0691577238560552,0.0,0.0,0.0,0.0,0.0,0.0,0.0,0.0,0.0,0.0,0.0,0.0,0.0,0.0,
0.6666,3.236030644690851,2.859343007961761,3.114303918074914,0.0,0.0,0.0,3.0698925235758416,0.0,0.0,0.0,0.0,0.0,0.0,0.0,0.0,0.0,0.0,0.0,0.0,0.0,0.0,
0.6811,3.236858051105247,2.860016314422758,3.1150589624944622,0.0,0.0,0.0,3.070644442674156,0.0,0.0,0.0,0.0,0.0,0.0,0.0,0.0,0.0,0.0,0.0,0.0,0.0,0.0,
0.6956,3.2377043164704133,2.860705083022043,3.11583123941623,0.0,0.0,0.0,3.0714135463028955,0.0,0.0,0.0,0.0,0.0,0.0,0.0,0.0,0.0,0.0,0.0,0.0,0.0,0.0,
0.7101,3.238569510803276,2.8614093787423487,3.116620814338488,0.0,0.0,0.0,3.072199901294704,0.0,0.0,0.0,0.0,0.0,0.0,0.0,0.0,0.0,0.0,0.0,0.0,0.0,0.0,
0.7246,3.239453705886014,2.8621292682410937,3.1174277544200812,0.0,0.0,0.0,3.0730035761823964,0.0,0.0,0.0,0.0,0.0,0.0,0.0,0.0,0.0,0.0,0.0,0.0,0.0,0.0,
0.7391,3.2403569752857635,2.862864819871312,3.118252128499601,0.0,0.0,0.0,3.0738246412188928,0.0,0.0,0.0,0.0,0.0,0.0,0.0,0.0,0.0,0.0,0.0,0.0,0.0,0.0,
0.7536,3.241279394375032,2.863616103703306,3.119094007115095,0.0,0.0,0.0,3.074663168397811,0.0,0.0,0.0,0.0,0.0,0.0,0.0,0.0,0.0,0.0,0.0,0.0,0.0,0.0,
0.7681,3.2422210403525913,2.864383191546982,3.119953462524423,0.0,0.0,0.0,3.075519231474665,0.0,0.0,0.0,0.0,0.0,0.0,0.0,0.0,0.0,0.0,0.0,0.0,0.0,0.0,
0.7825,3.243175298714397,2.8651607026700403,3.1208244591014576,0.0,0.0,0.0,3.076386820161965,0.0,0.0,0.0,0.0,0.0,0.0,0.0,0.0,0.0,0.0,0.0,0.0,0.0,0.0,
0.797,3.2441555034945715,2.8659595107579667,3.12171916934076,0.0,0.0,0.0,3.077278061197766,0.0,0.0,0.0,0.0,0.0,0.0,0.0,0.0,0.0,0.0,0.0,0.0,0.0,0.0,
0.8115,3.245155177358111,2.8667743484191752,3.122631683137441,0.0,0.0,0.0,3.078187069638242,0.0,0.0,0.0,0.0,0.0,0.0,0.0,0.0,0.0,0.0,0.0,0.0,0.0,0.0,
0.826,3.24617440501747,2.8676052946456068,3.1235620798313177,0.0,0.0,0.0,3.0791139264981315,0.0,0.0,0.0,0.0,0.0,0.0,0.0,0.0,0.0,0.0,0.0,0.0,0.0,0.0,
0.8405,3.247213273125384,2.868452430290403,3.1245104405926374,0.0,0.0,0.0,3.080058714669475,0.0,0.0,0.0,0.0,0.0,0.0,0.0,0.0,0.0,0.0,0.0,0.0,0.0,0.0,
0.855,3.2482718702997024,2.86931583809454,3.1254768484462296,0.0,0.0,0.0,3.0810215189468244,0.0,0.0,0.0,0.0,0.0,0.0,0.0,0.0,0.0,0.0,0.0,0.0,0.0,0.0,
0.8695,3.2493502871488342,2.8701956027140803,3.126461388296264,0.0,0.0,0.0,3.082002426053059,0.0,0.0,0.0,0.0,0.0,0.0,0.0,0.0,0.0,0.0,0.0,0.0,0.0,0.0,
0.884,3.2504486162980286,2.871091810748359,3.1274641469518207,0.0,0.0,0.0,3.0830015246660696,0.0,0.0,0.0,0.0,0.0,0.0,0.0,0.0,0.0,0.0,0.0,0.0,0.0,0.0,
0.8985,3.2515669524163626,2.872004550768945,3.1284852131530476,0.0,0.0,0.0,3.0840189054461185,0.0,0.0,0.0,0.0,0.0,0.0,0.0,0.0,0.0,0.0,0.0,0.0,0.0,0.0,
0.913,3.2527053922444042,2.8729339133494087,3.12952467759815,0.0,0.0,0.0,3.0850546610639875,0.0,0.0,0.0,0.0,0.0,0.0,0.0,0.0,0.0,0.0,0.0,0.0,0.0,0.0,
0.9275,3.2538640346227123,2.8738799910959814,3.1305826329710635,0.0,0.0,0.0,3.086108886229919,0.0,0.0,0.0,0.0,0.0,0.0,0.0,0.0,0.0,0.0,0.0,0.0,0.0,0.0,
0.942,3.2550429805211167,2.8748428786791163,3.131659173970014,0.0,0.0,0.0,3.087181677723416,0.0,0.0,0.0,0.0,0.0,0.0,0.0,0.0,0.0,0.0,0.0,0.0,0.0,0.0,
0.9564,3.2562339915511282,2.8758158575442634,3.1327467798709043,0.0,0.0,0.0,3.0882655429887653,0.0,0.0,0.0,0.0,0.0,0.0,0.0,0.0,0.0,0.0,0.0,0.0,0.0,0.0,
0.9709,3.2574537142400297,2.87681253960894,3.1338606545523495,0.0,0.0,0.0,3.089375636133773,0.0,0.0,0.0,0.0,0.0,0.0,0.0,0.0,0.0,0.0,0.0,0.0,0.0,0.0,
0.9854,3.258694055689814,2.877826327531438,3.1349934106337733,0.0,0.0,0.0,3.090504597951675,0.0,0.0,0.0,0.0,0.0,0.0,0.0,0.0,0.0,0.0,0.0,0.0,0.0,0.0,
0.9999,3.2599551256809858,2.878857324557659,3.1361451511567706,0.0,0.0,0.0,3.0916525337984715,0.0,0.0,0.0,0.0,0.0,0.0,0.0,0.0,0.0,0.0,0.0,0.0,0.0,0.0,
1.0144,3.261237036281985,2.879905636169324,3.137315981331779,0.0,0.0,0.0,3.0928195512610297,0.0,0.0,0.0,0.0,0.0,0.0,0.0,0.0,0.0,0.0,0.0,0.0,0.0,0.0,
1.0289,3.26253990188365,2.880971370121267,3.138506008571729,0.0,0.0,0.0,3.0940057601922155,0.0,0.0,0.0,0.0,0.0,0.0,0.0,0.0,0.0,0.0,0.0,0.0,0.0,0.0,
1.0434,3.2638638392346255,2.8820546364799404,3.139715342526501,0.0,0.0,0.0,3.0952112727470222,0.0,0.0,0.0,0.0,0.0,0.0,0.0,0.0,0.0,0.0,0.0,0.0,0.0,0.0,
1.0579,3.2652089674777347,2.8831555476629878,3.1409440951184435,0.0,0.0,0.0,3.096436203419722,0.0,0.0,0.0,0.0,0.0,0.0,0.0,0.0,0.0,0.0,0.0,0.0,0.0,0.0,
1.0724,3.2665754081872387,2.884274218479855,3.1421923805788508,0.0,0.0,0.0,3.0976806690819814,0.0,0.0,0.0,0.0,0.0,0.0,0.0,0.0,0.0,0.0,0.0,0.0,0.0,0.0,
1.0869,3.2679632854073195,2.885410766173676,3.143460315485393,0.0,0.0,0.0,3.0989447890221293,0.0,0.0,0.0,0.0,0.0,0.0,0.0,0.0,0.0,0.0,0.0,0.0,0.0,0.0,
1.1014,3.2693727256914618,2.886565310464367,3.14474801880068,0.0,0.0,0.0,3.100228684985503,0.0,0.0,0.0,0.0,0.0,0.0,0.0,0.0,0.0,0.0,0.0,0.0,0.0,0.0,
1.1159,3.270803858142947,2.88773797359287,3.1460556119118404,0.0,0.0,0.0,3.1015324812158855,0.0,0.0,0.0,0.0,0.0,0.0,0.0,0.0,0.0,0.0,0.0,0.0,0.0,0.0,
1.1303,3.272246719028336,2.8889206044529487,3.1473739939398198,0.0,0.0,0.0,3.102847105807035,0.0,0.0,0.0,0.0,0.0,0.0,0.0,0.0,0.0,0.0,0.0,0.0,0.0,0.0,
1.1448,3.2737214816309734,2.890129755153903,3.1487216013715695,0.0,0.0,0.0,3.104190946052148,0.0,0.0,0.0,0.0,0.0,0.0,0.0,0.0,0.0,0.0,0.0,0.0,0.0,0.0,
1.1593,3.2752183384774765,2.891357406097808,3.150089476822309,0.0,0.0,0.0,3.105555073799198,0.0,0.0,0.0,0.0,0.0,0.0,0.0,0.0,0.0,0.0,0.0,0.0,0.0,0.0,
1.1738,3.276737429279175,2.8926036900600214,3.1514777517775268,0.0,0.0,0.0,3.1069396237055744,0.0,0.0,0.0,0.0,0.0,0.0,0.0,0.0,0.0,0.0,0.0,0.0,0.0,0.0,
1.1883,3.2782788965168086,2.893868742578025,3.1528865603620218,0.0,0.0,0.0,3.108344733152285,0.0,0.0,0.0,0.0,0.0,0.0,0.0,0.0,0.0,0.0,0.0,0.0,0.0,0.0,
1.2028,3.279842885488036,2.8951527020039993,3.154316039386603,0.0,0.0,0.0,3.1097705422928796,0.0,0.0,0.0,0.0,0.0,0.0,0.0,0.0,0.0,0.0,0.0,0.0,0.0,0.0,
1.2173,3.2814295443565613,2.8964557095589005,3.1557663283960147,0.0,0.0,0.0,3.111217194103826,0.0,0.0,0.0,0.0,0.0,0.0,0.0,0.0,0.0,0.0,0.0,0.0,0.0,0.0,
1.2318,3.283039024202341,2.897777909388136,3.157237569718394,0.0,0.0,0.0,3.1126848344362905,0.0,0.0,0.0,0.0,0.0,0.0,0.0,0.0,0.0,0.0,0.0,0.0,0.0,0.0,
1.2463,3.2846714790734355,2.8991194486189054,3.1587299085159355,0.0,0.0,0.0,3.1141736120694254,0.0,0.0,0.0,0.0,0.0,0.0,0.0,0.0,0.0,0.0,0.0,0.0,0.0,0.0,
1.2608,3.2863270660390778,2.9004804774191677,3.1602434928371044,0.0,0.0,0.0,3.1156836787651163,0.0,0.0,0.0,0.0,0.0,0.0,0.0,0.0,0.0,0.0,0.0,0.0,0.0,0.0,
1.2753,3.2880059452444415,2.901861149058381,3.161778473670258,0.0,0.0,0.0,3.1172151893243605,0.0,0.0,0.0,0.0,0.0,0.0,0.0,0.0,0.0,0.0,0.0,0.0,0.0,0.0,
1.2898,3.289708279966721,2.9032616199700705,3.1633350049988804,0.0,0.0,0.0,3.118768301645224,0.0,0.0,0.0,0.0,0.0,0.0,0.0,0.0,0.0,0.0,0.0,0.0,0.0,0.0,
1.3042,3.2914222522457024,2.904672185030191,3.1649022847524932,0.0,0.0,0.0,3.1203322406761287,0.0,0.0,0.0,0.0,0.0,0.0,0.0,0.0,0.0,0.0,0.0,0.0,0.0,0.0,
1.3187,3.2931718359829114,2.906112597430142,3.166502239921141,0.0,0.0,0.0,3.1219288911113985,0.0,0.0,0.0,0.0,0.0,0.0,0.0,0.0,0.0,0.0,0.0,0.0,0.0,0.0,
1.3332,3.294945383242316,2.9075732968823136,3.168124224944735,0.0,0.0,0.0,3.123547635023122,0.0,0.0,0.0,0.0,0.0,0.0,0.0,0.0,0.0,0.0,0.0,0.0,0.0,0.0,
1.3477,3.2967430704001575,2.909054453115978,3.1697684063487332,0.0,0.0,0.0,3.12518864328829,0.0,0.0,0.0,0.0,0.0,0.0,0.0,0.0,0.0,0.0,0.0,0.0,0.0,0.0,
1.3622,3.2985650772699944,2.910556239365774,3.1714349539538333,0.0,0.0,0.0,3.1268520901965338,0.0,0.0,0.0,0.0,0.0,0.0,0.0,0.0,0.0,0.0,0.0,0.0,0.0,0.0,
1.3767,3.3004115871690303,2.9120788324464133,3.173124040941358,0.0,0.0,0.0,3.128538153518934,0.0,0.0,0.0,0.0,0.0,0.0,0.0,0.0,0.0,0.0,0.0,0.0,0.0,0.0,
1.3912,3.3022827869865234,2.9136224128295436,3.174835843920595,0.0,0.0,0.0,3.1302470145788877,0.0,0.0,0.0,0.0,0.0,0.0,0.0,0.0,0.0,0.0,0.0,0.0,0.0,0.0,
1.4057,3.3041788672540098,2.915187164723088,3.1765705429980775,0.0,0.0,0.0,3.131978858325058,0.0,0.0,0.0,0.0,0.0,0.0,0.0,0.0,0.0,0.0,0.0,0.0,0.0,0.0,
1.4202,3.306100022217646,2.91677327615291,3.178328321848887,0.0,0.0,0.0,3.1337338734064812,0.0,0.0,0.0,0.0,0.0,0.0,0.0,0.0,0.0,0.0,0.0,0.0,0.0,0.0,
1.4347,3.308046449912645,2.9183809390470383,3.180109367790128,0.0,0.0,0.0,3.1355122522499372,0.0,0.0,0.0,0.0,0.0,0.0,0.0,0.0,0.0,0.0,0.0,0.0,0.0,0.0,
1.4492,3.310018352239852,2.920010349322558,3.181913871856469,0.0,0.0,0.0,3.1373141911396263,0.0,0.0,0.0,0.0,0.0,0.0,0.0,0.0,0.0,0.0,0.0,0.0,0.0,0.0,
1.4637,3.312015935044574,2.9216617069750836,3.183742028878061,0.0,0.0,0.0,3.1391398902992393,0.0,0.0,0.0,0.0,0.0,0.0,0.0,0.0,0.0,0.0,0.0,0.0,0.0,0.0,
1.4781,3.314025364064614,2.9233235983988477,3.1855811829483414,0.0,0.0,0.0,3.1409767151372674,0.0,0.0,0.0,0.0,0.0,0.0,0.0,0.0,0.0,0.0,0.0,0.0,0.0,0.0,
1.4926,3.3160747607740144,2.925019312640769,3.1874570793609465,0.0,0.0,0.0,3.1428503842585767,0.0,0.0,0.0,0.0,0.0,0.0,0.0,0.0,0.0,0.0,0.0,0.0,0.0,0.0,
1.5071,3.318150478467793,2.926737598173246,3.1893572353663266,0.0,0.0,0.0,3.144748437335789,0.0,0.0,0.0,0.0,0.0,0.0,0.0,0.0,0.0,0.0,0.0,0.0,0.0,0.0,
1.5216,3.32025273957495,2.928478672227971,3.1912818617740246,0.0,0.0,0.0,3.1466710911923155,0.0,0.0,0.0,0.0,0.0,0.0,0.0,0.0,0.0,0.0,0.0,0.0,0.0,0.0,
1.5361,3.3223817708988292,2.930242756606287,3.193231173614278,0.0,0.0,0.0,3.1486185670397977,0.0,0.0,0.0,0.0,0.0,0.0,0.0,0.0,0.0,0.0,0.0,0.0,0.0,0.0,
1.5506,3.324537803711018,2.9320300777871138,3.1952053902311235,0.0,0.0,0.0,3.1505910905764183,0.0,0.0,0.0,0.0,0.0,0.0,0.0,0.0,0.0,0.0,0.0,0.0,0.0,0.0,
1.5651,3.3267210738481467,2.9338408670384073,3.1972047353783877,0.0,0.0,0.0,3.152588892088314,0.0,0.0,0.0,0.0,0.0,0.0,0.0,0.0,0.0,0.0,0.0,0.0,0.0,0.0,
1.5796,3.3289318218116173,2.935675360532179,3.199229437318554,0.0,0.0,0.0,3.1546122065541167,0.0,0.0,0.0,0.0,0.0,0.0,0.0,0.0,0.0,0.0,0.0,0.0,0.0,0.0,
1.5941,3.3311702928704165,2.9375337994633295,3.201279728924885,0.0,0.0,0.0,3.1566612737528765,0.0,0.0,0.0,0.0,0.0,0.0,0.0,0.0,0.0,0.0,0.0,0.0,0.0,0.0,
1.6086,3.333436737167017,2.9394164301723213,3.20335584778655,0.0,0.0,0.0,3.1587363383752964,0.0,0.0,0.0,0.0,0.0,0.0,0.0,0.0,0.0,0.0,0.0,0.0,0.0,0.0,
1.6231,3.3357314098265918,2.941323504271942,3.2054580363171743,0.0,0.0,0.0,3.160837650138569,0.0,0.0,0.0,0.0,0.0,0.0,0.0,0.0,0.0,0.0,0.0,0.0,0.0,0.0,
1.6376,3.338054571069663,2.9432552787783117,3.207586541866875,0.0,0.0,0.0,3.16296546390495,0.0,0.0,0.0,0.0,0.0,0.0,0.0,0.0,0.0,0.0,0.0,0.0,0.0,0.0,
1.652,3.340390167142028,2.945198435412549,3.2097266626818612,0.0,0.0,0.0,3.165105088412146,0.0,0.0,0.0,0.0,0.0,0.0,0.0,0.0,0.0,0.0,0.0,0.0,0.0,0.0,
1.6665,3.3427709060686603,2.9471802291353137,3.2119083787393428,0.0,0.0,0.0,3.1672865046477727,0.0,0.0,0.0,0.0,0.0,0.0,0.0,0.0,0.0,0.0,0.0,0.0,0.0,0.0,
1.681,3.3451809440678786,2.949187526199178,3.2141171828275716,0.0,0.0,0.0,3.169495217698209,0.0,0.0,0.0,0.0,0.0,0.0,0.0,0.0,0.0,0.0,0.0,0.0,0.0,0.0,
1.6955,3.34762056290094,2.951220606591747,3.2163533431977176,0.0,0.0,0.0,3.171731504230135,0.0,0.0,0.0,0.0,0.0,0.0,0.0,0.0,0.0,0.0,0.0,0.0,0.0,0.0,
1.71,3.3500900500419575,2.9532797564270874,3.218617133652717,0.0,0.0,0.0,3.173995646707254,0.0,0.0,0.0,0.0,0.0,0.0,0.0,0.0,0.0,0.0,0.0,0.0,0.0,0.0,
1.7245,3.352589698813766,2.955365268105668,3.2209088336827065,0.0,0.0,0.0,3.176287933534047,0.0,0.0,0.0,0.0,0.0,0.0,0.0,0.0,0.0,0.0,0.0,0.0,0.0,0.0,
1.739,3.355119808527998,2.957477440479967,3.223228728605055,0.0,0.0,0.0,3.1786086592043397,0.0,0.0,0.0,0.0,0.0,0.0,0.0,0.0,0.0,0.0,0.0,0.0,0.0,0.0,
1.7535,3.357680684629917,2.959616579025818,3.225577109709091,0.0,0.0,0.0,3.1809581244549423,0.0,0.0,0.0,0.0,0.0,0.0,0.0,0.0,0.0,0.0,0.0,0.0,0.0,0.0,
1.768,3.360272638847788,2.9617829960198927,3.227954274405524,0.0,0.0,0.0,3.183336636424402,0.0,0.0,0.0,0.0,0.0,0.0,0.0,0.0,0.0,0.0,0.0,0.0,0.0,0.0,
1.7825,3.362895989347415,2.9639770107232684,3.230360526381059,0.0,0.0,0.0,3.1857445088172476,0.0,0.0,0.0,0.0,0.0,0.0,0.0,0.0,0.0,0.0,0.0,0.0,0.0,0.0,
1.797,3.3655510608916193,2.96619894957185,3.232796175758192,0.0,0.0,0.0,3.188182062073887,0.0,0.0,0.0,0.0,0.0,0.0,0.0,0.0,0.0,0.0,0.0,0.0,0.0,0.0,
1.8115,3.3682381850051675,2.9684491463733913,3.2352615392604673,0.0,0.0,0.0,3.190649623546342,0.0,0.0,0.0,0.0,0.0,0.0,0.0,0.0,0.0,0.0,0.0,0.0,0.0,0.0,
1.8259,3.3709388331634416,2.9707121279481985,3.2377396271091197,0.0,0.0,0.0,3.1931301960735863,0.0,0.0,0.0,0.0,0.0,0.0,0.0,0.0,0.0,0.0,0.0,0.0,0.0,0.0,
1.8404,3.3736908579263156,2.9730196717365036,3.24026518571469,0.0,0.0,0.0,3.195658571792503,0.0,0.0,0.0,0.0,0.0,0.0,0.0,0.0,0.0,0.0,0.0,0.0,0.0,0.0,
1.8549,3.3764759696792703,2.975356518721357,3.2428214476090162,0.0,0.0,0.0,3.1982179786698812,0.0,0.0,0.0,0.0,0.0,0.0,0.0,0.0,0.0,0.0,0.0,0.0,0.0,0.0,
1.8694,3.3792945287061196,2.9777230342593457,3.2454087576389696,0.0,0.0,0.0,3.2008087735348116,0.0,0.0,0.0,0.0,0.0,0.0,0.0,0.0,0.0,0.0,0.0,0.0,0.0,0.0,
1.8839,3.3821469029637514,2.9801195921766266,3.2480274681677876,0.0,0.0,0.0,3.203431321102722,0.0,0.0,0.0,0.0,0.0,0.0,0.0,0.0,0.0,0.0,0.0,0.0,0.0,0.0,
