energies(eV),real_xx,real_yy,real_zz,real_xy,real_yz,real_xz,real_ave,imag_xx,imag_yy,imag_zz,imag_xy,imag_yz,imag_xz,imag_ave,absorption_xx,absorption_yy,absorption_zz,absorption_xy,absorption_yz,absorption_xz,absorption_ave,band_gap
0.0,2.6067116171258267,2.6067116171258267,2.6157133330418914,0.0,0.0,0.0,2.609712189097848,0.0,0.0,0.0,0.0,0.0,0.0,0.0,0.0,0.0,0.0,0.0,0.0,0.0,0.0,7.1152999999999995
0.0158,2.6067139843330915,2.6067139843330915,2.6157158493635935,0.0,0.0,0.0,2.6097146060099257,0.0,0.0,0.0,0.0,0.0,0.0,0.0,0.0,0.0,0.0,0.0,0.0,0.0,0.0,
0.0315,2.606721026176835,2.606721026176835,2.615723334788839,0.0,0.0,0.0,2.60972179571417,0.0,0.0,0.0,0.0,0.0,0.0,0.0,0.0,0.0,0.0,0.0,0.0,0.0,0.0,
0.0473,2.6067328325326704,2.6067328325326704,2.615735884865983,0.0,0.0,0.0,2.609733849977108,0.0,0.0,0.0,0.0,0.0,0.0,0.0,0.0,0.0,0.0,0.0,0.0,0.0,0.0,
0.063,2.606749254234898,2.606749254234898,2.615753341051442,0.0,0.0,0.0,2.609750616507079,0.0,0.0,0.0,0.0,0.0,0.0,0.0,0.0,0.0,0.0,0.0,0.0,0.0,0.0,
0.0788,2.606770500875027,2.606770500875027,2.6157759261661724,0.0,0.0,0.0,2.609772309305409,0.0,0.0,0.0,0.0,0.0,0.0,0.0,0.0,0.0,0.0,0.0,0.0,0.0,0.0,
0.0945,2.606796304015481,2.606796304015481,2.615803354895273,0.0,0.0,0.0,2.609798654308745,0.0,0.0,0.0,0.0,0.0,0.0,0.0,0.0,0.0,0.0,0.0,0.0,0.0,0.0,
0.1103,2.6068269929839465,2.6068269929839465,2.6158359773551885,0.0,0.0,0.0,2.6098299877743605,0.0,0.0,0.0,0.0,0.0,0.0,0.0,0.0,0.0,0.0,0.0,0.0,0.0,0.0,
0.1261,2.6068624191595493,2.6068624191595493,2.615873635611224,0.0,0.0,0.0,2.6098661579767746,0.0,0.0,0.0,0.0,0.0,0.0,0.0,0.0,0.0,0.0,0.0,0.0,0.0,0.0,
0.1418,2.606902314294991,2.606902314294991,2.6159160445695635,0.0,0.0,0.0,2.609906891053182,0.0,0.0,0.0,0.0,0.0,0.0,0.0,0.0,0.0,0.0,0.0,0.0,0.0,0.0,
0.1576,2.6069471875755976,2.6069471875755976,2.6159637455635267,0.0,0.0,0.0,2.6099527069049073,0.0,0.0,0.0,0.0,0.0,0.0,0.0,0.0,0.0,0.0,0.0,0.0,0.0,0.0,
0.1733,2.6069964720570487,2.6069964720570487,2.6160161359932053,0.0,0.0,0.0,2.6100030267024343,0.0,0.0,0.0,0.0,0.0,0.0,0.0,0.0,0.0,0.0,0.0,0.0,0.0,0.0,
0.1891,2.6070507967621297,2.6070507967621297,2.6160738846018092,0.0,0.0,0.0,2.61005849270869,0.0,0.0,0.0,0.0,0.0,0.0,0.0,0.0,0.0,0.0,0.0,0.0,0.0,0.0,
0.2048,2.607109475334447,2.607109475334447,2.6161362618598827,0.0,0.0,0.0,2.6101184041762586,0.0,0.0,0.0,0.0,0.0,0.0,0.0,0.0,0.0,0.0,0.0,0.0,0.0,0.0,
0.2206,2.607173256695037,2.607173256695037,2.616204063989178,0.0,0.0,0.0,2.6101835257930843,0.0,0.0,0.0,0.0,0.0,0.0,0.0,0.0,0.0,0.0,0.0,0.0,0.0,0.0,
0.2364,2.6072417836505215,2.6072417836505215,2.6162769113846935,0.0,0.0,0.0,2.610253492895245,0.0,0.0,0.0,0.0,0.0,0.0,0.0,0.0,0.0,0.0,0.0,0.0,0.0,0.0,
0.2521,2.6073145791697083,2.6073145791697083,2.616354297043638,0.0,0.0,0.0,2.6103278184610184,0.0,0.0,0.0,0.0,0.0,0.0,0.0,0.0,0.0,0.0,0.0,0.0,0.0,0.0,
0.2679,2.607392572350962,2.607392572350962,2.616437208765687,0.0,0.0,0.0,2.6104074511558704,0.0,0.0,0.0,0.0,0.0,0.0,0.0,0.0,0.0,0.0,0.0,0.0,0.0,0.0,
0.2836,2.6074747778045557,2.6074747778045557,2.6165245991420907,0.0,0.0,0.0,2.6104913849170672,0.0,0.0,0.0,0.0,0.0,0.0,0.0,0.0,0.0,0.0,0.0,0.0,0.0,0.0,
0.2994,2.607562244730093,2.607562244730093,2.616617583680407,0.0,0.0,0.0,2.6105806910468643,0.0,0.0,0.0,0.0,0.0,0.0,0.0,0.0,0.0,0.0,0.0,0.0,0.0,0.0,
0.3151,2.60765386804485,2.60765386804485,2.616714987725227,0.0,0.0,0.0,2.6106742412716426,0.0,0.0,0.0,0.0,0.0,0.0,0.0,0.0,0.0,0.0,0.0,0.0,0.0,0.0,
0.3309,2.6077508171512136,2.6077508171512136,2.6168180546066413,0.0,0.0,0.0,2.610773229636356,0.0,0.0,0.0,0.0,0.0,0.0,0.0,0.0,0.0,0.0,0.0,0.0,0.0,0.0,
0.3466,2.607851867167255,2.607851867167255,2.61692548230278,0.0,0.0,0.0,2.6108764055457634,0.0,0.0,0.0,0.0,0.0,0.0,0.0,0.0,0.0,0.0,0.0,0.0,0.0,0.0,
0.3624,2.607958307811428,2.607958307811428,2.6170386420942178,0.0,0.0,0.0,2.6109850859056913,0.0,0.0,0.0,0.0,0.0,0.0,0.0,0.0,0.0,0.0,0.0,0.0,0.0,0.0,
0.3782,2.6080695131039353,2.6080695131039353,2.617156868668035,0.0,0.0,0.0,2.611098631625302,0.0,0.0,0.0,0.0,0.0,0.0,0.0,0.0,0.0,0.0,0.0,0.0,0.0,0.0,
0.3939,2.608184736746916,2.608184736746916,2.6172793687713263,0.0,0.0,0.0,2.6112162807550527,0.0,0.0,0.0,0.0,0.0,0.0,0.0,0.0,0.0,0.0,0.0,0.0,0.0,0.0,
0.4097,2.60830544936232,2.60830544936232,2.6174077060829735,0.0,0.0,0.0,2.6113395349358712,0.0,0.0,0.0,0.0,0.0,0.0,0.0,0.0,0.0,0.0,0.0,0.0,0.0,0.0,
0.4254,2.6084301258387765,2.6084301258387765,2.6175402593515993,0.0,0.0,0.0,2.611466837009717,0.0,0.0,0.0,0.0,0.0,0.0,0.0,0.0,0.0,0.0,0.0,0.0,0.0,0.0,
0.4412,2.608560357449111,2.608560357449111,2.617678720584859,0.0,0.0,0.0,2.6115998118276935,0.0,0.0,0.0,0.0,0.0,0.0,0.0,0.0,0.0,0.0,0.0,0.0,0.0,0.0,
0.4569,2.608694498819384,2.608694498819384,2.6178213406417408,0.0,0.0,0.0,2.611736779426836,0.0,0.0,0.0,0.0,0.0,0.0,0.0,0.0,0.0,0.0,0.0,0.0,0.0,0.0,
0.4727,2.608834262027804,2.608834262027804,2.617969940033305,0.0,0.0,0.0,2.6118794880296377,0.0,0.0,0.0,0.0,0.0,0.0,0.0,0.0,0.0,0.0,0.0,0.0,0.0,0.0,
0.4885,2.6089788112043903,2.6089788112043903,2.618123630289585,0.0,0.0,0.0,2.6120270842327886,0.0,0.0,0.0,0.0,0.0,0.0,0.0,0.0,0.0,0.0,0.0,0.0,0.0,0.0,
0.5042,2.6091271896237367,2.6091271896237367,2.6182813943937973,0.0,0.0,0.0,2.6121785912137567,0.0,0.0,0.0,0.0,0.0,0.0,0.0,0.0,0.0,0.0,0.0,0.0,0.0,0.0,
0.52,2.6092812910801064,2.6092812910801064,2.618445246173496,0.0,0.0,0.0,2.612335942777903,0.0,0.0,0.0,0.0,0.0,0.0,0.0,0.0,0.0,0.0,0.0,0.0,0.0,0.0,
0.5357,2.6094391686317984,2.6094391686317984,2.6186131157469874,0.0,0.0,0.0,2.6124971510035278,0.0,0.0,0.0,0.0,0.0,0.0,0.0,0.0,0.0,0.0,0.0,0.0,0.0,0.0,
0.5515,2.6096028373171336,2.6096028373171336,2.6187871459409786,0.0,0.0,0.0,2.612664273525082,0.0,0.0,0.0,0.0,0.0,0.0,0.0,0.0,0.0,0.0,0.0,0.0,0.0,0.0,
0.5672,2.609770229324789,2.609770229324789,2.618965138298633,0.0,0.0,0.0,2.612835198982737,0.0,0.0,0.0,0.0,0.0,0.0,0.0,0.0,0.0,0.0,0.0,0.0,0.0,0.0,
0.583,2.6099434811334508,2.6099434811334508,2.6191493648677833,0.0,0.0,0.0,2.613012109044895,0.0,0.0,0.0,0.0,0.0,0.0,0.0,0.0,0.0,0.0,0.0,0.0,0.0,0.0,
0.5988,2.6101215459988216,2.6101215459988216,2.619338712910597,0.0,0.0,0.0,2.6131939349694133,0.0,0.0,0.0,0.0,0.0,0.0,0.0,0.0,0.0,0.0,0.0,0.0,0.0,0.0,
0.6145,2.610303255638409,2.610303255638409,2.6195319403711093,0.0,0.0,0.0,2.6133794838826425,0.0,0.0,0.0,0.0,0.0,0.0,0.0,0.0,0.0,0.0,0.0,0.0,0.0,0.0,
0.6303,2.6104909292794782,2.6104909292794782,2.619731513780767,0.0,0.0,0.0,2.6135711241132413,0.0,0.0,0.0,0.0,0.0,0.0,0.0,0.0,0.0,0.0,0.0,0.0,0.0,0.0,
0.646,2.610682195842476,2.610682195842476,2.619934912021358,0.0,0.0,0.0,2.6137664345687703,0.0,0.0,0.0,0.0,0.0,0.0,0.0,0.0,0.0,0.0,0.0,0.0,0.0,0.0,
0.6618,2.6108794965391553,2.6108794965391553,2.620144731460623,0.0,0.0,0.0,2.6139679081796445,0.0,0.0,0.0,0.0,0.0,0.0,0.0,0.0,0.0,0.0,0.0,0.0,0.0,0.0,
0.6775,2.611080338667448,2.611080338667448,2.6203583215545443,0.0,0.0,0.0,2.6141729996298135,0.0,0.0,0.0,0.0,0.0,0.0,0.0,0.0,0.0,0.0,0.0,0.0,0.0,0.0,
0.6933,2.611287285662482,2.611287285662482,2.6205784087773436,0.0,0.0,0.0,2.6143843267007694,0.0,0.0,0.0,0.0,0.0,0.0,0.0,0.0,0.0,0.0,0.0,0.0,0.0,0.0,
0.7091,2.611499078668748,2.611499078668748,2.6208036547267577,0.0,0.0,0.0,2.614600604021418,0.0,0.0,0.0,0.0,0.0,0.0,0.0,0.0,0.0,0.0,0.0,0.0,0.0,0.0,
0.7248,2.6117143364619944,2.6117143364619944,2.6210325907437246,0.0,0.0,0.0,2.614820421222571,0.0,0.0,0.0,0.0,0.0,0.0,0.0,0.0,0.0,0.0,0.0,0.0,0.0,0.0,
0.7406,2.611935806482018,2.611935806482018,2.6212681392065758,0.0,0.0,0.0,2.6150465840568704,0.0,0.0,0.0,0.0,0.0,0.0,0.0,0.0,0.0,0.0,0.0,0.0,0.0,0.0,
0.7563,2.612160690689932,2.612160690689932,2.6215073245724296,0.0,0.0,0.0,2.6152762353174315,0.0,0.0,0.0,0.0,0.0,0.0,0.0,0.0,0.0,0.0,0.0,0.0,0.0,0.0,
0.7721,2.612391859400443,2.612391859400443,2.6217532000630626,0.0,0.0,0.0,2.615512306287983,0.0,0.0,0.0,0.0,0.0,0.0,0.0,0.0,0.0,0.0,0.0,0.0,0.0,0.0,
0.7878,2.61262639205061,2.61262639205061,2.6220026596908723,0.0,0.0,0.0,2.6157518145973637,0.0,0.0,0.0,0.0,0.0,0.0,0.0,0.0,0.0,0.0,0.0,0.0,0.0,0.0,
0.8036,2.6128672821123065,2.6128672821123065,2.622258887840456,0.0,0.0,0.0,2.615997817355023,0.0,0.0,0.0,0.0,0.0,0.0,0.0,0.0,0.0,0.0,0.0,0.0,0.0,0.0,
0.8193,2.61311148621337,2.61311148621337,2.6225186477570186,0.0,0.0,0.0,2.6162472067279197,0.0,0.0,0.0,0.0,0.0,0.0,0.0,0.0,0.0,0.0,0.0,0.0,0.0,0.0,
0.8351,2.6133621212776834,2.6133621212776834,2.622785255321612,0.0,0.0,0.0,2.616503165958993,0.0,0.0,0.0,0.0,0.0,0.0,0.0,0.0,0.0,0.0,0.0,0.0,0.0,0.0,
0.8509,2.6136176535314606,2.6136176535314606,2.623057079500601,0.0,0.0,0.0,2.6167641288545074,0.0,0.0,0.0,0.0,0.0,0.0,0.0,0.0,0.0,0.0,0.0,0.0,0.0,0.0,
0.8666,2.613876425542351,2.613876425542351,2.6233323575448884,0.0,0.0,0.0,2.6170284028765303,0.0,0.0,0.0,0.0,0.0,0.0,0.0,0.0,0.0,0.0,0.0,0.0,0.0,0.0,
0.8824,2.614141740189724,2.614141740189724,2.6236146034471286,0.0,0.0,0.0,2.6172993612755255,0.0,0.0,0.0,0.0,0.0,0.0,0.0,0.0,0.0,0.0,0.0,0.0,0.0,0.0,
0.8981,2.6144102455522873,2.6144102455522873,2.623900251821711,0.0,0.0,0.0,2.6175735809754284,0.0,0.0,0.0,0.0,0.0,0.0,0.0,0.0,0.0,0.0,0.0,0.0,0.0,0.0,
0.9139,2.614685368754648,2.614685368754648,2.6241929490556437,0.0,0.0,0.0,2.617854562188313,0.0,0.0,0.0,0.0,0.0,0.0,0.0,0.0,0.0,0.0,0.0,0.0,0.0,0.0,
0.9296,2.614963633968924,2.614963633968924,2.624488997754968,0.0,0.0,0.0,2.6181387552309388,0.0,0.0,0.0,0.0,0.0,0.0,0.0,0.0,0.0,0.0,0.0,0.0,0.0,0.0,
0.9454,2.6152485929045097,2.6152485929045097,2.624792177085577,0.0,0.0,0.0,2.6184297876315323,0.0,0.0,0.0,0.0,0.0,0.0,0.0,0.0,0.0,0.0,0.0,0.0,0.0,0.0,
0.9612,2.6155384958755477,2.6155384958755477,2.6251006260544214,0.0,0.0,0.0,2.6187258726018388,0.0,0.0,0.0,0.0,0.0,0.0,0.0,0.0,0.0,0.0,0.0,0.0,0.0,0.0,
0.9769,2.615831468356986,2.615831468356986,2.625412350616948,0.0,0.0,0.0,2.619025095776973,0.0,0.0,0.0,0.0,0.0,0.0,0.0,0.0,0.0,0.0,0.0,0.0,0.0,0.0,
0.9927,2.6161312497995555,2.6161312497995555,2.6257313300728478,0.0,0.0,0.0,2.6193312765573196,0.0,0.0,0.0,0.0,0.0,0.0,0.0,0.0,0.0,0.0,0.0,0.0,0.0,0.0,
1.0084,2.616434052886028,2.616434052886028,2.6260535350707612,0.0,0.0,0.0,2.619640546947606,0.0,0.0,0.0,0.0,0.0,0.0,0.0,0.0,0.0,0.0,0.0,0.0,0.0,0.0,
1.0242,2.616743742558647,2.616743742558647,2.626383078716265,0.0,0.0,0.0,2.6199568546111864,0.0,0.0,0.0,0.0,0.0,0.0,0.0,0.0,0.0,0.0,0.0,0.0,0.0,0.0,
1.0399,2.6170564063393593,2.6170564063393593,2.6267157982301854,0.0,0.0,0.0,2.620276203636301,0.0,0.0,0.0,0.0,0.0,0.0,0.0,0.0,0.0,0.0,0.0,0.0,0.0,0.0,
1.0557,2.6173760350475197,2.6173760350475197,2.627055940960991,0.0,0.0,0.0,2.62060267035201,0.0,0.0,0.0,0.0,0.0,0.0,0.0,0.0,0.0,0.0,0.0,0.0,0.0,0.0,
1.0715,2.6177006609820697,2.6177006609820697,2.6274014135774637,0.0,0.0,0.0,2.620934245180534,0.0,0.0,0.0,0.0,0.0,0.0,0.0,0.0,0.0,0.0,0.0,0.0,0.0,0.0,
1.0872,2.618028190262261,2.618028190262261,2.6277499881789974,0.0,0.0,0.0,2.6212687895678397,0.0,0.0,0.0,0.0,0.0,0.0,0.0,0.0,0.0,0.0,0.0,0.0,0.0,0.0,
1.103,2.618362803476594,2.618362803476594,2.6281061145456324,0.0,0.0,0.0,2.6216105738329403,0.0,0.0,0.0,0.0,0.0,0.0,0.0,0.0,0.0,0.0,0.0,0.0,0.0,0.0,
1.1187,2.6187002733194884,2.6187002733194884,2.62846529416134,0.0,0.0,0.0,2.6219552802667723,0.0,0.0,0.0,0.0,0.0,0.0,0.0,0.0,0.0,0.0,0.0,0.0,0.0,0.0,
1.1345,2.6190449072801574,2.6190449072801574,2.628832112209377,0.0,0.0,0.0,2.6223073089232307,0.0,0.0,0.0,0.0,0.0,0.0,0.0,0.0,0.0,0.0,0.0,0.0,0.0,0.0,
1.1502,2.6193923514764648,2.6193923514764648,2.629201935142399,0.0,0.0,0.0,2.622662212698443,0.0,0.0,0.0,0.0,0.0,0.0,0.0,0.0,0.0,0.0,0.0,0.0,0.0,0.0,
1.166,2.6197470407314163,2.6197470407314163,2.629579484038017,0.0,0.0,0.0,2.623024521833617,0.0,0.0,0.0,0.0,0.0,0.0,0.0,0.0,0.0,0.0,0.0,0.0,0.0,0.0,
1.1818,2.6201067869471673,2.6201067869471673,2.62996243053143,0.0,0.0,0.0,2.623392001475255,0.0,0.0,0.0,0.0,0.0,0.0,0.0,0.0,0.0,0.0,0.0,0.0,0.0,0.0,
1.1975,2.6204692743409677,2.6204692743409677,2.6303483099823683,0.0,0.0,0.0,2.6237622862214347,0.0,0.0,0.0,0.0,0.0,0.0,0.0,0.0,0.0,0.0,0.0,0.0,0.0,0.0,
1.2133,2.620839129782391,2.620839129782391,2.630742048482827,0.0,0.0,0.0,2.6241401026825364,0.0,0.0,0.0,0.0,0.0,0.0,0.0,0.0,0.0,0.0,0.0,0.0,0.0,0.0,
1.229,2.621211680813171,2.621211680813171,2.631138672501209,0.0,0.0,0.0,2.6245206780425168,0.0,0.0,0.0,0.0,0.0,0.0,0.0,0.0,0.0,0.0,0.0,0.0,0.0,0.0,
1.2448,2.621591682781034,2.621591682781034,2.631543245322108,0.0,0.0,0.0,2.624908870294725,0.0,0.0,0.0,0.0,0.0,0.0,0.0,0.0,0.0,0.0,0.0,0.0,0.0,0.0,
1.2605,2.621974335068718,2.621974335068718,2.6319506565888826,0.0,0.0,0.0,2.6252997755754395,0.0,0.0,0.0,0.0,0.0,0.0,0.0,0.0,0.0,0.0,0.0,0.0,0.0,0.0,
1.2763,2.6223645219842733,2.6223645219842733,2.6323661073260487,0.0,0.0,0.0,2.625698383764865,0.0,0.0,0.0,0.0,0.0,0.0,0.0,0.0,0.0,0.0,0.0,0.0,0.0,0.0,
1.2921,2.622759832364403,2.622759832364403,2.632787031112299,0.0,0.0,0.0,2.626102231947035,0.0,0.0,0.0,0.0,0.0,0.0,0.0,0.0,0.0,0.0,0.0,0.0,0.0,0.0,
1.3078,2.623157725685051,2.623157725685051,2.633210723350054,0.0,0.0,0.0,2.626508724906719,0.0,0.0,0.0,0.0,0.0,0.0,0.0,0.0,0.0,0.0,0.0,0.0,0.0,0.0,
1.3236,2.6235632808365943,2.6235632808365943,2.63364259295645,0.0,0.0,0.0,2.626923051543213,0.0,0.0,0.0,0.0,0.0,0.0,0.0,0.0,0.0,0.0,0.0,0.0,0.0,0.0,
1.3393,2.6239713744526063,2.6239713744526063,2.6340771848581945,0.0,0.0,0.0,2.6273399779211357,0.0,0.0,0.0,0.0,0.0,0.0,0.0,0.0,0.0,0.0,0.0,0.0,0.0,0.0,
1.3551,2.624387215653276,2.624387215653276,2.634520047154001,0.0,0.0,0.0,2.6277648261535176,0.0,0.0,0.0,0.0,0.0,0.0,0.0,0.0,0.0,0.0,0.0,0.0,0.0,0.0,
1.3708,2.6248055511579524,2.6248055511579524,2.6349655859541383,0.0,0.0,0.0,2.6281922294233477,0.0,0.0,0.0,0.0,0.0,0.0,0.0,0.0,0.0,0.0,0.0,0.0,0.0,0.0,
1.3866,2.625231720849835,2.625231720849835,2.6354194891446503,0.0,0.0,0.0,2.6286276436147733,0.0,0.0,0.0,0.0,0.0,0.0,0.0,0.0,0.0,0.0,0.0,0.0,0.0,0.0,
1.4023,2.625660341000124,2.625660341000124,2.6358760234132474,0.0,0.0,0.0,2.6290655684711655,0.0,0.0,0.0,0.0,0.0,0.0,0.0,0.0,0.0,0.0,0.0,0.0,0.0,0.0,
1.4181,2.6260968828031253,2.6260968828031253,2.6363410170562203,0.0,0.0,0.0,2.6295115942208236,0.0,0.0,0.0,0.0,0.0,0.0,0.0,0.0,0.0,0.0,0.0,0.0,0.0,0.0,
1.4339,2.6265386439258096,2.6265386439258096,2.63681159262158,0.0,0.0,0.0,2.6299629601577332,0.0,0.0,0.0,0.0,0.0,0.0,0.0,0.0,0.0,0.0,0.0,0.0,0.0,0.0,
1.4496,2.626982790259082,2.626982790259082,2.637284731738376,0.0,0.0,0.0,2.63041677075218,0.0,0.0,0.0,0.0,0.0,0.0,0.0,0.0,0.0,0.0,0.0,0.0,0.0,0.0,
1.4654,2.627434991234881,2.627434991234881,2.63776647474918,0.0,0.0,0.0,2.6308788190729806,0.0,0.0,0.0,0.0,0.0,0.0,0.0,0.0,0.0,0.0,0.0,0.0,0.0,0.0,
1.4811,2.627889534361066,2.627889534361066,2.638250736797345,0.0,0.0,0.0,2.6313432685064924,0.0,0.0,0.0,0.0,0.0,0.0,0.0,0.0,0.0,0.0,0.0,0.0,0.0,0.0,
1.4969,2.628352221818389,2.628352221818389,2.6387437002705036,0.0,0.0,0.0,2.6318160479690937,0.0,0.0,0.0,0.0,0.0,0.0,0.0,0.0,0.0,0.0,0.0,0.0,0.0,0.0,
1.5126,2.6288172086792896,2.6288172086792896,2.6392391386318734,0.0,0.0,0.0,2.632291185330151,0.0,0.0,0.0,0.0,0.0,0.0,0.0,0.0,0.0,0.0,0.0,0.0,0.0,0.0,
1.5284,2.6292904304751534,2.6292904304751534,2.6397433769988776,0.0,0.0,0.0,2.6327747459830615,0.0,0.0,0.0,0.0,0.0,0.0,0.0,0.0,0.0,0.0,0.0,0.0,0.0,0.0,
1.5442,2.6297689545739225,2.6297689545739225,2.640253291657152,0.0,0.0,0.0,2.6332637336016655,0.0,0.0,0.0,0.0,0.0,0.0,0.0,0.0,0.0,0.0,0.0,0.0,0.0,0.0,
1.5599,2.6302497144766357,2.6302497144766357,2.6407656155962176,0.0,0.0,0.0,2.6337550148498297,0.0,0.0,0.0,0.0,0.0,0.0,0.0,0.0,0.0,0.0,0.0,0.0,0.0,0.0,
1.5757,2.6307388471171675,2.6307388471171675,2.641286889580682,0.0,0.0,0.0,2.6342548612716725,0.0,0.0,0.0,0.0,0.0,0.0,0.0,0.0,0.0,0.0,0.0,0.0,0.0,0.0,
1.5914,2.6312301735986514,2.6312301735986514,2.6418105296119934,0.0,0.0,0.0,2.634756958936432,0.0,0.0,0.0,0.0,0.0,0.0,0.0,0.0,0.0,0.0,0.0,0.0,0.0,0.0,
1.6072,2.6317299657805666,2.6317299657805666,2.642343220977547,0.0,0.0,0.0,2.6352677175128933,0.0,0.0,0.0,0.0,0.0,0.0,0.0,0.0,0.0,0.0,0.0,0.0,0.0,0.0,
1.6229,2.632231910154064,2.632231910154064,2.6428782355232485,0.0,0.0,0.0,2.6357806852771257,0.0,0.0,0.0,0.0,0.0,0.0,0.0,0.0,0.0,0.0,0.0,0.0,0.0,0.0,
1.6387,2.6327424141621627,2.6327424141621627,2.643422403808791,0.0,0.0,0.0,2.6363024107110387,0.0,0.0,0.0,0.0,0.0,0.0,0.0,0.0,0.0,0.0,0.0,0.0,0.0,0.0,
1.6545,2.633258311184421,2.633258311184421,2.6439723516651394,0.0,0.0,0.0,2.6368296580113273,0.0,0.0,0.0,0.0,0.0,0.0,0.0,0.0,0.0,0.0,0.0,0.0,0.0,0.0,
1.6702,2.6337762984480486,2.6337762984480486,2.644524559025699,0.0,0.0,0.0,2.6373590519739323,0.0,0.0,0.0,0.0,0.0,0.0,0.0,0.0,0.0,0.0,0.0,0.0,0.0,0.0,
1.686,2.6343029882585434,2.6343029882585434,2.6450860760387576,0.0,0.0,0.0,2.637897350851948,0.0,0.0,0.0,0.0,0.0,0.0,0.0,0.0,0.0,0.0,0.0,0.0,0.0,0.0,
1.7017,2.634831727447649,2.634831727447649,2.6456498106132065,0.0,0.0,0.0,2.6384377551695013,0.0,0.0,0.0,0.0,0.0,0.0,0.0,0.0,0.0,0.0,0.0,0.0,0.0,0.0,
1.7175,2.6353692656230887,2.6353692656230887,2.646222960128647,0.0,0.0,0.0,2.638987163791608,0.0,0.0,0.0,0.0,0.0,0.0,0.0,0.0,0.0,0.0,0.0,0.0,0.0,0.0,
1.7332,2.6359088126300323,2.6359088126300323,2.6467982856345724,0.0,0.0,0.0,2.639538636964879,0.0,0.0,0.0,0.0,0.0,0.0,0.0,0.0,0.0,0.0,0.0,0.0,0.0,0.0,
1.749,2.636457256095196,2.636457256095196,2.6473831325594035,0.0,0.0,0.0,2.640099214916599,0.0,0.0,0.0,0.0,0.0,0.0,0.0,0.0,0.0,0.0,0.0,0.0,0.0,0.0,
1.7648,2.6370111913810206,2.6370111913810206,2.6479738716962995,0.0,0.0,0.0,2.64066541815278,0.0,0.0,0.0,0.0,0.0,0.0,0.0,0.0,0.0,0.0,0.0,0.0,0.0,0.0,
1.7805,2.6375670752083527,2.6375670752083527,2.6485667251037412,0.0,0.0,0.0,2.641233625173482,0.0,0.0,0.0,0.0,0.0,0.0,0.0,0.0,0.0,0.0,0.0,0.0,0.0,0.0,
1.7963,2.6381320038356284,2.6381320038356284,2.6491692620981064,0.0,0.0,0.0,2.641811089923121,0.0,0.0,0.0,0.0,0.0,0.0,0.0,0.0,0.0,0.0,0.0,0.0,0.0,0.0,
1.812,2.6386988412514754,2.6386988412514754,2.6497738727307496,0.0,0.0,0.0,2.6423905184112333,0.0,0.0,0.0,0.0,0.0,0.0,0.0,0.0,0.0,0.0,0.0,0.0,0.0,0.0,
1.8278,2.639274823602703,2.639274823602703,2.650388276500657,0.0,0.0,0.0,2.6429793079020207,0.0,0.0,0.0,0.0,0.0,0.0,0.0,0.0,0.0,0.0,0.0,0.0,0.0,0.0,
1.8435,2.6398526753092346,2.6398526753092346,2.6510047136556656,0.0,0.0,0.0,2.6435700214247118,0.0,0.0,0.0,0.0,0.0,0.0,0.0,0.0,0.0,0.0,0.0,0.0,0.0,0.0,
1.8593,2.64043977318481,2.64043977318481,2.651631054766624,0.0,0.0,0.0,2.644170200378748,0.0,0.0,0.0,0.0,0.0,0.0,0.0,0.0,0.0,0.0,0.0,0.0,0.0,0.0,
1.875,2.6410287013036178,2.6410287013036178,2.6522593893911726,0.0,0.0,0.0,2.6447722639994695,0.0,0.0,0.0,0.0,0.0,0.0,0.0,0.0,0.0,0.0,0.0,0.0,0.0,0.0,
1.8908,2.6416269779430794,2.6416269779430794,2.652897740082473,0.0,0.0,0.0,2.6453838986562106,0.0,0.0,0.0,0.0,0.0,0.0,0.0,0.0,0.0,0.0,0.0,0.0,0.0,0.0,
1.9066,2.6422308859817933,2.6422308859817933,2.653542142364299,0.0,0.0,0.0,2.646001304775962,0.0,0.0,0.0,0.0,0.0,0.0,0.0,0.0,0.0,0.0,0.0,0.0,0.0,0.0,
1.9223,2.6428365661406192,2.6428365661406192,2.6541884790120505,0.0,0.0,0.0,2.6466205370977627,0.0,0.0,0.0,0.0,0.0,0.0,0.0,0.0,0.0,0.0,0.0,0.0,0.0,0.0,
1.9381,2.6434517506541786,2.6434517506541786,2.654845002551113,0.0,0.0,0.0,2.64724950128649,0.0,0.0,0.0,0.0,0.0,0.0,0.0,0.0,0.0,0.0,0.0,0.0,0.0,0.0,
1.9538,2.6440686689871633,2.6440686689871633,2.65550342155199,0.0,0.0,0.0,2.647880253175439,0.0,0.0,0.0,0.0,0.0,0.0,0.0,0.0,0.0,0.0,0.0,0.0,0.0,0.0,
1.9696,2.644695196912757,2.644695196912757,2.6561721428952643,0.0,0.0,0.0,2.6485208455735925,0.0,0.0,0.0,0.0,0.0,0.0,0.0,0.0,0.0,0.0,0.0,0.0,0.0,0.0,
1.9853,2.645323420685063,2.645323420685063,2.6568427211886867,0.0,0.0,0.0,2.6491631875196044,0.0,0.0,0.0,0.0,0.0,0.0,0.0,0.0,0.0,0.0,0.0,0.0,0.0,0.0,
2.0011,2.64596136047871,2.64596136047871,2.6575237186555825,0.0,0.0,0.0,2.6498154798710005,0.0,0.0,0.0,0.0,0.0,0.0,0.0,0.0,0.0,0.0,0.0,0.0,0.0,0.0,
2.0169,2.646605050583805,2.646605050583805,2.6582109037292456,0.0,0.0,0.0,2.6504736682989516,0.0,0.0,0.0,0.0,0.0,0.0,0.0,0.0,0.0,0.0,0.0,0.0,0.0,0.0,
2.0326,2.6472503801374527,2.6472503801374527,2.6588998886695476,0.0,0.0,0.0,2.651133549648151,0.0,0.0,0.0,0.0,0.0,0.0,0.0,0.0,0.0,0.0,0.0,0.0,0.0,0.0,
2.0484,2.6479055878092663,2.6479055878092663,2.6595994708655346,0.0,0.0,0.0,2.6518035488280223,0.0,0.0,0.0,0.0,0.0,0.0,0.0,0.0,0.0,0.0,0.0,0.0,0.0,0.0,
