energies(eV),real_xx,real_yy,real_zz,real_xy,real_yz,real_xz,real_ave,imag_xx,imag_yy,imag_zz,imag_xy,imag_yz,imag_xz,imag_ave,absorption_xx,absorption_yy,absorption_zz,absorption_xy,absorption_yz,absorption_xz,absorption_ave,band_gap
0.0,4.17719661588583,4.17719661588583,4.17719661588583,0.0,0.0,0.0,4.17719661588583,0.0,0.0,0.0,0.0,0.0,0.0,0.0,0.0,0.0,0.0,0.0,0.0,0.0,0.0,4.5445
0.0188,4.177211421546606,4.177211421546606,4.177211421546606,0.0,0.0,0.0,4.177211421546606,0.0,0.0,0.0,0.0,0.0,0.0,0.0,0.0,0.0,0.0,0.0,0.0,0.0,0.0,
0.0375,4.177255525279177,4.177255525279177,4.177255525279177,0.0,0.0,0.0,4.177255525279177,0.0,0.0,0.0,0.0,0.0,0.0,0.0,0.0,0.0,0.0,0.0,0.0,0.0,0.0,
0.0563,4.1773294028431565,4.1773294028431565,4.1773294028431565,0.0,0.0,0.0,4.1773294028431565,0.0,0.0,0.0,0.0,0.0,0.0,0.0,0.0,0.0,0.0,0.0,0.0,0.0,0.0,
0.0751,4.17743290394798,4.17743290394798,4.17743290394798,0.0,0.0,0.0,4.17743290394798,0.0,0.0,0.0,0.0,0.0,0.0,0.0,0.0,0.0,0.0,0.0,0.0,0.0,0.0,
0.0938,4.177565251547563,4.177565251547563,4.177565251547563,0.0,0.0,0.0,4.177565251547563,0.0,0.0,0.0,0.0,0.0,0.0,0.0,0.0,0.0,0.0,0.0,0.0,0.0,0.0,
0.1126,4.177727873320368,4.177727873320368,4.177727873320368,0.0,0.0,0.0,4.177727873320368,0.0,0.0,0.0,0.0,0.0,0.0,0.0,0.0,0.0,0.0,0.0,0.0,0.0,0.0,
0.1314,4.177920155323389,4.177920155323389,4.177920155323389,0.0,0.0,0.0,4.177920155323389,0.0,0.0,0.0,0.0,0.0,0.0,0.0,0.0,0.0,0.0,0.0,0.0,0.0,0.0,
0.1501,4.178140856088782,4.178140856088782,4.178140856088782,0.0,0.0,0.0,4.178140856088782,0.0,0.0,0.0,0.0,0.0,0.0,0.0,0.0,0.0,0.0,0.0,0.0,0.0,0.0,
0.1689,4.178392356414136,4.178392356414136,4.178392356414136,0.0,0.0,0.0,4.178392356414136,0.0,0.0,0.0,0.0,0.0,0.0,0.0,0.0,0.0,0.0,0.0,0.0,0.0,0.0,
0.1877,4.178673578222986,4.178673578222986,4.178673578222986,0.0,0.0,0.0,4.178673578222986,0.0,0.0,0.0,0.0,0.0,0.0,0.0,0.0,0.0,0.0,0.0,0.0,0.0,0.0,
0.2064,4.17898281462993,4.17898281462993,4.17898281462993,0.0,0.0,0.0,4.17898281462993,0.0,0.0,0.0,0.0,0.0,0.0,0.0,0.0,0.0,0.0,0.0,0.0,0.0,0.0,
0.2252,4.179323401555328,4.179323401555328,4.179323401555328,0.0,0.0,0.0,4.179323401555328,0.0,0.0,0.0,0.0,0.0,0.0,0.0,0.0,0.0,0.0,0.0,0.0,0.0,0.0,
0.244,4.17969379593873,4.17969379593873,4.17969379593873,0.0,0.0,0.0,4.17969379593873,0.0,0.0,0.0,0.0,0.0,0.0,0.0,0.0,0.0,0.0,0.0,0.0,0.0,0.0,
0.2627,4.180091824107992,4.180091824107992,4.180091824107992,0.0,0.0,0.0,4.180091824107992,0.0,0.0,0.0,0.0,0.0,0.0,0.0,0.0,0.0,0.0,0.0,0.0,0.0,0.0,
0.2815,4.180521779919251,4.180521779919251,4.180521779919251,0.0,0.0,0.0,4.180521779919251,0.0,0.0,0.0,0.0,0.0,0.0,0.0,0.0,0.0,0.0,0.0,0.0,0.0,0.0,
0.3003,4.180981654105217,4.180981654105217,4.180981654105217,0.0,0.0,0.0,4.180981654105217,0.0,0.0,0.0,0.0,0.0,0.0,0.0,0.0,0.0,0.0,0.0,0.0,0.0,0.0,
0.319,4.181468804461784,4.181468804461784,4.181468804461784,0.0,0.0,0.0,4.181468804461784,0.0,0.0,0.0,0.0,0.0,0.0,0.0,0.0,0.0,0.0,0.0,0.0,0.0,0.0,
0.3378,4.1819884864099635,4.1819884864099635,4.1819884864099635,0.0,0.0,0.0,4.1819884864099635,0.0,0.0,0.0,0.0,0.0,0.0,0.0,0.0,0.0,0.0,0.0,0.0,0.0,0.0,
0.3566,4.18253822287835,4.18253822287835,4.18253822287835,0.0,0.0,0.0,4.18253822287835,0.0,0.0,0.0,0.0,0.0,0.0,0.0,0.0,0.0,0.0,0.0,0.0,0.0,0.0,
0.3753,4.183114901004727,4.183114901004727,4.183114901004727,0.0,0.0,0.0,4.183114901004727,0.0,0.0,0.0,0.0,0.0,0.0,0.0,0.0,0.0,0.0,0.0,0.0,0.0,0.0,
0.3941,4.183724742230158,4.183724742230158,4.183724742230158,0.0,0.0,0.0,4.183724742230158,0.0,0.0,0.0,0.0,0.0,0.0,0.0,0.0,0.0,0.0,0.0,0.0,0.0,0.0,
0.4129,4.184364799703222,4.184364799703222,4.184364799703222,0.0,0.0,0.0,4.184364799703222,0.0,0.0,0.0,0.0,0.0,0.0,0.0,0.0,0.0,0.0,0.0,0.0,0.0,0.0,
0.4316,4.18503148739163,4.18503148739163,4.18503148739163,0.0,0.0,0.0,4.18503148739163,0.0,0.0,0.0,0.0,0.0,0.0,0.0,0.0,0.0,0.0,0.0,0.0,0.0,0.0,
0.4504,4.1857319980495955,4.1857319980495955,4.1857319980495955,0.0,0.0,0.0,4.1857319980495955,0.0,0.0,0.0,0.0,0.0,0.0,0.0,0.0,0.0,0.0,0.0,0.0,0.0,0.0,
0.4692,4.186462912686309,4.186462912686309,4.186462912686309,0.0,0.0,0.0,4.186462912686309,0.0,0.0,0.0,0.0,0.0,0.0,0.0,0.0,0.0,0.0,0.0,0.0,0.0,0.0,
0.4879,4.187220169195524,4.187220169195524,4.187220169195524,0.0,0.0,0.0,4.187220169195524,0.0,0.0,0.0,0.0,0.0,0.0,0.0,0.0,0.0,0.0,0.0,0.0,0.0,0.0,
0.5067,4.188011937789595,4.188011937789595,4.188011937789595,0.0,0.0,0.0,4.188011937789595,0.0,0.0,0.0,0.0,0.0,0.0,0.0,0.0,0.0,0.0,0.0,0.0,0.0,0.0,
0.5255,4.188834324590143,4.188834324590143,4.188834324590143,0.0,0.0,0.0,4.188834324590143,0.0,0.0,0.0,0.0,0.0,0.0,0.0,0.0,0.0,0.0,0.0,0.0,0.0,0.0,
0.5442,4.189682788113527,4.189682788113527,4.189682788113527,0.0,0.0,0.0,4.189682788113527,0.0,0.0,0.0,0.0,0.0,0.0,0.0,0.0,0.0,0.0,0.0,0.0,0.0,0.0,
0.563,4.190566483044277,4.190566483044277,4.190566483044277,0.0,0.0,0.0,4.190566483044277,0.0,0.0,0.0,0.0,0.0,0.0,0.0,0.0,0.0,0.0,0.0,0.0,0.0,0.0,
0.5818,4.191481037472116,4.191481037472116,4.191481037472116,0.0,0.0,0.0,4.191481037472116,0.0,0.0,0.0,0.0,0.0,0.0,0.0,0.0,0.0,0.0,0.0,0.0,0.0,0.0,
0.6005,4.192421426825327,4.192421426825327,4.192421426825327,0.0,0.0,0.0,4.192421426825327,0.0,0.0,0.0,0.0,0.0,0.0,0.0,0.0,0.0,0.0,0.0,0.0,0.0,0.0,
0.6193,4.193397798162326,4.193397798162326,4.193397798162326,0.0,0.0,0.0,4.193397798162326,0.0,0.0,0.0,0.0,0.0,0.0,0.0,0.0,0.0,0.0,0.0,0.0,0.0,0.0,
0.6381,4.194405297993167,4.194405297993167,4.194405297993167,0.0,0.0,0.0,4.194405297993167,0.0,0.0,0.0,0.0,0.0,0.0,0.0,0.0,0.0,0.0,0.0,0.0,0.0,0.0,
0.6568,4.195438414530667,4.195438414530667,4.195438414530667,0.0,0.0,0.0,4.195438414530667,0.0,0.0,0.0,0.0,0.0,0.0,0.0,0.0,0.0,0.0,0.0,0.0,0.0,0.0,
0.6756,4.1965082960180595,4.1965082960180595,4.1965082960180595,0.0,0.0,0.0,4.1965082960180595,0.0,0.0,0.0,0.0,0.0,0.0,0.0,0.0,0.0,0.0,0.0,0.0,0.0,0.0,
0.6944,4.197609603425969,4.197609603425969,4.197609603425969,0.0,0.0,0.0,4.197609603425969,0.0,0.0,0.0,0.0,0.0,0.0,0.0,0.0,0.0,0.0,0.0,0.0,0.0,0.0,
0.7131,4.198736333196758,4.198736333196758,4.198736333196758,0.0,0.0,0.0,4.198736333196758,0.0,0.0,0.0,0.0,0.0,0.0,0.0,0.0,0.0,0.0,0.0,0.0,0.0,0.0,
0.7319,4.1999006445037,4.1999006445037,4.1999006445037,0.0,0.0,0.0,4.1999006445037,0.0,0.0,0.0,0.0,0.0,0.0,0.0,0.0,0.0,0.0,0.0,0.0,0.0,0.0,
0.7506,4.201090262152475,4.201090262152475,4.201090262152475,0.0,0.0,0.0,4.201090262152475,0.0,0.0,0.0,0.0,0.0,0.0,0.0,0.0,0.0,0.0,0.0,0.0,0.0,0.0,
0.7694,4.202318024551149,4.202318024551149,4.202318024551149,0.0,0.0,0.0,4.202318024551149,0.0,0.0,0.0,0.0,0.0,0.0,0.0,0.0,0.0,0.0,0.0,0.0,0.0,0.0,
0.7882,4.203577773779619,4.203577773779619,4.203577773779619,0.0,0.0,0.0,4.203577773779619,0.0,0.0,0.0,0.0,0.0,0.0,0.0,0.0,0.0,0.0,0.0,0.0,0.0,0.0,
0.8069,4.204862675641382,4.204862675641382,4.204862675641382,0.0,0.0,0.0,4.204862675641382,0.0,0.0,0.0,0.0,0.0,0.0,0.0,0.0,0.0,0.0,0.0,0.0,0.0,0.0,
0.8257,4.2061865978600865,4.2061865978600865,4.2061865978600865,0.0,0.0,0.0,4.2061865978600865,0.0,0.0,0.0,0.0,0.0,0.0,0.0,0.0,0.0,0.0,0.0,0.0,0.0,0.0,
0.8445,4.207542884324765,4.207542884324765,4.207542884324765,0.0,0.0,0.0,4.207542884324765,0.0,0.0,0.0,0.0,0.0,0.0,0.0,0.0,0.0,0.0,0.0,0.0,0.0,0.0,
0.8632,4.208924194744987,4.208924194744987,4.208924194744987,0.0,0.0,0.0,4.208924194744987,0.0,0.0,0.0,0.0,0.0,0.0,0.0,0.0,0.0,0.0,0.0,0.0,0.0,0.0,
0.882,4.210345438536759,4.210345438536759,4.210345438536759,0.0,0.0,0.0,4.210345438536759,0.0,0.0,0.0,0.0,0.0,0.0,0.0,0.0,0.0,0.0,0.0,0.0,0.0,0.0,
0.9008,4.211799455833237,4.211799455833237,4.211799455833237,0.0,0.0,0.0,4.211799455833237,0.0,0.0,0.0,0.0,0.0,0.0,0.0,0.0,0.0,0.0,0.0,0.0,0.0,0.0,
0.9195,4.2132783940200795,4.2132783940200795,4.2132783940200795,0.0,0.0,0.0,4.2132783940200795,0.0,0.0,0.0,0.0,0.0,0.0,0.0,0.0,0.0,0.0,0.0,0.0,0.0,0.0,
0.9383,4.21479821763139,4.21479821763139,4.21479821763139,0.0,0.0,0.0,4.21479821763139,0.0,0.0,0.0,0.0,0.0,0.0,0.0,0.0,0.0,0.0,0.0,0.0,0.0,0.0,
0.9571,4.216351257010855,4.216351257010855,4.216351257010855,0.0,0.0,0.0,4.216351257010855,0.0,0.0,0.0,0.0,0.0,0.0,0.0,0.0,0.0,0.0,0.0,0.0,0.0,0.0,
0.9758,4.2179291404975645,4.2179291404975645,4.2179291404975645,0.0,0.0,0.0,4.2179291404975645,0.0,0.0,0.0,0.0,0.0,0.0,0.0,0.0,0.0,0.0,0.0,0.0,0.0,0.0,
0.9946,4.219548902258444,4.219548902258444,4.219548902258444,0.0,0.0,0.0,4.219548902258444,0.0,0.0,0.0,0.0,0.0,0.0,0.0,0.0,0.0,0.0,0.0,0.0,0.0,0.0,
1.0134,4.221202356329574,4.221202356329574,4.221202356329574,0.0,0.0,0.0,4.221202356329574,0.0,0.0,0.0,0.0,0.0,0.0,0.0,0.0,0.0,0.0,0.0,0.0,0.0,0.0,
1.0321,4.222880604769987,4.222880604769987,4.222880604769987,0.0,0.0,0.0,4.222880604769987,0.0,0.0,0.0,0.0,0.0,0.0,0.0,0.0,0.0,0.0,0.0,0.0,0.0,0.0,
1.0509,4.224601767026057,4.224601767026057,4.224601767026057,0.0,0.0,0.0,4.224601767026057,0.0,0.0,0.0,0.0,0.0,0.0,0.0,0.0,0.0,0.0,0.0,0.0,0.0,0.0,
1.0697,4.226357133806271,4.226357133806271,4.226357133806271,0.0,0.0,0.0,4.226357133806271,0.0,0.0,0.0,0.0,0.0,0.0,0.0,0.0,0.0,0.0,0.0,0.0,0.0,0.0,
1.0884,4.228137273126031,4.228137273126031,4.228137273126031,0.0,0.0,0.0,4.228137273126031,0.0,0.0,0.0,0.0,0.0,0.0,0.0,0.0,0.0,0.0,0.0,0.0,0.0,0.0,
1.1072,4.229961406536889,4.229961406536889,4.229961406536889,0.0,0.0,0.0,4.229961406536889,0.0,0.0,0.0,0.0,0.0,0.0,0.0,0.0,0.0,0.0,0.0,0.0,0.0,0.0,
1.126,4.231820293879329,4.231820293879329,4.231820293879329,0.0,0.0,0.0,4.231820293879329,0.0,0.0,0.0,0.0,0.0,0.0,0.0,0.0,0.0,0.0,0.0,0.0,0.0,0.0,
1.1447,4.233703960809526,4.233703960809526,4.233703960809526,0.0,0.0,0.0,4.233703960809526,0.0,0.0,0.0,0.0,0.0,0.0,0.0,0.0,0.0,0.0,0.0,0.0,0.0,0.0,
1.1635,4.235632749040944,4.235632749040944,4.235632749040944,0.0,0.0,0.0,4.235632749040944,0.0,0.0,0.0,0.0,0.0,0.0,0.0,0.0,0.0,0.0,0.0,0.0,0.0,0.0,
1.1823,4.2375968794646734,4.2375968794646734,4.2375968794646734,0.0,0.0,0.0,4.2375968794646734,0.0,0.0,0.0,0.0,0.0,0.0,0.0,0.0,0.0,0.0,0.0,0.0,0.0,0.0,
1.201,4.2395858264868895,4.2395858264868895,4.2395858264868895,0.0,0.0,0.0,4.2395858264868895,0.0,0.0,0.0,0.0,0.0,0.0,0.0,0.0,0.0,0.0,0.0,0.0,0.0,0.0,
1.2198,4.241621071327322,4.241621071327322,4.241621071327322,0.0,0.0,0.0,4.241621071327322,0.0,0.0,0.0,0.0,0.0,0.0,0.0,0.0,0.0,0.0,0.0,0.0,0.0,0.0,
1.2386,4.243692287282744,4.243692287282744,4.243692287282744,0.0,0.0,0.0,4.243692287282744,0.0,0.0,0.0,0.0,0.0,0.0,0.0,0.0,0.0,0.0,0.0,0.0,0.0,0.0,
1.2573,4.245788388018283,4.245788388018283,4.245788388018283,0.0,0.0,0.0,4.245788388018283,0.0,0.0,0.0,0.0,0.0,0.0,0.0,0.0,0.0,0.0,0.0,0.0,0.0,0.0,
1.2761,4.247932014953445,4.247932014953445,4.247932014953445,0.0,0.0,0.0,4.247932014953445,0.0,0.0,0.0,0.0,0.0,0.0,0.0,0.0,0.0,0.0,0.0,0.0,0.0,0.0,
1.2949,4.250112284558236,4.250112284558236,4.250112284558236,0.0,0.0,0.0,4.250112284558236,0.0,0.0,0.0,0.0,0.0,0.0,0.0,0.0,0.0,0.0,0.0,0.0,0.0,0.0,
1.3136,4.252317539637765,4.252317539637765,4.252317539637765,0.0,0.0,0.0,4.252317539637765,0.0,0.0,0.0,0.0,0.0,0.0,0.0,0.0,0.0,0.0,0.0,0.0,0.0,0.0,
1.3324,4.254571603921233,4.254571603921233,4.254571603921233,0.0,0.0,0.0,4.254571603921233,0.0,0.0,0.0,0.0,0.0,0.0,0.0,0.0,0.0,0.0,0.0,0.0,0.0,0.0,
1.3512,4.256863027205716,4.256863027205716,4.256863027205716,0.0,0.0,0.0,4.256863027205716,0.0,0.0,0.0,0.0,0.0,0.0,0.0,0.0,0.0,0.0,0.0,0.0,0.0,0.0,
1.3699,4.259179570659679,4.259179570659679,4.259179570659679,0.0,0.0,0.0,4.259179570659679,0.0,0.0,0.0,0.0,0.0,0.0,0.0,0.0,0.0,0.0,0.0,0.0,0.0,0.0,
1.3887,4.261546263921716,4.261546263921716,4.261546263921716,0.0,0.0,0.0,4.261546263921716,0.0,0.0,0.0,0.0,0.0,0.0,0.0,0.0,0.0,0.0,0.0,0.0,0.0,0.0,
1.4075,4.26395107962771,4.26395107962771,4.26395107962771,0.0,0.0,0.0,4.26395107962771,0.0,0.0,0.0,0.0,0.0,0.0,0.0,0.0,0.0,0.0,0.0,0.0,0.0,0.0,
1.4262,4.266381185842636,4.266381185842636,4.266381185842636,0.0,0.0,0.0,4.266381185842636,0.0,0.0,0.0,0.0,0.0,0.0,0.0,0.0,0.0,0.0,0.0,0.0,0.0,0.0,
1.445,4.268862843284361,4.268862843284361,4.268862843284361,0.0,0.0,0.0,4.268862843284361,0.0,0.0,0.0,0.0,0.0,0.0,0.0,0.0,0.0,0.0,0.0,0.0,0.0,0.0,
1.4638,4.271383436265939,4.271383436265939,4.271383436265939,0.0,0.0,0.0,4.271383436265939,0.0,0.0,0.0,0.0,0.0,0.0,0.0,0.0,0.0,0.0,0.0,0.0,0.0,0.0,
1.4825,4.273929527557322,4.273929527557322,4.273929527557322,0.0,0.0,0.0,4.273929527557322,0.0,0.0,0.0,0.0,0.0,0.0,0.0,0.0,0.0,0.0,0.0,0.0,0.0,0.0,
1.5013,4.276528635782322,4.276528635782322,4.276528635782322,0.0,0.0,0.0,4.276528635782322,0.0,0.0,0.0,0.0,0.0,0.0,0.0,0.0,0.0,0.0,0.0,0.0,0.0,0.0,
1.5201,4.279167545063438,4.279167545063438,4.279167545063438,0.0,0.0,0.0,4.279167545063438,0.0,0.0,0.0,0.0,0.0,0.0,0.0,0.0,0.0,0.0,0.0,0.0,0.0,0.0,
1.5388,4.281832199920849,4.281832199920849,4.281832199920849,0.0,0.0,0.0,4.281832199920849,0.0,0.0,0.0,0.0,0.0,0.0,0.0,0.0,0.0,0.0,0.0,0.0,0.0,0.0,
1.5576,4.284551405463652,4.284551405463652,4.284551405463652,0.0,0.0,0.0,4.284551405463652,0.0,0.0,0.0,0.0,0.0,0.0,0.0,0.0,0.0,0.0,0.0,0.0,0.0,0.0,
1.5764,4.2873113330131005,4.2873113330131005,4.2873113330131005,0.0,0.0,0.0,4.2873113330131005,0.0,0.0,0.0,0.0,0.0,0.0,0.0,0.0,0.0,0.0,0.0,0.0,0.0,0.0,
1.5951,4.290097295081124,4.290097295081124,4.290097295081124,0.0,0.0,0.0,4.290097295081124,0.0,0.0,0.0,0.0,0.0,0.0,0.0,0.0,0.0,0.0,0.0,0.0,0.0,0.0,
1.6139,4.292939413697338,4.292939413697338,4.292939413697338,0.0,0.0,0.0,4.292939413697338,0.0,0.0,0.0,0.0,0.0,0.0,0.0,0.0,0.0,0.0,0.0,0.0,0.0,0.0,
1.6327,4.295823233989593,4.295823233989593,4.295823233989593,0.0,0.0,0.0,4.295823233989593,0.0,0.0,0.0,0.0,0.0,0.0,0.0,0.0,0.0,0.0,0.0,0.0,0.0,0.0,
1.6514,4.298733421854276,4.298733421854276,4.298733421854276,0.0,0.0,0.0,4.298733421854276,0.0,0.0,0.0,0.0,0.0,0.0,0.0,0.0,0.0,0.0,0.0,0.0,0.0,0.0,
1.6702,4.3017014486467176,4.3017014486467176,4.3017014486467176,0.0,0.0,0.0,4.3017014486467176,0.0,0.0,0.0,0.0,0.0,0.0,0.0,0.0,0.0,0.0,0.0,0.0,0.0,0.0,
1.689,4.304712219084869,4.304712219084869,4.304712219084869,0.0,0.0,0.0,4.304712219084869,0.0,0.0,0.0,0.0,0.0,0.0,0.0,0.0,0.0,0.0,0.0,0.0,0.0,0.0,
1.7077,4.307749736945389,4.307749736945389,4.307749736945389,0.0,0.0,0.0,4.307749736945389,0.0,0.0,0.0,0.0,0.0,0.0,0.0,0.0,0.0,0.0,0.0,0.0,0.0,0.0,
1.7265,4.310846857408039,4.310846857408039,4.310846857408039,0.0,0.0,0.0,4.310846857408039,0.0,0.0,0.0,0.0,0.0,0.0,0.0,0.0,0.0,0.0,0.0,0.0,0.0,0.0,
1.7453,4.313987829694584,4.313987829694584,4.313987829694584,0.0,0.0,0.0,4.313987829694584,0.0,0.0,0.0,0.0,0.0,0.0,0.0,0.0,0.0,0.0,0.0,0.0,0.0,0.0,
1.764,4.317155979008199,4.317155979008199,4.317155979008199,0.0,0.0,0.0,4.317155979008199,0.0,0.0,0.0,0.0,0.0,0.0,0.0,0.0,0.0,0.0,0.0,0.0,0.0,0.0,
1.7828,4.320385581081318,4.320385581081318,4.320385581081318,0.0,0.0,0.0,4.320385581081318,0.0,0.0,0.0,0.0,0.0,0.0,0.0,0.0,0.0,0.0,0.0,0.0,0.0,0.0,
1.8016,4.323660213633184,4.323660213633184,4.323660213633184,0.0,0.0,0.0,4.323660213633184,0.0,0.0,0.0,0.0,0.0,0.0,0.0,0.0,0.0,0.0,0.0,0.0,0.0,0.0,
1.8203,4.326962505833498,4.326962505833498,4.326962505833498,0.0,0.0,0.0,4.326962505833498,0.0,0.0,0.0,0.0,0.0,0.0,0.0,0.0,0.0,0.0,0.0,0.0,0.0,0.0,
1.8391,4.330328193073587,4.330328193073587,4.330328193073587,0.0,0.0,0.0,4.330328193073587,0.0,0.0,0.0,0.0,0.0,0.0,0.0,0.0,0.0,0.0,0.0,0.0,0.0,0.0,
1.8579,4.333740164590058,4.333740164590058,4.333740164590058,0.0,0.0,0.0,4.333740164590058,0.0,0.0,0.0,0.0,0.0,0.0,0.0,0.0,0.0,0.0,0.0,0.0,0.0,0.0,
1.8766,4.337180334990991,4.337180334990991,4.337180334990991,0.0,0.0,0.0,4.337180334990991,0.0,0.0,0.0,0.0,0.0,0.0,0.0,0.0,0.0,0.0,0.0,0.0,0.0,0.0,
1.8954,4.340685940973435,4.340685940973435,4.340685940973435,0.0,0.0,0.0,4.340685940973435,0.0,0.0,0.0,0.0,0.0,0.0,0.0,0.0,0.0,0.0,0.0,0.0,0.0,0.0,
1.9142,4.3442391652792205,4.3442391652792205,4.3442391652792205,0.0,0.0,0.0,4.3442391652792205,0.0,0.0,0.0,0.0,0.0,0.0,0.0,0.0,0.0,0.0,0.0,0.0,0.0,0.0,
1.9329,4.347821188291141,4.347821188291141,4.347821188291141,0.0,0.0,0.0,4.347821188291141,0.0,0.0,0.0,0.0,0.0,0.0,0.0,0.0,0.0,0.0,0.0,0.0,0.0,0.0,
1.9517,4.3514707923784375,4.3514707923784375,4.3514707923784375,0.0,0.0,0.0,4.3514707923784375,0.0,0.0,0.0,0.0,0.0,0.0,0.0,0.0,0.0,0.0,0.0,0.0,0.0,0.0,
1.9705,4.355169434680351,4.355169434680351,4.355169434680351,0.0,0.0,0.0,4.355169434680351,0.0,0.0,0.0,0.0,0.0,0.0,0.0,0.0,0.0,0.0,0.0,0.0,0.0,0.0,
1.9892,4.358897540482181,4.358897540482181,4.358897540482181,0.0,0.0,0.0,4.358897540482181,0.0,0.0,0.0,0.0,0.0,0.0,0.0,0.0,0.0,0.0,0.0,0.0,0.0,0.0,
2.008,4.362695485107743,4.362695485107743,4.362695485107743,0.0,0.0,0.0,4.362695485107743,0.0,0.0,0.0,0.0,0.0,0.0,0.0,0.0,0.0,0.0,0.0,0.0,0.0,0.0,
2.0268,4.366543979821387,4.366543979821387,4.366543979821387,0.0,0.0,0.0,4.366543979821387,0.0,0.0,0.0,0.0,0.0,0.0,0.0,0.0,0.0,0.0,0.0,0.0,0.0,0.0,
2.0455,4.370422672650795,4.370422672650795,4.370422672650795,0.0,0.0,0.0,4.370422672650795,0.0,0.0,0.0,0.0,0.0,0.0,0.0,0.0,0.0,0.0,0.0,0.0,0.0,0.0,
2.0643,4.374373582288758,4.374373582288758,4.374373582288758,0.0,0.0,0.0,4.374373582288758,0.0,0.0,0.0,0.0,0.0,0.0,0.0,0.0,0.0,0.0,0.0,0.0,0.0,0.0,
2.0831,4.378376652613311,4.378376652613311,4.378376652613311,0.0,0.0,0.0,4.378376652613311,0.0,0.0,0.0,0.0,0.0,0.0,0.0,0.0,0.0,0.0,0.0,0.0,0.0,0.0,
2.1018,4.382410730859711,4.382410730859711,4.382410730859711,0.0,0.0,0.0,4.382410730859711,0.0,0.0,0.0,0.0,0.0,0.0,0.0,0.0,0.0,0.0,0.0,0.0,0.0,0.0,
2.1206,4.3865195328744075,4.3865195328744075,4.3865195328744075,0.0,0.0,0.0,4.3865195328744075,0.0,0.0,0.0,0.0,0.0,0.0,0.0,0.0,0.0,0.0,0.0,0.0,0.0,0.0,
2.1394,4.390682212317471,4.390682212317471,4.390682212317471,0.0,0.0,0.0,4.390682212317471,0.0,0.0,0.0,0.0,0.0,0.0,0.0,0.0,0.0,0.0,0.0,0.0,0.0,0.0,
2.1581,4.394876790627444,4.394876790627444,4.394876790627444,0.0,0.0,0.0,4.394876790627444,0.0,0.0,0.0,0.0,0.0,0.0,0.0,0.0,0.0,0.0,0.0,0.0,0.0,0.0,
2.1769,4.399148738223094,4.399148738223094,4.399148738223094,0.0,0.0,0.0,4.399148738223094,0.0,0.0,0.0,0.0,0.0,0.0,0.0,0.0,0.0,0.0,0.0,0.0,0.0,0.0,
2.1957,4.403476394305694,4.403476394305694,4.403476394305694,0.0,0.0,0.0,4.403476394305694,0.0,0.0,0.0,0.0,0.0,0.0,0.0,0.0,0.0,0.0,0.0,0.0,0.0,0.0,
2.2144,4.407836927941118,4.407836927941118,4.407836927941118,0.0,0.0,0.0,4.407836927941118,0.0,0.0,0.0,0.0,0.0,0.0,0.0,0.0,0.0,0.0,0.0,0.0,0.0,0.0,
2.2332,4.412277625463011,4.412277625463011,4.412277625463011,0.0,0.0,0.0,4.412277625463011,0.0,0.0,0.0,0.0,0.0,0.0,0.0,0.0,0.0,0.0,0.0,0.0,0.0,0.0,
2.2519,4.416751904684354,4.416751904684354,4.416751904684354,0.0,0.0,0.0,4.416751904684354,0.0,0.0,0.0,0.0,0.0,0.0,0.0,0.0,0.0,0.0,0.0,0.0,0.0,0.0,
2.2707,4.421308297590583,4.421308297590583,4.421308297590583,0.0,0.0,0.0,4.421308297590583,0.0,0.0,0.0,0.0,0.0,0.0,0.0,0.0,0.0,0.0,0.0,0.0,0.0,0.0,
2.2895,4.4259237284667154,4.4259237284667154,4.4259237284667154,0.0,0.0,0.0,4.4259237284667154,0.0,0.0,0.0,0.0,0.0,0.0,0.0,0.0,0.0,0.0,0.0,0.0,0.0,0.0,
2.3082,4.430573882609467,4.430573882609467,4.430573882609467,0.0,0.0,0.0,4.430573882609467,0.0,0.0,0.0,0.0,0.0,0.0,0.0,0.0,0.0,0.0,0.0,0.0,0.0,0.0,
2.327,4.435309219728548,4.435309219728548,4.435309219728548,0.0,0.0,0.0,4.435309219728548,0.0,0.0,0.0,0.0,0.0,0.0,0.0,0.0,0.0,0.0,0.0,0.0,0.0,0.0,
2.3458,4.440105777381655,4.440105777381655,4.440105777381655,0.0,0.0,0.0,4.440105777381655,0.0,0.0,0.0,0.0,0.0,0.0,0.0,0.0,0.0,0.0,0.0,0.0,0.0,0.0,
2.3645,4.444938309065235,4.444938309065235,4.444938309065235,0.0,0.0,0.0,4.444938309065235,0.0,0.0,0.0,0.0,0.0,0.0,0.0,0.0,0.0,0.0,0.0,0.0,0.0,0.0,
2.3833,4.449859275694168,4.449859275694168,4.449859275694168,0.0,0.0,0.0,4.449859275694168,0.0,0.0,0.0,0.0,0.0,0.0,0.0,0.0,0.0,0.0,0.0,0.0,0.0,0.0,
2.4021,4.454843797805175,4.454843797805175,4.454843797805175,0.0,0.0,0.0,4.454843797805175,0.0,0.0,0.0,0.0,0.0,0.0,0.0,0.0,0.0,0.0,0.0,0.0,0.0,0.0,
2.4208,4.459865663707559,4.459865663707559,4.459865663707559,0.0,0.0,0.0,4.459865663707559,0.0,0.0,0.0,0.0,0.0,0.0,0.0,0.0,0.0,0.0,0.0,0.0,0.0,0.0,
2.4396,4.4649794142967565,4.4649794142967565,4.4649794142967565,0.0,0.0,0.0,4.4649794142967565,0.0,0.0,0.0,0.0,0.0,0.0,0.0,0.0,0.0,0.0,0.0,0.0,0.0,0.0,
2.4584,4.470159220858285,4.470159220858285,4.470159220858285,0.0,0.0,0.0,4.470159220858285,0.0,0.0,0.0,0.0,0.0,0.0,0.0,0.0,0.0,0.0,0.0,0.0,0.0,0.0,
2.4771,4.475377870931492,4.475377870931492,4.475377870931492,0.0,0.0,0.0,4.475377870931492,0.0,0.0,0.0,0.0,0.0,0.0,0.0,0.0,0.0,0.0,0.0,0.0,0.0,0.0,
