energies(eV),real_xx,real_yy,real_zz,real_xy,real_yz,real_xz,real_ave,imag_xx,imag_yy,imag_zz,imag_xy,imag_yz,imag_xz,imag_ave,absorption_xx,absorption_yy,absorption_zz,absorption_xy,absorption_yz,absorption_xz,absorption_ave,band_gap
0.0,5.479235191459171,5.479235191459171,5.479235191459171,0.0,0.0,0.0,5.479235191459171,0.0,0.0,0.0,0.0,0.0,0.0,0.0,0.0,0.0,0.0,0.0,0.0,0.0,0.0,3.4621000000000004
0.0147,5.4792576612879,5.4792576612879,5.4792576612879,0.0,0.0,0.0,5.4792576612879,0.0,0.0,0.0,0.0,0.0,0.0,0.0,0.0,0.0,0.0,0.0,0.0,0.0,0.0,
0.0295,5.4793256851898615,5.4793256851898615,5.4793256851898615,0.0,0.0,0.0,5.479325685189861,0.0,0.0,0.0,0.0,0.0,0.0,0.0,0.0,0.0,0.0,0.0,0.0,0.0,0.0,
0.0442,5.479438349733477,5.479438349733477,5.479438349733477,0.0,0.0,0.0,5.479438349733477,0.0,0.0,0.0,0.0,0.0,0.0,0.0,0.0,0.0,0.0,0.0,0.0,0.0,0.0,
0.0589,5.47959597130804,5.47959597130804,5.47959597130804,0.0,0.0,0.0,5.47959597130804,0.0,0.0,0.0,0.0,0.0,0.0,0.0,0.0,0.0,0.0,0.0,0.0,0.0,0.0,
0.0736,5.479798563395724,5.479798563395724,5.479798563395724,0.0,0.0,0.0,5.479798563395723,0.0,0.0,0.0,0.0,0.0,0.0,0.0,0.0,0.0,0.0,0.0,0.0,0.0,0.0,
0.0884,5.480047981653489,5.480047981653489,5.480047981653489,0.0,0.0,0.0,5.480047981653489,0.0,0.0,0.0,0.0,0.0,0.0,0.0,0.0,0.0,0.0,0.0,0.0,0.0,0.0,
0.1031,5.48034087688491,5.48034087688491,5.48034087688491,0.0,0.0,0.0,5.48034087688491,0.0,0.0,0.0,0.0,0.0,0.0,0.0,0.0,0.0,0.0,0.0,0.0,0.0,0.0,
0.1178,5.480678806379618,5.480678806379618,5.480678806379618,0.0,0.0,0.0,5.480678806379618,0.0,0.0,0.0,0.0,0.0,0.0,0.0,0.0,0.0,0.0,0.0,0.0,0.0,0.0,
0.1325,5.481061799076927,5.481061799076927,5.481061799076927,0.0,0.0,0.0,5.481061799076927,0.0,0.0,0.0,0.0,0.0,0.0,0.0,0.0,0.0,0.0,0.0,0.0,0.0,0.0,
0.1473,5.481492954470512,5.481492954470512,5.481492954470512,0.0,0.0,0.0,5.481492954470512,0.0,0.0,0.0,0.0,0.0,0.0,0.0,0.0,0.0,0.0,0.0,0.0,0.0,0.0,
0.162,5.4819664830515515,5.4819664830515515,5.4819664830515515,0.0,0.0,0.0,5.4819664830515515,0.0,0.0,0.0,0.0,0.0,0.0,0.0,0.0,0.0,0.0,0.0,0.0,0.0,0.0,
0.1767,5.482485185215238,5.482485185215238,5.482485185215238,0.0,0.0,0.0,5.482485185215238,0.0,0.0,0.0,0.0,0.0,0.0,0.0,0.0,0.0,0.0,0.0,0.0,0.0,0.0,
0.1915,5.483053096623089,5.483053096623089,5.483053096623089,0.0,0.0,0.0,5.483053096623089,0.0,0.0,0.0,0.0,0.0,0.0,0.0,0.0,0.0,0.0,0.0,0.0,0.0,0.0,
0.2062,5.48366259150792,5.48366259150792,5.48366259150792,0.0,0.0,0.0,5.48366259150792,0.0,0.0,0.0,0.0,0.0,0.0,0.0,0.0,0.0,0.0,0.0,0.0,0.0,0.0,
0.2209,5.484317405625877,5.484317405625877,5.484317405625877,0.0,0.0,0.0,5.484317405625877,0.0,0.0,0.0,0.0,0.0,0.0,0.0,0.0,0.0,0.0,0.0,0.0,0.0,0.0,
0.2356,5.485017595287091,5.485017595287091,5.485017595287091,0.0,0.0,0.0,5.485017595287091,0.0,0.0,0.0,0.0,0.0,0.0,0.0,0.0,0.0,0.0,0.0,0.0,0.0,0.0,
0.2504,5.485768448774345,5.485768448774345,5.485768448774345,0.0,0.0,0.0,5.485768448774345,0.0,0.0,0.0,0.0,0.0,0.0,0.0,0.0,0.0,0.0,0.0,0.0,0.0,0.0,
0.2651,5.486559884023821,5.486559884023821,5.486559884023821,0.0,0.0,0.0,5.486559884023822,0.0,0.0,0.0,0.0,0.0,0.0,0.0,0.0,0.0,0.0,0.0,0.0,0.0,0.0,
0.2798,5.4873968879905926,5.4873968879905926,5.4873968879905926,0.0,0.0,0.0,5.4873968879905926,0.0,0.0,0.0,0.0,0.0,0.0,0.0,0.0,0.0,0.0,0.0,0.0,0.0,0.0,
0.2946,5.488285693766449,5.488285693766449,5.488285693766449,0.0,0.0,0.0,5.488285693766449,0.0,0.0,0.0,0.0,0.0,0.0,0.0,0.0,0.0,0.0,0.0,0.0,0.0,0.0,
0.3093,5.489214367161152,5.489214367161152,5.489214367161152,0.0,0.0,0.0,5.489214367161151,0.0,0.0,0.0,0.0,0.0,0.0,0.0,0.0,0.0,0.0,0.0,0.0,0.0,0.0,
0.324,5.4901888386082245,5.4901888386082245,5.4901888386082245,0.0,0.0,0.0,5.490188838608224,0.0,0.0,0.0,0.0,0.0,0.0,0.0,0.0,0.0,0.0,0.0,0.0,0.0,0.0,
0.3387,5.491209192479993,5.491209192479993,5.491209192479993,0.0,0.0,0.0,5.491209192479993,0.0,0.0,0.0,0.0,0.0,0.0,0.0,0.0,0.0,0.0,0.0,0.0,0.0,0.0,
0.3535,5.4922829287733705,5.4922829287733705,5.4922829287733705,0.0,0.0,0.0,5.4922829287733705,0.0,0.0,0.0,0.0,0.0,0.0,0.0,0.0,0.0,0.0,0.0,0.0,0.0,0.0,
0.3682,5.493395630628215,5.493395630628215,5.493395630628215,0.0,0.0,0.0,5.493395630628215,0.0,0.0,0.0,0.0,0.0,0.0,0.0,0.0,0.0,0.0,0.0,0.0,0.0,0.0,
0.3829,5.494554493253914,5.494554493253914,5.494554493253914,0.0,0.0,0.0,5.494554493253914,0.0,0.0,0.0,0.0,0.0,0.0,0.0,0.0,0.0,0.0,0.0,0.0,0.0,0.0,
0.3976,5.495759617500643,5.495759617500643,5.495759617500643,0.0,0.0,0.0,5.495759617500643,0.0,0.0,0.0,0.0,0.0,0.0,0.0,0.0,0.0,0.0,0.0,0.0,0.0,0.0,
0.4124,5.497019780966192,5.497019780966192,5.497019780966192,0.0,0.0,0.0,5.497019780966192,0.0,0.0,0.0,0.0,0.0,0.0,0.0,0.0,0.0,0.0,0.0,0.0,0.0,0.0,
0.4271,5.498318064273409,5.498318064273409,5.498318064273409,0.0,0.0,0.0,5.498318064273409,0.0,0.0,0.0,0.0,0.0,0.0,0.0,0.0,0.0,0.0,0.0,0.0,0.0,0.0,
0.4418,5.499662937689197,5.499662937689197,5.499662937689197,0.0,0.0,0.0,5.499662937689197,0.0,0.0,0.0,0.0,0.0,0.0,0.0,0.0,0.0,0.0,0.0,0.0,0.0,0.0,
0.4566,5.501064145719959,5.501064145719959,5.501064145719959,0.0,0.0,0.0,5.501064145719959,0.0,0.0,0.0,0.0,0.0,0.0,0.0,0.0,0.0,0.0,0.0,0.0,0.0,0.0,
0.4713,5.5025028758564005,5.5025028758564005,5.5025028758564005,0.0,0.0,0.0,5.5025028758564005,0.0,0.0,0.0,0.0,0.0,0.0,0.0,0.0,0.0,0.0,0.0,0.0,0.0,0.0,
0.486,5.503988563087727,5.503988563087727,5.503988563087727,0.0,0.0,0.0,5.503988563087727,0.0,0.0,0.0,0.0,0.0,0.0,0.0,0.0,0.0,0.0,0.0,0.0,0.0,0.0,
0.5007,5.505521338141174,5.505521338141174,5.505521338141174,0.0,0.0,0.0,5.5055213381411745,0.0,0.0,0.0,0.0,0.0,0.0,0.0,0.0,0.0,0.0,0.0,0.0,0.0,0.0,
0.5155,5.507112246447136,5.507112246447136,5.507112246447136,0.0,0.0,0.0,5.507112246447136,0.0,0.0,0.0,0.0,0.0,0.0,0.0,0.0,0.0,0.0,0.0,0.0,0.0,0.0,
0.5302,5.508739929585359,5.508739929585359,5.508739929585359,0.0,0.0,0.0,5.508739929585359,0.0,0.0,0.0,0.0,0.0,0.0,0.0,0.0,0.0,0.0,0.0,0.0,0.0,0.0,
0.5449,5.510415120176769,5.510415120176769,5.510415120176769,0.0,0.0,0.0,5.510415120176769,0.0,0.0,0.0,0.0,0.0,0.0,0.0,0.0,0.0,0.0,0.0,0.0,0.0,0.0,
0.5596,5.512137966736505,5.512137966736505,5.512137966736505,0.0,0.0,0.0,5.512137966736506,0.0,0.0,0.0,0.0,0.0,0.0,0.0,0.0,0.0,0.0,0.0,0.0,0.0,0.0,
0.5744,5.513920831669451,5.513920831669451,5.513920831669451,0.0,0.0,0.0,5.513920831669451,0.0,0.0,0.0,0.0,0.0,0.0,0.0,0.0,0.0,0.0,0.0,0.0,0.0,0.0,
0.5891,5.5157397807387,5.5157397807387,5.5157397807387,0.0,0.0,0.0,5.515739780738701,0.0,0.0,0.0,0.0,0.0,0.0,0.0,0.0,0.0,0.0,0.0,0.0,0.0,0.0,
0.6038,5.5176068598031085,5.5176068598031085,5.5176068598031085,0.0,0.0,0.0,5.5176068598031085,0.0,0.0,0.0,0.0,0.0,0.0,0.0,0.0,0.0,0.0,0.0,0.0,0.0,0.0,
0.6186,5.519535431340924,5.519535431340924,5.519535431340924,0.0,0.0,0.0,5.519535431340924,0.0,0.0,0.0,0.0,0.0,0.0,0.0,0.0,0.0,0.0,0.0,0.0,0.0,0.0,
0.6333,5.52149960619372,5.52149960619372,5.52149960619372,0.0,0.0,0.0,5.521499606193719,0.0,0.0,0.0,0.0,0.0,0.0,0.0,0.0,0.0,0.0,0.0,0.0,0.0,0.0,
0.648,5.523512427189309,5.523512427189309,5.523512427189309,0.0,0.0,0.0,5.523512427189309,0.0,0.0,0.0,0.0,0.0,0.0,0.0,0.0,0.0,0.0,0.0,0.0,0.0,0.0,
0.6627,5.525574075531816,5.525574075531816,5.525574075531816,0.0,0.0,0.0,5.525574075531817,0.0,0.0,0.0,0.0,0.0,0.0,0.0,0.0,0.0,0.0,0.0,0.0,0.0,0.0,
0.6775,5.527699263792883,5.527699263792883,5.527699263792883,0.0,0.0,0.0,5.527699263792883,0.0,0.0,0.0,0.0,0.0,0.0,0.0,0.0,0.0,0.0,0.0,0.0,0.0,0.0,
0.6922,5.529859465254286,5.529859465254286,5.529859465254286,0.0,0.0,0.0,5.529859465254286,0.0,0.0,0.0,0.0,0.0,0.0,0.0,0.0,0.0,0.0,0.0,0.0,0.0,0.0,
0.7069,5.532069068287484,5.532069068287484,5.532069068287484,0.0,0.0,0.0,5.532069068287484,0.0,0.0,0.0,0.0,0.0,0.0,0.0,0.0,0.0,0.0,0.0,0.0,0.0,0.0,
0.7216,5.534328273811147,5.534328273811147,5.534328273811147,0.0,0.0,0.0,5.534328273811146,0.0,0.0,0.0,0.0,0.0,0.0,0.0,0.0,0.0,0.0,0.0,0.0,0.0,0.0,
0.7364,5.536653166424743,5.536653166424743,5.536653166424743,0.0,0.0,0.0,5.536653166424743,0.0,0.0,0.0,0.0,0.0,0.0,0.0,0.0,0.0,0.0,0.0,0.0,0.0,0.0,
0.7511,5.539012540957373,5.539012540957373,5.539012540957373,0.0,0.0,0.0,5.539012540957373,0.0,0.0,0.0,0.0,0.0,0.0,0.0,0.0,0.0,0.0,0.0,0.0,0.0,0.0,
0.7658,5.5414221527701555,5.5414221527701555,5.5414221527701555,0.0,0.0,0.0,5.5414221527701555,0.0,0.0,0.0,0.0,0.0,0.0,0.0,0.0,0.0,0.0,0.0,0.0,0.0,0.0,
0.7806,5.5438991318603605,5.5438991318603605,5.5438991318603605,0.0,0.0,0.0,5.5438991318603605,0.0,0.0,0.0,0.0,0.0,0.0,0.0,0.0,0.0,0.0,0.0,0.0,0.0,0.0,
0.7953,5.546410233641923,5.546410233641923,5.546410233641923,0.0,0.0,0.0,5.546410233641924,0.0,0.0,0.0,0.0,0.0,0.0,0.0,0.0,0.0,0.0,0.0,0.0,0.0,0.0,
0.81,5.548972254760471,5.548972254760471,5.548972254760471,0.0,0.0,0.0,5.548972254760471,0.0,0.0,0.0,0.0,0.0,0.0,0.0,0.0,0.0,0.0,0.0,0.0,0.0,0.0,
0.8247,5.551585432818821,5.551585432818821,5.551585432818821,0.0,0.0,0.0,5.551585432818821,0.0,0.0,0.0,0.0,0.0,0.0,0.0,0.0,0.0,0.0,0.0,0.0,0.0,0.0,
0.8395,5.554268313870032,5.554268313870032,5.554268313870032,0.0,0.0,0.0,5.554268313870032,0.0,0.0,0.0,0.0,0.0,0.0,0.0,0.0,0.0,0.0,0.0,0.0,0.0,0.0,
0.8542,5.556984892832503,5.556984892832503,5.556984892832503,0.0,0.0,0.0,5.556984892832503,0.0,0.0,0.0,0.0,0.0,0.0,0.0,0.0,0.0,0.0,0.0,0.0,0.0,0.0,
0.8689,5.559753376465529,5.559753376465529,5.559753376465529,0.0,0.0,0.0,5.559753376465529,0.0,0.0,0.0,0.0,0.0,0.0,0.0,0.0,0.0,0.0,0.0,0.0,0.0,0.0,
0.8837,5.562593392087698,5.562593392087698,5.562593392087698,0.0,0.0,0.0,5.562593392087698,0.0,0.0,0.0,0.0,0.0,0.0,0.0,0.0,0.0,0.0,0.0,0.0,0.0,0.0,
0.8984,5.565466828398271,5.565466828398271,5.565466828398271,0.0,0.0,0.0,5.565466828398271,0.0,0.0,0.0,0.0,0.0,0.0,0.0,0.0,0.0,0.0,0.0,0.0,0.0,0.0,
0.9131,5.568392968604183,5.568392968604183,5.568392968604183,0.0,0.0,0.0,5.568392968604183,0.0,0.0,0.0,0.0,0.0,0.0,0.0,0.0,0.0,0.0,0.0,0.0,0.0,0.0,
0.9278,5.5713720902742425,5.5713720902742425,5.5713720902742425,0.0,0.0,0.0,5.5713720902742425,0.0,0.0,0.0,0.0,0.0,0.0,0.0,0.0,0.0,0.0,0.0,0.0,0.0,0.0,
0.9426,5.5744252885286265,5.5744252885286265,5.5744252885286265,0.0,0.0,0.0,5.5744252885286265,0.0,0.0,0.0,0.0,0.0,0.0,0.0,0.0,0.0,0.0,0.0,0.0,0.0,0.0,
0.9573,5.577511595256735,5.577511595256735,5.577511595256735,0.0,0.0,0.0,5.577511595256735,0.0,0.0,0.0,0.0,0.0,0.0,0.0,0.0,0.0,0.0,0.0,0.0,0.0,0.0,
0.972,5.580651754547397,5.580651754547397,5.580651754547397,0.0,0.0,0.0,5.580651754547397,0.0,0.0,0.0,0.0,0.0,0.0,0.0,0.0,0.0,0.0,0.0,0.0,0.0,0.0,
0.9867,5.583846068533994,5.583846068533994,5.583846068533994,0.0,0.0,0.0,5.583846068533994,0.0,0.0,0.0,0.0,0.0,0.0,0.0,0.0,0.0,0.0,0.0,0.0,0.0,0.0,
1.0015,5.587117133450685,5.587117133450685,5.587117133450685,0.0,0.0,0.0,5.587117133450685,0.0,0.0,0.0,0.0,0.0,0.0,0.0,0.0,0.0,0.0,0.0,0.0,0.0,0.0,
1.0162,5.590421062450664,5.590421062450664,5.590421062450664,0.0,0.0,0.0,5.590421062450663,0.0,0.0,0.0,0.0,0.0,0.0,0.0,0.0,0.0,0.0,0.0,0.0,0.0,0.0,
1.0309,5.593780093219957,5.593780093219957,5.593780093219957,0.0,0.0,0.0,5.593780093219958,0.0,0.0,0.0,0.0,0.0,0.0,0.0,0.0,0.0,0.0,0.0,0.0,0.0,0.0,
1.0457,5.597217972101044,5.597217972101044,5.597217972101044,0.0,0.0,0.0,5.597217972101045,0.0,0.0,0.0,0.0,0.0,0.0,0.0,0.0,0.0,0.0,0.0,0.0,0.0,0.0,
1.0604,5.6006885780634965,5.6006885780634965,5.6006885780634965,0.0,0.0,0.0,5.6006885780634965,0.0,0.0,0.0,0.0,0.0,0.0,0.0,0.0,0.0,0.0,0.0,0.0,0.0,0.0,
1.0751,5.604215292849719,5.604215292849719,5.604215292849719,0.0,0.0,0.0,5.604215292849719,0.0,0.0,0.0,0.0,0.0,0.0,0.0,0.0,0.0,0.0,0.0,0.0,0.0,0.0,
1.0898,5.6077984651487505,5.6077984651487505,5.6077984651487505,0.0,0.0,0.0,5.6077984651487505,0.0,0.0,0.0,0.0,0.0,0.0,0.0,0.0,0.0,0.0,0.0,0.0,0.0,0.0,
1.1046,5.611463407887386,5.611463407887386,5.611463407887386,0.0,0.0,0.0,5.611463407887386,0.0,0.0,0.0,0.0,0.0,0.0,0.0,0.0,0.0,0.0,0.0,0.0,0.0,0.0,
1.1193,5.615160959791362,5.615160959791362,5.615160959791362,0.0,0.0,0.0,5.615160959791363,0.0,0.0,0.0,0.0,0.0,0.0,0.0,0.0,0.0,0.0,0.0,0.0,0.0,0.0,
1.134,5.6189160605471775,5.6189160605471775,5.6189160605471775,0.0,0.0,0.0,5.6189160605471775,0.0,0.0,0.0,0.0,0.0,0.0,0.0,0.0,0.0,0.0,0.0,0.0,0.0,0.0,
1.1487,5.622729087758395,5.622729087758395,5.622729087758395,0.0,0.0,0.0,5.622729087758395,0.0,0.0,0.0,0.0,0.0,0.0,0.0,0.0,0.0,0.0,0.0,0.0,0.0,0.0,
1.1635,5.6266269627576335,5.6266269627576335,5.6266269627576335,0.0,0.0,0.0,5.6266269627576335,0.0,0.0,0.0,0.0,0.0,0.0,0.0,0.0,0.0,0.0,0.0,0.0,0.0,0.0,
1.1782,5.630557406556229,5.630557406556229,5.630557406556229,0.0,0.0,0.0,5.630557406556229,0.0,0.0,0.0,0.0,0.0,0.0,0.0,0.0,0.0,0.0,0.0,0.0,0.0,0.0,
1.1929,5.634546957913525,5.634546957913525,5.634546957913525,0.0,0.0,0.0,5.634546957913525,0.0,0.0,0.0,0.0,0.0,0.0,0.0,0.0,0.0,0.0,0.0,0.0,0.0,0.0,
1.2077,5.6386237747055175,5.6386237747055175,5.6386237747055175,0.0,0.0,0.0,5.6386237747055175,0.0,0.0,0.0,0.0,0.0,0.0,0.0,0.0,0.0,0.0,0.0,0.0,0.0,0.0,
1.2224,5.642733183662864,5.642733183662864,5.642733183662864,0.0,0.0,0.0,5.642733183662865,0.0,0.0,0.0,0.0,0.0,0.0,0.0,0.0,0.0,0.0,0.0,0.0,0.0,0.0,
1.2371,5.646902952604848,5.646902952604848,5.646902952604848,0.0,0.0,0.0,5.646902952604848,0.0,0.0,0.0,0.0,0.0,0.0,0.0,0.0,0.0,0.0,0.0,0.0,0.0,0.0,
1.2518,5.651133514497215,5.651133514497215,5.651133514497215,0.0,0.0,0.0,5.651133514497215,0.0,0.0,0.0,0.0,0.0,0.0,0.0,0.0,0.0,0.0,0.0,0.0,0.0,0.0,
1.2666,5.6554547173615095,5.6554547173615095,5.6554547173615095,0.0,0.0,0.0,5.65545471736151,0.0,0.0,0.0,0.0,0.0,0.0,0.0,0.0,0.0,0.0,0.0,0.0,0.0,0.0,
1.2813,5.659808619142205,5.659808619142205,5.659808619142205,0.0,0.0,0.0,5.659808619142205,0.0,0.0,0.0,0.0,0.0,0.0,0.0,0.0,0.0,0.0,0.0,0.0,0.0,0.0,
1.296,5.664224667156234,5.664224667156234,5.664224667156234,0.0,0.0,0.0,5.664224667156234,0.0,0.0,0.0,0.0,0.0,0.0,0.0,0.0,0.0,0.0,0.0,0.0,0.0,0.0,
1.3107,5.668703329091959,5.668703329091959,5.668703329091959,0.0,0.0,0.0,5.668703329091959,0.0,0.0,0.0,0.0,0.0,0.0,0.0,0.0,0.0,0.0,0.0,0.0,0.0,0.0,
1.3255,5.6732761951312956,5.6732761951312956,5.6732761951312956,0.0,0.0,0.0,5.673276195131296,0.0,0.0,0.0,0.0,0.0,0.0,0.0,0.0,0.0,0.0,0.0,0.0,0.0,0.0,
1.3402,5.677881958541159,5.677881958541159,5.677881958541159,0.0,0.0,0.0,5.6778819585411595,0.0,0.0,0.0,0.0,0.0,0.0,0.0,0.0,0.0,0.0,0.0,0.0,0.0,0.0,
1.3549,5.682551797333682,5.682551797333682,5.682551797333682,0.0,0.0,0.0,5.682551797333683,0.0,0.0,0.0,0.0,0.0,0.0,0.0,0.0,0.0,0.0,0.0,0.0,0.0,0.0,
1.3697,5.687318645748836,5.687318645748836,5.687318645748836,0.0,0.0,0.0,5.687318645748836,0.0,0.0,0.0,0.0,0.0,0.0,0.0,0.0,0.0,0.0,0.0,0.0,0.0,0.0,
1.3844,5.6921186045900996,5.6921186045900996,5.6921186045900996,0.0,0.0,0.0,5.6921186045900996,0.0,0.0,0.0,0.0,0.0,0.0,0.0,0.0,0.0,0.0,0.0,0.0,0.0,0.0,
1.3991,5.696984186754739,5.696984186754739,5.696984186754739,0.0,0.0,0.0,5.696984186754739,0.0,0.0,0.0,0.0,0.0,0.0,0.0,0.0,0.0,0.0,0.0,0.0,0.0,0.0,
1.4138,5.701915927063587,5.701915927063587,5.701915927063587,0.0,0.0,0.0,5.701915927063587,0.0,0.0,0.0,0.0,0.0,0.0,0.0,0.0,0.0,0.0,0.0,0.0,0.0,0.0,
1.4286,5.706948603351518,5.706948603351518,5.706948603351518,0.0,0.0,0.0,5.706948603351518,0.0,0.0,0.0,0.0,0.0,0.0,0.0,0.0,0.0,0.0,0.0,0.0,0.0,0.0,
1.4433,5.712014765297943,5.712014765297943,5.712014765297943,0.0,0.0,0.0,5.712014765297943,0.0,0.0,0.0,0.0,0.0,0.0,0.0,0.0,0.0,0.0,0.0,0.0,0.0,0.0,
1.458,5.717148756365686,5.717148756365686,5.717148756365686,0.0,0.0,0.0,5.7171487563656855,0.0,0.0,0.0,0.0,0.0,0.0,0.0,0.0,0.0,0.0,0.0,0.0,0.0,0.0,
1.4728,5.722386779938135,5.722386779938135,5.722386779938135,0.0,0.0,0.0,5.722386779938135,0.0,0.0,0.0,0.0,0.0,0.0,0.0,0.0,0.0,0.0,0.0,0.0,0.0,0.0,
1.4875,5.727658643748632,5.727658643748632,5.727658643748632,0.0,0.0,0.0,5.727658643748632,0.0,0.0,0.0,0.0,0.0,0.0,0.0,0.0,0.0,0.0,0.0,0.0,0.0,0.0,
1.5022,5.733000106391272,5.733000106391272,5.733000106391272,0.0,0.0,0.0,5.733000106391272,0.0,0.0,0.0,0.0,0.0,0.0,0.0,0.0,0.0,0.0,0.0,0.0,0.0,0.0,
1.5169,5.738411779335834,5.738411779335834,5.738411779335834,0.0,0.0,0.0,5.738411779335834,0.0,0.0,0.0,0.0,0.0,0.0,0.0,0.0,0.0,0.0,0.0,0.0,0.0,0.0,
1.5317,5.743931825848583,5.743931825848583,5.743931825848583,0.0,0.0,0.0,5.743931825848583,0.0,0.0,0.0,0.0,0.0,0.0,0.0,0.0,0.0,0.0,0.0,0.0,0.0,0.0,
1.5464,5.7494862896963435,5.7494862896963435,5.7494862896963435,0.0,0.0,0.0,5.7494862896963435,0.0,0.0,0.0,0.0,0.0,0.0,0.0,0.0,0.0,0.0,0.0,0.0,0.0,0.0,
1.5611,5.755112874566106,5.755112874566106,5.755112874566106,0.0,0.0,0.0,5.755112874566106,0.0,0.0,0.0,0.0,0.0,0.0,0.0,0.0,0.0,0.0,0.0,0.0,0.0,0.0,
1.5758,5.760812240746201,5.760812240746201,5.760812240746201,0.0,0.0,0.0,5.760812240746201,0.0,0.0,0.0,0.0,0.0,0.0,0.0,0.0,0.0,0.0,0.0,0.0,0.0,0.0,
1.5906,5.766624585342856,5.766624585342856,5.766624585342856,0.0,0.0,0.0,5.766624585342856,0.0,0.0,0.0,0.0,0.0,0.0,0.0,0.0,0.0,0.0,0.0,0.0,0.0,0.0,
1.6053,5.772472053297971,5.772472053297971,5.772472053297971,0.0,0.0,0.0,5.772472053297971,0.0,0.0,0.0,0.0,0.0,0.0,0.0,0.0,0.0,0.0,0.0,0.0,0.0,0.0,
1.62,5.778394366240716,5.778394366240716,5.778394366240716,0.0,0.0,0.0,5.778394366240716,0.0,0.0,0.0,0.0,0.0,0.0,0.0,0.0,0.0,0.0,0.0,0.0,0.0,0.0,
1.6348,5.784433299733085,5.784433299733085,5.784433299733085,0.0,0.0,0.0,5.784433299733085,0.0,0.0,0.0,0.0,0.0,0.0,0.0,0.0,0.0,0.0,0.0,0.0,0.0,0.0,
1.6495,5.7905079779981055,5.7905079779981055,5.7905079779981055,0.0,0.0,0.0,5.790507977998106,0.0,0.0,0.0,0.0,0.0,0.0,0.0,0.0,0.0,0.0,0.0,0.0,0.0,0.0,
1.6642,5.796659688412997,5.796659688412997,5.796659688412997,0.0,0.0,0.0,5.796659688412997,0.0,0.0,0.0,0.0,0.0,0.0,0.0,0.0,0.0,0.0,0.0,0.0,0.0,0.0,
1.6789,5.802889187139522,5.802889187139522,5.802889187139522,0.0,0.0,0.0,5.802889187139523,0.0,0.0,0.0,0.0,0.0,0.0,0.0,0.0,0.0,0.0,0.0,0.0,0.0,0.0,
1.6937,5.809240427997898,5.809240427997898,5.809240427997898,0.0,0.0,0.0,5.809240427997898,0.0,0.0,0.0,0.0,0.0,0.0,0.0,0.0,0.0,0.0,0.0,0.0,0.0,0.0,
1.7084,5.815628374176225,5.815628374176225,5.815628374176225,0.0,0.0,0.0,5.815628374176225,0.0,0.0,0.0,0.0,0.0,0.0,0.0,0.0,0.0,0.0,0.0,0.0,0.0,0.0,
1.7231,5.822096473267054,5.822096473267054,5.822096473267054,0.0,0.0,0.0,5.822096473267055,0.0,0.0,0.0,0.0,0.0,0.0,0.0,0.0,0.0,0.0,0.0,0.0,0.0,0.0,
1.7378,5.828645543076635,5.828645543076635,5.828645543076635,0.0,0.0,0.0,5.828645543076635,0.0,0.0,0.0,0.0,0.0,0.0,0.0,0.0,0.0,0.0,0.0,0.0,0.0,0.0,
1.7526,5.835321807741097,5.835321807741097,5.835321807741097,0.0,0.0,0.0,5.835321807741097,0.0,0.0,0.0,0.0,0.0,0.0,0.0,0.0,0.0,0.0,0.0,0.0,0.0,0.0,
1.7673,5.8420359030509355,5.8420359030509355,5.8420359030509355,0.0,0.0,0.0,5.8420359030509355,0.0,0.0,0.0,0.0,0.0,0.0,0.0,0.0,0.0,0.0,0.0,0.0,0.0,0.0,
1.782,5.84883352751267,5.84883352751267,5.84883352751267,0.0,0.0,0.0,5.84883352751267,0.0,0.0,0.0,0.0,0.0,0.0,0.0,0.0,0.0,0.0,0.0,0.0,0.0,0.0,
1.7968,5.855762674086792,5.855762674086792,5.855762674086792,0.0,0.0,0.0,5.855762674086793,0.0,0.0,0.0,0.0,0.0,0.0,0.0,0.0,0.0,0.0,0.0,0.0,0.0,0.0,
1.8115,5.862730613894456,5.862730613894456,5.862730613894456,0.0,0.0,0.0,5.862730613894456,0.0,0.0,0.0,0.0,0.0,0.0,0.0,0.0,0.0,0.0,0.0,0.0,0.0,0.0,
1.8262,5.869784798749366,5.869784798749366,5.869784798749366,0.0,0.0,0.0,5.869784798749367,0.0,0.0,0.0,0.0,0.0,0.0,0.0,0.0,0.0,0.0,0.0,0.0,0.0,0.0,
1.8409,5.876926168725604,5.876926168725604,5.876926168725604,0.0,0.0,0.0,5.876926168725604,0.0,0.0,0.0,0.0,0.0,0.0,0.0,0.0,0.0,0.0,0.0,0.0,0.0,0.0,
1.8557,5.884205167459647,5.884205167459647,5.884205167459647,0.0,0.0,0.0,5.884205167459647,0.0,0.0,0.0,0.0,0.0,0.0,0.0,0.0,0.0,0.0,0.0,0.0,0.0,0.0,
1.8704,5.891524414485217,5.891524414485217,5.891524414485217,0.0,0.0,0.0,5.891524414485217,0.0,0.0,0.0,0.0,0.0,0.0,0.0,0.0,0.0,0.0,0.0,0.0,0.0,0.0,
1.8851,5.898933790241815,5.898933790241815,5.898933790241815,0.0,0.0,0.0,5.8989337902418155,0.0,0.0,0.0,0.0,0.0,0.0,0.0,0.0,0.0,0.0,0.0,0.0,0.0,0.0,
1.8999,5.906485652686769,5.906485652686769,5.906485652686769,0.0,0.0,0.0,5.906485652686769,0.0,0.0,0.0,0.0,0.0,0.0,0.0,0.0,0.0,0.0,0.0,0.0,0.0,0.0,
1.9146,5.914078996121882,5.914078996121882,5.914078996121882,0.0,0.0,0.0,5.914078996121883,0.0,0.0,0.0,0.0,0.0,0.0,0.0,0.0,0.0,0.0,0.0,0.0,0.0,0.0,
1.9293,5.921765597660057,5.921765597660057,5.921765597660057,0.0,0.0,0.0,5.921765597660058,0.0,0.0,0.0,0.0,0.0,0.0,0.0,0.0,0.0,0.0,0.0,0.0,0.0,0.0,
1.944,5.929546541630861,5.929546541630861,5.929546541630861,0.0,0.0,0.0,5.92954654163086,0.0,0.0,0.0,0.0,0.0,0.0,0.0,0.0,0.0,0.0,0.0,0.0,0.0,0.0,
