energies(eV),real_xx,real_yy,real_zz,real_xy,real_yz,real_xz,real_ave,imag_xx,imag_yy,imag_zz,imag_xy,imag_yz,imag_xz,imag_ave,absorption_xx,absorption_yy,absorption_zz,absorption_xy,absorption_yz,absorption_xz,absorption_ave,band_gap
0.0,3.7448824661867466,3.716301781313609,3.795014799548194,0.0,0.0,-0.02891666098416954,3.7520663490161836,0.0,0.0,0.0,0.0,0.0,0.0,0.0,0.0,0.0,0.0,0.0,0.0,0.0,0.0,3.5502000000000002
0.0174,3.7448944275334957,3.7163135086323664,3.7950271020009017,0.0,0.0,-0.02891674322235853,3.752078346055588,0.0,0.0,0.0,0.0,0.0,0.0,0.0,0.0,0.0,0.0,0.0,0.0,299.8937831959867,0.0,
0.0348,3.7449303127276155,3.7163486917093764,3.795064010544172,0.0,0.0,-0.028916989927921553,3.7521143383270545,0.0,0.0,0.0,0.0,0.0,0.0,0.0,0.0,0.0,0.0,0.0,0.0,599.7901249548883,0.0,
0.0522,3.744990125231171,3.716407333907282,3.7951255287337817,0.0,0.0,-0.028917401073835208,3.7521743292907446,0.0,0.0,0.0,0.0,0.0,0.0,0.0,0.0,0.0,0.0,0.0,0.0,899.6915833361678,0.0,
0.0696,3.7450738708155544,3.716489440831688,3.7952116624973007,0.0,0.0,-0.028917976615033293,3.752258324714848,0.0,0.0,0.0,0.0,0.0,0.0,0.0,0.0,0.0,0.0,0.0,0.0,1199.60071539181,0.0,
0.087,3.7451815575633747,3.7165950203330334,3.795322420136099,0.0,0.0,-0.028918716488362792,3.7523663326775023,0.0,0.0,0.0,0.0,0.0,0.0,0.0,0.0,0.0,0.0,0.0,0.0,1499.520076661094,0.0,
0.1044,3.745313195871209,3.7167240825091636,3.7954578123280935,0.0,0.0,-0.028919620612523265,3.752498363569489,0.0,0.0,0.0,0.0,0.0,0.0,0.0,0.0,0.0,0.0,0.0,0.0,1799.45222066357,0.0,
0.1218,3.7454687984529844,3.7168766397086594,3.7956178521312016,0.0,0.0,-0.028920688887990657,3.7526544300976155,0.0,0.0,0.0,0.0,0.0,0.0,0.0,0.0,0.0,0.0,0.0,0.0,2099.399698389703,0.0,
0.1392,3.7456483803443024,3.7170527065349024,3.795802554987808,0.0,0.0,-0.028921921196921243,3.752834547289004,0.0,0.0,0.0,0.0,0.0,0.0,0.0,0.0,0.0,0.0,0.0,0.0,2399.365057788482,0.0,
0.1566,3.7458519589073975,3.717252299850872,3.796011938729716,0.0,0.0,-0.02892331740304027,3.753038732495995,0.0,0.0,0.0,0.0,0.0,0.0,0.0,0.0,0.0,0.0,0.0,0.0,2699.350843251493,0.0,
0.174,3.746079553836914,3.7174754387847493,3.796246023584173,0.0,0.0,-0.028924877351510902,3.7532670054019452,0.0,0.0,0.0,0.0,0.0,0.0,0.0,0.0,0.0,0.0,0.0,0.0,2999.3595950927393,0.0,
0.1914,3.7463311871665987,3.7177221447361952,3.7965048321805863,0.0,0.0,-0.028926600868787723,3.7535193880277937,0.0,0.0,0.0,0.0,0.0,0.0,0.0,0.0,0.0,0.0,0.0,0.0,3299.393849023728,0.0,
0.2087,3.7466052300179697,3.717990820506476,3.796786689158416,0.0,0.0,-0.028928476451851735,3.753794246560954,0.0,0.0,0.0,0.0,0.0,0.0,0.0,0.0,0.0,0.0,0.0,0.0,3597.731554834107,0.0,
0.2261,3.7469048771164966,3.7182845980077204,3.7970948802985838,0.0,0.0,-0.028930525573331894,3.7540947851409334,0.0,0.0,0.0,0.0,0.0,0.0,0.0,0.0,0.0,0.0,0.0,0.0,3897.824216190444,0.0,
0.2435,3.7472286426541577,3.7186020202600907,3.797427877382196,0.0,0.0,-0.028932737630360653,3.7544195134321483,0.0,0.0,0.0,0.0,0.0,0.0,0.0,0.0,0.0,0.0,0.0,0.0,4197.949939364555,0.0,
0.2609,3.747576558088828,3.7189431178143946,3.7977857127165087,0.0,0.0,-0.02893511237282972,3.754768462873244,0.0,0.0,0.0,0.0,0.0,0.0,0.0,0.0,0.0,0.0,0.0,0.0,4498.111236330547,0.0,
0.2783,3.7479486572621807,3.7193079235359074,3.7981684210566033,0.0,0.0,-0.028937649530912317,3.755141667284897,0.0,0.0,0.0,0.0,0.0,0.0,0.0,0.0,0.0,0.0,0.0,0.0,4798.3106117442485,0.0,
0.2957,3.7483449764111967,3.7196964726154,3.798576039617073,0.0,0.0,-0.028940348814804232,3.7555391628812234,0.0,0.0,0.0,0.0,0.0,0.0,0.0,0.0,0.0,0.0,0.0,0.0,5098.550562376017,0.0,
0.3131,3.748765554180306,3.7201088025807882,3.799008608084455,0.0,0.0,-0.028943209914446762,3.7559609882818497,0.0,0.0,0.0,0.0,0.0,0.0,0.0,0.0,0.0,0.0,0.0,0.0,5398.833576534271,0.0,
0.3305,3.749210431634538,3.720544953309783,3.79946616863069,0.0,0.0,-0.02894623249922892,3.756407184525004,0.0,0.0,0.0,0.0,0.0,0.0,0.0,0.0,0.0,0.0,0.0,0.0,5699.162133478883,0.0,
0.3479,3.7496796522734313,3.7210049670431853,3.7999487659271707,0.0,0.0,-0.028949416217671182,3.7568777950812624,0.0,0.0,0.0,0.0,0.0,0.0,0.0,0.0,0.0,0.0,0.0,0.0,5999.5387028239475,0.0,
0.3653,3.7501732620458115,3.7214888883990995,3.8004564471599687,0.0,0.0,-0.028952760697087868,3.757372865868293,0.0,0.0,0.0,0.0,0.0,0.0,0.0,0.0,0.0,0.0,0.0,0.0,6299.965743928968,0.0,
0.3827,3.7506913093654717,3.721996764387973,3.800989262045751,0.0,0.0,-0.02895626554322859,3.7578924452663984,0.0,0.0,0.0,0.0,0.0,0.0,0.0,0.0,0.0,0.0,0.0,0.0,6600.445705277778,0.0,
0.4001,3.7512338451277154,3.7225286444284156,3.8015472628486213,0.0,0.0,-0.028959930339899288,3.7584365841349174,0.0,0.0,0.0,0.0,0.0,0.0,0.0,0.0,0.0,0.0,0.0,0.0,6900.9810238445625,0.0,
0.4175,3.751800922726762,3.723084580363982,3.8021305043980016,0.0,0.0,-0.028963754648562056,3.7590053358295816,0.0,0.0,0.0,0.0,0.0,0.0,0.0,0.0,0.0,0.0,0.0,0.0,7201.574124446132,0.0,
0.4349,3.75239259807416,3.723664626480723,3.80273904410723,0.0,0.0,-0.02896773800791231,3.7595987562207043,0.0,0.0,0.0,0.0,0.0,0.0,0.0,0.0,0.0,0.0,0.0,0.0,7502.227419079586,0.0,
0.4523,3.7530089296179865,3.7242688395256867,3.803372941993294,0.0,0.0,-0.028971879933433486,3.7602169037123225,0.0,0.0,0.0,0.0,0.0,0.0,0.0,0.0,0.0,0.0,0.0,0.0,7802.94330624457,0.0,
0.4697,3.753649978363077,3.7248972787262886,3.8040322606973844,0.0,0.0,-0.02897617991692916,3.7608598392622503,0.0,0.0,0.0,0.0,0.0,0.0,0.0,0.0,0.0,0.0,0.0,0.0,8103.724170249376,0.0,
0.4871,3.7543158078922065,3.7255500058105775,3.8047170655065172,0.0,0.0,-0.028980637426031935,3.7615276264031006,0.0,0.0,0.0,0.0,0.0,0.0,0.0,0.0,0.0,0.0,0.0,0.0,8404.572380499982,0.0,
0.5045,3.7550064843881588,3.726227085028464,3.805427424376029,0.0,0.0,-0.028985251903688048,3.762220331264217,0.0,0.0,0.0,0.0,0.0,0.0,0.0,0.0,0.0,0.0,0.0,0.0,8705.490290771115,0.0,
0.5219,3.7557220766568675,3.7269285831738355,3.8061634079531648,0.0,0.0,-0.02899002276761645,3.7629380225946227,0.0,0.0,0.0,0.0,0.0,0.0,0.0,0.0,0.0,0.0,0.0,0.0,9006.480238458276,0.0,
0.5393,3.7564626561515295,3.727654569607703,3.806925089601666,0.0,0.0,-0.028994949409744272,3.7636807717869663,0.0,0.0,0.0,0.0,0.0,0.0,0.0,0.0,0.0,0.0,0.0,0.0,9307.544543810165,0.0,
0.5567,3.757228296997685,3.7284051162822736,3.807712545427388,0.0,0.0,-0.029000031195615297,3.764448652902449,0.0,0.0,0.0,0.0,0.0,0.0,0.0,0.0,0.0,0.0,0.0,0.0,9608.685509140187,0.0,
0.5741,3.75801907601944,3.7291802977659874,3.8085258543049263,0.0,0.0,-0.029005267463772716,3.765241742696785,0.0,0.0,0.0,0.0,0.0,0.0,0.0,0.0,0.0,0.0,0.0,0.0,9909.905418016253,0.0,
0.5914,3.7588303109269487,3.729975523426669,3.809360200410489,0.0,0.0,-0.029010626109703366,3.7660553449213694,0.0,0.0,0.0,0.0,0.0,0.0,0.0,0.0,0.0,0.0,0.0,0.0,10209.474682531085,0.0,
0.6088,3.7596714620607043,3.730800066115025,3.810225313447928,0.0,0.0,-0.029016168369162813,3.766898947207886,0.0,0.0,0.0,0.0,0.0,0.0,0.0,0.0,0.0,0.0,0.0,0.0,10510.858764057184,0.0,
0.6262,3.7605379978143065,3.731649482799132,3.811116532546531,0.0,0.0,-0.029021862962312715,3.7677680043866566,0.0,0.0,0.0,0.0,0.0,0.0,0.0,0.0,0.0,0.0,0.0,0.0,10812.328506198806,0.0,
0.6436,3.761430006072932,3.7325238587680376,3.8120339479279526,0.0,0.0,-0.029027709113128866,3.7686626042563076,0.0,0.0,0.0,0.0,0.0,0.0,0.0,0.0,0.0,0.0,0.0,0.0,11113.886109096034,0.0,
0.661,3.762347577567284,3.7334232820678173,3.812977652732472,0.0,0.0,-0.029033706015076908,3.7695828374558578,0.0,0.0,0.0,0.0,0.0,0.0,0.0,0.0,0.0,0.0,0.0,0.0,11415.53374973303,0.0,
0.6784,3.7632908059064616,3.7343478435330764,3.8139477430523896,0.0,0.0,-0.0290398528303174,3.770528797497309,0.0,0.0,0.0,0.0,0.0,0.0,0.0,0.0,0.0,0.0,0.0,0.0,11717.273580973797,0.0,
0.6958,3.7642597876119708,3.735297636819528,3.814944317966777,0.0,0.0,-0.029046148688880842,3.7715005807994255,0.0,0.0,0.0,0.0,0.0,0.0,0.0,0.0,0.0,0.0,0.0,0.0,12019.107730568578,0.0,
0.7132,3.7652546221530803,3.7362727584377744,3.815967479577445,0.0,0.0,-0.02905259268780765,3.7724982867227665,0.0,0.0,0.0,0.0,0.0,0.0,0.0,0.0,0.0,0.0,0.0,0.0,12321.03830012875,0.0,
0.7306,3.7662754119832833,3.7372733077883256,3.8170173330460884,0.0,0.0,-0.029059183890254987,3.773522017605899,0.0,0.0,0.0,0.0,0.0,0.0,0.0,0.0,0.0,0.0,0.0,0.0,12623.06736406948,0.0,
0.748,3.767322262578193,3.7382993871977397,3.8180939866328947,0.0,0.0,-0.029065921324566896,3.7745718788029428,0.0,0.0,0.0,0.0,0.0,0.0,0.0,0.0,0.0,0.0,0.0,0.0,12925.196968518172,0.0,
0.7654,3.768395282474664,3.7393511019561063,3.819197551736403,0.0,0.0,-0.029072803983308533,3.7756479787223913,0.0,0.0,0.0,0.0,0.0,0.0,0.0,0.0,0.0,0.0,0.0,0.0,13227.429130187687,0.0,
0.7828,3.7694945833113023,3.740428560355828,3.820328142934771,0.0,0.0,-0.029079830822261853,3.7767504288673006,0.0,0.0,0.0,0.0,0.0,0.0,0.0,0.0,0.0,0.0,0.0,0.0,13529.765835212473,0.0,
0.8002,3.770620279870329,3.7415318737316205,3.8214858780283456,0.0,0.0,-0.0290870007593829,3.7778793438767653,0.0,0.0,0.0,0.0,0.0,0.0,0.0,0.0,0.0,0.0,0.0,0.0,13832.209037946279,0.0,
0.8176,3.771772490120936,3.7426611565020016,3.822670878083903,0.0,0.0,-0.029094312673718006,3.779034841568947,0.0,0.0,0.0,0.0,0.0,0.0,0.0,0.0,0.0,0.0,0.0,0.0,14134.760659719608,0.0,
0.835,3.7729513352639743,3.7438165262120213,3.8238832674800745,0.0,0.0,-0.029101765404278206,3.7802170429853565,0.0,0.0,0.0,0.0,0.0,0.0,0.0,0.0,0.0,0.0,0.0,0.0,14437.422587555184,0.0,
0.8524,3.7741569397783072,3.7449981035774993,3.8251231739545473,0.0,0.0,-0.02910935774887157,3.7814260724367847,0.0,0.0,0.0,0.0,0.0,0.0,0.0,0.0,0.0,0.0,0.0,0.0,14740.196672840053,0.0,
0.8698,3.7753894314684593,3.7462060125307652,3.8263907286526218,0.0,0.0,-0.029117088462889077,3.7826620575506156,0.0,0.0,0.0,0.0,0.0,0.0,0.0,0.0,0.0,0.0,0.0,0.0,15043.084729951695,0.0,
0.8872,3.7766489415141367,3.747440380267727,3.8276860661775483,0.0,0.0,-0.029124956258045367,3.783925129319804,0.0,0.0,0.0,0.0,0.0,0.0,0.0,0.0,0.0,0.0,0.0,0.0,15346.088534836928,0.0,
0.9046,3.777935604521101,3.748701337296671,3.829009324642351,0.0,0.0,-0.029132959801070467,3.7852154221533745,0.0,0.0,0.0,0.0,0.0,0.0,0.0,0.0,0.0,0.0,0.0,0.0,15649.209823541027,0.0,
0.922,3.779249558573844,3.749989017488496,3.830360645723397,0.0,0.0,-0.02914109771235472,3.786533073928579,0.0,0.0,0.0,0.0,0.0,0.0,0.0,0.0,0.0,0.0,0.0,0.0,15952.450290685963,0.0,
0.9394,3.7805909452899673,3.751303558128664,3.83174017471574,0.0,0.0,-0.02914936856453838,3.7878782260447905,0.0,0.0,0.0,0.0,0.0,0.0,0.0,0.0,0.0,0.0,0.0,0.0,16255.811587893804,0.0,
0.9568,3.781959909876248,3.75264509997073,3.8331480605901627,0.0,0.0,-0.029157770881050222,3.789251023479047,0.0,0.0,0.0,0.0,0.0,0.0,0.0,0.0,0.0,0.0,0.0,0.0,16559.295322154674,0.0,
0.9742,3.7833566011865924,3.754013787291701,3.8345844560521587,0.0,0.0,-0.02916630313459154,3.7906516148434846,0.0,0.0,0.0,0.0,0.0,0.0,0.0,0.0,0.0,0.0,0.0,0.0,16862.90305413639,0.0,
0.9915,3.7847729046468395,3.755401666807299,3.8360410155055584,0.0,0.0,-0.02917491360828825,3.792071862319899,0.0,0.0,0.0,0.0,0.0,0.0,0.0,0.0,0.0,0.0,0.0,0.0,17164.890341694867,0.0,
1.0089,3.7862253492780478,3.7568249341289817,3.8375347373688156,0.0,0.0,-0.029183700219624218,3.793528340258615,0.0,0.0,0.0,0.0,0.0,0.0,0.0,0.0,0.0,0.0,0.0,0.0,17468.749823199065,0.0,
1.0263,3.7877059887534887,3.758275800577993,3.8390574490062597,0.0,0.0,-0.029192611875555167,3.795013079445914,0.0,0.0,0.0,0.0,0.0,0.0,0.0,0.0,0.0,0.0,0.0,0.0,17772.73768069978,0.0,
1.0437,3.7892149871100447,3.759754425092102,3.840609318666576,0.0,0.0,-0.029201646829859942,3.7965262436229072,0.0,0.0,0.0,0.0,0.0,0.0,0.0,0.0,0.0,0.0,0.0,0.0,18076.855271725333,0.0,
1.0611,3.790752512349974,3.761260970436045,3.8421905186566545,0.0,0.0,-0.029210803277113104,3.798068000480891,0.0,0.0,0.0,0.0,0.0,0.0,0.0,0.0,0.0,0.0,0.0,0.0,18381.10389807282,0.0,
1.0785,3.792318736510693,3.7627956032681715,3.8438012254127094,0.0,0.0,-0.029220079350792058,3.799638521730525,0.0,0.0,0.0,0.0,0.0,0.0,0.0,0.0,0.0,0.0,0.0,0.0,18685.48480371139,0.0,
1.0959,3.7939138357370537,3.7643584942092625,3.845441619573555,0.0,0.0,-0.029229473121311383,3.8012379831732903,0.0,0.0,0.0,0.0,0.0,0.0,0.0,0.0,0.0,0.0,0.0,0.0,18989.99917260686,0.0,
1.1133,3.795537990355655,3.765949817913372,3.8471118860563074,0.0,0.0,-0.02923898259398437,3.802866564775112,0.0,0.0,0.0,0.0,0.0,0.0,0.0,0.0,0.0,0.0,0.0,0.0,19294.648126465134,0.0,
1.1307,3.7971913849517107,3.7675697531410552,3.848812214134306,0.0,0.0,-0.029248605706906135,3.8045244507423575,0.0,0.0,0.0,0.0,0.0,0.0,0.0,0.0,0.0,0.0,0.0,0.0,19599.432722390145,0.0,
1.1481,3.7988742084482823,3.769218482834773,3.8505427975177,0.0,0.0,-0.02925834032875669,3.8062118296002523,0.0,0.0,0.0,0.0,0.0,0.0,0.0,0.0,0.0,0.0,0.0,0.0,19904.353950452925,0.0,
1.1655,3.800586654187936,3.7708961941967454,3.852303834436434,0.0,0.0,-0.029268184256521543,3.807928894273705,0.0,0.0,0.0,0.0,0.0,0.0,0.0,0.0,0.0,0.0,0.0,0.0,20209.412731168406,0.0,
1.1829,3.8023289200171804,3.7726030787692126,3.854095527725905,0.0,0.0,-0.029278135213125157,3.809675842170766,0.0,0.0,0.0,0.0,0.0,0.0,0.0,0.0,0.0,0.0,0.0,0.0,20514.609912875294,0.0,
1.2003,3.804101208373438,3.7743393325172607,3.855918084915335,0.0,0.0,-0.029288190844973815,3.811452875268678,0.0,0.0,0.0,0.0,0.0,0.0,0.0,0.0,0.0,0.0,0.0,0.0,20819.946269014985,0.0,
1.2177,3.8059037263748436,3.7761051559141996,3.8577717183188507,0.0,0.0,-0.02929834871940544,3.8132602002026315,0.0,0.0,0.0,0.0,0.0,0.0,0.0,0.0,0.0,0.0,0.0,0.0,21125.42249530537,0.0,
1.2351,3.8077366859128836,3.7779007540297287,3.8596566451297276,0.0,0.0,-0.0293086063220411,3.815098028357447,0.0,0.0,0.0,0.0,0.0,0.0,0.0,0.0,0.0,0.0,0.0,0.0,21431.039206804497,0.0,
1.2525,3.8096003037480157,3.7797263366207856,3.8615730875171415,0.0,0.0,-0.02931896105403572,3.816966575961981,0.0,0.0,0.0,0.0,0.0,0.0,0.0,0.0,0.0,0.0,0.0,0.0,21736.79693485975,0.0,
1.2699,3.811494801608294,3.781582118225309,3.8635212727265276,0.0,0.0,-0.029329410229222194,3.8188660641867105,0.0,0.0,0.0,0.0,0.0,0.0,0.0,0.0,0.0,0.0,0.0,0.0,22042.69612393692,0.0,
1.2873,3.813420406291264,3.7834683182590227,3.8655014331827484,0.0,0.0,-0.029339951071146085,3.820796719244345,0.0,0.0,0.0,0.0,0.0,0.0,0.0,0.0,0.0,0.0,0.0,0.0,22348.73712832437,0.0,
1.3047,3.8153773497689376,3.7853851611152263,3.8675138065967474,0.0,0.0,-0.029350580709984968,3.822758772493637,0.0,0.0,0.0,0.0,0.0,0.0,0.0,0.0,0.0,0.0,0.0,0.0,22654.920208706273,0.0,
1.3221,3.8173658692963888,3.787332876267799,3.8695586360755128,0.0,0.0,-0.029361296179348607,3.8247524605465664,0.0,0.0,0.0,0.0,0.0,0.0,0.0,0.0,0.0,0.0,0.0,0.0,22961.245528599455,0.0,
1.3395,3.8193862075236393,3.789311698377462,3.8716361702356887,0.0,0.0,-0.029372094412954342,3.82677802537893,0.0,0.0,0.0,0.0,0.0,0.0,0.0,0.0,0.0,0.0,0.0,0.0,23267.713150647396,0.0,
1.3569,3.821438612611252,3.7913218674015052,3.8737466633206883,0.0,0.0,-0.029382972241172516,3.828835714444482,0.0,0.0,0.0,0.0,0.0,0.0,0.0,0.0,0.0,0.0,0.0,0.0,23574.323032765147,0.0,
1.3743,3.8235233383497613,3.7933636287069183,3.8758903753217173,0.0,0.0,-0.02939392638743725,3.8309257807927986,0.0,0.0,0.0,0.0,0.0,0.0,0.0,0.0,0.0,0.0,0.0,0.0,23881.075024128622,0.0,
1.3916,3.825628382273427,3.795425224458205,3.8780549632964214,0.0,0.0,-0.029404889888735845,3.833036190009351,0.0,0.0,0.0,0.0,0.0,0.0,0.0,0.0,0.0,0.0,0.0,0.0,24186.204698723817,0.0,
1.409,3.827778344287387,3.79753074342945,3.8802657219306913,0.0,0.0,-0.029415986006055484,3.835191603215843,0.0,0.0,0.0,0.0,0.0,0.0,0.0,0.0,0.0,0.0,0.0,0.0,24493.239188411648,0.0,
1.4264,3.8299614217783557,3.7996686229047985,3.882510513595012,0.0,0.0,-0.029427147953200842,3.8373801860927217,0.0,0.0,0.0,0.0,0.0,0.0,0.0,0.0,0.0,0.0,0.0,0.0,24800.414643083055,0.0,
1.4438,3.832177892294022,3.8018391310628536,3.8847896225253526,0.0,0.0,-0.029438371987759622,3.8396022152940765,0.0,0.0,0.0,0.0,0.0,0.0,0.0,0.0,0.0,0.0,0.0,0.0,25107.730434213943,0.0,
1.4612,3.834428039669071,3.8040425421144994,3.8871033393710195,0.0,0.0,-0.02944965424021279,3.841857973718197,0.0,0.0,0.0,0.0,0.0,0.0,0.0,0.0,0.0,0.0,0.0,0.0,25415.18580191488,0.0,
1.4786,3.836712154170034,3.806279136440068,3.8894519613414227,0.0,0.0,-0.02946099070940084,3.844147750650508,0.0,0.0,0.0,0.0,0.0,0.0,0.0,0.0,0.0,0.0,0.0,0.0,25722.779849823964,0.0,
1.496,3.839030532644955,3.8085492007309,3.891835792357413,0.0,0.0,-0.029472377257806413,3.8464718419110895,0.0,0.0,0.0,0.0,0.0,0.0,0.0,0.0,0.0,0.0,0.0,0.0,26030.511539785566,0.0,
1.5134,3.841383478678064,3.810853028135584,3.8942551432079404,0.0,0.0,-0.029483809606647548,3.848830550007196,0.0,0.0,0.0,0.0,0.0,0.0,0.0,0.0,0.0,0.0,0.0,0.0,26338.379686305754,0.0,
1.5308,3.843771302749744,3.8131909184111676,3.8967103317117355,0.0,0.0,-0.029495283330768254,3.8512241842908828,0.0,0.0,0.0,0.0,0.0,0.0,0.0,0.0,0.0,0.0,0.0,0.0,26646.38295077202,0.0,
1.5482,3.846194322401643,3.81556317807925,3.8992016828844593,0.0,0.0,-0.02950679385332443,3.853653061121784,0.0,0.0,0.0,0.0,0.0,0.0,0.0,0.0,0.0,0.0,0.0,0.0,26954.519835429088,0.0,
1.5656,3.8486528624076453,3.8179701205873724,3.901729529111505,0.0,0.0,-0.029518336440248455,3.8561175040355073,0.0,0.0,0.0,0.0,0.0,0.0,0.0,0.0,0.0,0.0,0.0,0.0,27262.78867709587,0.0,
1.583,3.8511472549506194,3.8204120664758703,3.9042942103266394,0.0,0.0,-0.029529906194487626,3.8586178439177097,0.0,0.0,0.0,0.0,0.0,0.0,0.0,0.0,0.0,0.0,0.0,0.0,27571.187640613593,0.0,
1.6004,3.853677839805015,3.8228893435501994,3.9068960741966707,0.0,0.0,-0.029541498050003518,3.8611544191839613,0.0,0.0,0.0,0.0,0.0,0.0,0.0,0.0,0.0,0.0,0.0,0.0,27879.714712010908,0.0,
1.6178,3.856244964525959,3.825402287059337,3.909535476312377,0.0,0.0,-0.029553106765521187,3.8637275759658913,0.0,0.0,0.0,0.0,0.0,0.0,0.0,0.0,0.0,0.0,0.0,0.0,28188.367691372165,0.0,
1.6352,3.858848984644854,3.8279512398800715,3.912212780386223,0.0,0.0,-0.02956472691801729,3.866337668303716,0.0,0.0,0.0,0.0,0.0,0.0,0.0,0.0,0.0,0.0,0.0,0.0,28497.14418539483,0.0,
1.6526,3.861490263871657,3.830536552707686,3.9149283584564776,0.0,0.0,-0.02957635289593506,3.868985058345274,0.0,0.0,0.0,0.0,0.0,0.0,0.0,0.0,0.0,0.0,0.0,0.0,28806.04159962063,0.0,
1.67,3.8641691743043385,3.833158584253194,3.9176825910989215,0.0,0.0,-0.029587978892112156,3.8716701165521514,0.0,0.0,0.0,0.0,0.0,0.0,0.0,0.0,0.0,0.0,0.0,0.0,29115.05713032397,0.0,
1.6874,3.8668860966456813,3.8358177014474033,3.92047586764536,0.0,0.0,-0.029599598896408223,3.8743932219128148,0.0,0.0,0.0,0.0,0.0,0.0,0.0,0.0,0.0,0.0,0.0,0.0,29424.187756040687,0.0,
1.7048,3.8696414204276746,3.8385142796521268,3.923308586410321,0.0,0.0,-0.029611206688018397,3.8771547621633746,0.0,0.0,0.0,0.0,0.0,0.0,0.0,0.0,0.0,0.0,0.0,0.0,29733.430228719393,0.0,
1.7222,3.872435544243945,3.841248702878652,3.9261811549253984,0.0,0.0,-0.029622795827456732,3.8799551340159986,0.0,0.0,0.0,0.0,0.0,0.0,0.0,0.0,0.0,0.0,0.0,0.0,30042.78106447601,0.0,
1.7396,3.8752688759905003,3.844021364014075,3.929093990181997,0.0,0.0,-0.0296343596481933,3.882794743395524,0.0,0.0,0.0,0.0,0.0,0.0,0.0,0.0,0.0,0.0,0.0,0.0,30352.23653393127,0.0,
1.757,3.8781418331150874,3.846832665055511,3.932047518882833,0.0,0.0,-0.02964589124793036,3.885674005684477,0.0,0.0,0.0,0.0,0.0,0.0,0.0,0.0,0.0,0.0,0.0,0.0,30661.792652110875,0.0,
1.7743,3.8810379861821014,3.849666523651473,3.935024848664773,0.0,0.0,-0.029657317558598323,3.888576452832782,0.0,0.0,0.0,0.0,0.0,0.0,0.0,0.0,0.0,0.0,0.0,0.0,30969.665288776847,0.0,
1.7917,3.8839912519442277,3.8525561200849454,3.938060844273323,0.0,0.0,-0.029668763310878997,3.8915360721008323,0.0,0.0,0.0,0.0,0.0,0.0,0.0,0.0,0.0,0.0,0.0,0.0,31279.409159308543,0.0,
1.8091,3.8869854527662313,3.855485617040917,3.941138871693525,0.0,0.0,-0.02968015467241966,3.894536647166891,0.0,0.0,0.0,0.0,0.0,0.0,0.0,0.0,0.0,0.0,0.0,0.0,31589.240110546823,0.0,
1.8265,3.8900210469207446,3.8584554554121944,3.9442593991101105,0.0,0.0,-0.029691483704313428,3.8975786338143497,0.0,0.0,0.0,0.0,0.0,0.0,0.0,0.0,0.0,0.0,0.0,0.0,31899.153026321612,0.0,
1.8439,3.8930985036204806,3.861466086503433,3.9474229058173425,0.0,0.0,-0.029702742182227147,3.9006624986470855,0.0,0.0,0.0,0.0,0.0,0.0,0.0,0.0,0.0,0.0,0.0,0.0,32209.14247703522,0.0,
1.8613,3.89621830332772,3.864517972321056,3.950629882530521,0.0,0.0,-0.029713921585092392,3.903788719393099,0.0,0.0,0.0,0.0,0.0,0.0,0.0,0.0,0.0,0.0,0.0,0.0,32519.202706415734,0.0,
