energies(eV),real_xx,real_yy,real_zz,real_xy,real_yz,real_xz,real_ave,imag_xx,imag_yy,imag_zz,imag_xy,imag_yz,imag_xz,imag_ave,absorption_xx,absorption_yy,absorption_zz,absorption_xy,absorption_yz,absorption_xz,absorption_ave,band_gap
0.0,4.218475316812716,4.218475316812716,4.059220989074914,0.0,0.0,0.0,4.165390540900115,0.0,0.0,0.0,0.0,0.0,0.0,0.0,0.0,0.0,0.0,0.0,0.0,0.0,0.0,3.2582999999999998
0.0195,4.218503778125882,4.218503778125882,4.059244117733283,0.0,0.0,0.0,4.165417224661682,0.0,0.0,0.0,0.0,0.0,0.0,0.0,0.0,0.0,0.0,0.0,0.0,0.0,0.0,
0.039,4.218589166988917,4.218589166988917,4.059313507104795,0.0,0.0,0.0,4.165497280360876,0.0,0.0,0.0,0.0,0.0,0.0,0.0,0.0,0.0,0.0,0.0,0.0,0.0,0.0,
0.0586,4.218732374871345,4.218732374871345,4.059429879787984,0.0,0.0,0.0,4.165631543176891,0.0,0.0,0.0,0.0,0.0,0.0,0.0,0.0,0.0,0.0,0.0,0.0,0.0,0.0,
0.0781,4.2189319652298085,4.2189319652298085,4.059592065386641,0.0,0.0,0.0,4.165818665282086,0.0,0.0,0.0,0.0,0.0,0.0,0.0,0.0,0.0,0.0,0.0,0.0,0.0,0.0,
0.0976,4.219188557246016,4.219188557246016,4.05980056281567,0.0,0.0,0.0,4.166059225769234,0.0,0.0,0.0,0.0,0.0,0.0,0.0,0.0,0.0,0.0,0.0,0.0,0.0,0.0,
0.1171,4.219502195361741,4.219502195361741,4.060055402724998,0.0,0.0,0.0,4.166353264482827,0.0,0.0,0.0,0.0,0.0,0.0,0.0,0.0,0.0,0.0,0.0,0.0,0.0,0.0,
0.1367,4.219874982424354,4.219874982424354,4.06035828692036,0.0,0.0,0.0,4.16670275058969,0.0,0.0,0.0,0.0,0.0,0.0,0.0,0.0,0.0,0.0,0.0,0.0,0.0,0.0,
0.1562,4.220303179083005,4.220303179083005,4.060706169285959,0.0,0.0,0.0,4.167104175817323,0.0,0.0,0.0,0.0,0.0,0.0,0.0,0.0,0.0,0.0,0.0,0.0,0.0,0.0,
0.1757,4.220788615176465,4.220788615176465,4.061100527428401,0.0,0.0,0.0,4.167559252593777,0.0,0.0,0.0,0.0,0.0,0.0,0.0,0.0,0.0,0.0,0.0,0.0,0.0,0.0,
0.1952,4.221331375049284,4.221331375049284,4.061541419479397,0.0,0.0,0.0,4.168068056525988,0.0,0.0,0.0,0.0,0.0,0.0,0.0,0.0,0.0,0.0,0.0,0.0,0.0,0.0,
0.2148,4.221934779102476,4.221934779102476,4.062031530664198,0.0,0.0,0.0,4.168633696289716,0.0,0.0,0.0,0.0,0.0,0.0,0.0,0.0,0.0,0.0,0.0,0.0,0.0,0.0,
0.2343,4.222592775147853,4.222592775147853,4.062565932178895,0.0,0.0,0.0,4.1692504941582005,0.0,0.0,0.0,0.0,0.0,0.0,0.0,0.0,0.0,0.0,0.0,0.0,0.0,0.0,
0.2538,4.223308409212027,4.223308409212027,4.06314708407298,0.0,0.0,0.0,4.169921300832345,0.0,0.0,0.0,0.0,0.0,0.0,0.0,0.0,0.0,0.0,0.0,0.0,0.0,0.0,
0.2733,4.224081806275777,4.224081806275777,4.063775072394925,0.0,0.0,0.0,4.170646228315493,0.0,0.0,0.0,0.0,0.0,0.0,0.0,0.0,0.0,0.0,0.0,0.0,0.0,0.0,
0.2929,4.224917514140479,4.224917514140479,4.0644535724921615,0.0,0.0,0.0,4.1714295335910405,0.0,0.0,0.0,0.0,0.0,0.0,0.0,0.0,0.0,0.0,0.0,0.0,0.0,0.0,
0.3124,4.225807151484778,4.225807151484778,4.065175761559548,0.0,0.0,0.0,4.172263354843035,0.0,0.0,0.0,0.0,0.0,0.0,0.0,0.0,0.0,0.0,0.0,0.0,0.0,0.0,
0.3319,4.226754989716254,4.226754989716254,4.065945088325552,0.0,0.0,0.0,4.173151689252687,0.0,0.0,0.0,0.0,0.0,0.0,0.0,0.0,0.0,0.0,0.0,0.0,0.0,0.0,
0.3514,4.227761195548258,4.227761195548258,4.06676166740424,0.0,0.0,0.0,4.174094686166918,0.0,0.0,0.0,0.0,0.0,0.0,0.0,0.0,0.0,0.0,0.0,0.0,0.0,0.0,
0.371,4.228831557794061,4.228831557794061,4.067630173513217,0.0,0.0,0.0,4.17509776303378,0.0,0.0,0.0,0.0,0.0,0.0,0.0,0.0,0.0,0.0,0.0,0.0,0.0,0.0,
0.3905,4.229955343304174,4.229955343304174,4.068541874107757,0.0,0.0,0.0,4.176150853572035,0.0,0.0,0.0,0.0,0.0,0.0,0.0,0.0,0.0,0.0,0.0,0.0,0.0,0.0,
0.41,4.2311380618131125,4.2311380618131125,4.069501215368825,0.0,0.0,0.0,4.17725911299835,0.0,0.0,0.0,0.0,0.0,0.0,0.0,0.0,0.0,0.0,0.0,0.0,0.0,0.0,
0.4295,4.232379923246248,4.232379923246248,4.070508341349292,0.0,0.0,0.0,4.178422729280596,0.0,0.0,0.0,0.0,0.0,0.0,0.0,0.0,0.0,0.0,0.0,0.0,0.0,0.0,
0.4491,4.233687974937797,4.233687974937797,4.071568938006667,0.0,0.0,0.0,4.179648295960754,0.0,0.0,0.0,0.0,0.0,0.0,0.0,0.0,0.0,0.0,0.0,0.0,0.0,0.0,
0.4686,4.235049102628405,4.235049102628405,4.0726723427808755,0.0,0.0,0.0,4.180923516012562,0.0,0.0,0.0,0.0,0.0,0.0,0.0,0.0,0.0,0.0,0.0,0.0,0.0,0.0,
0.4881,4.236470071206586,4.236470071206586,4.073824010689799,0.0,0.0,0.0,4.1822547177009906,0.0,0.0,0.0,0.0,0.0,0.0,0.0,0.0,0.0,0.0,0.0,0.0,0.0,0.0,
0.5076,4.237951135700758,4.237951135700758,4.075024116337596,0.0,0.0,0.0,4.183642129246371,0.0,0.0,0.0,0.0,0.0,0.0,0.0,0.0,0.0,0.0,0.0,0.0,0.0,0.0,
0.5272,4.239500623545336,4.239500623545336,4.07627937151278,0.0,0.0,0.0,4.185093539534484,0.0,0.0,0.0,0.0,0.0,0.0,0.0,0.0,0.0,0.0,0.0,0.0,0.0,0.0,
0.5467,4.241103003258479,4.241103003258479,4.077577158680253,0.0,0.0,0.0,4.18659438839907,0.0,0.0,0.0,0.0,0.0,0.0,0.0,0.0,0.0,0.0,0.0,0.0,0.0,0.0,
0.5662,4.2427663157596,4.2427663157596,4.078923955787433,0.0,0.0,0.0,4.188152195768878,0.0,0.0,0.0,0.0,0.0,0.0,0.0,0.0,0.0,0.0,0.0,0.0,0.0,0.0,
0.5857,4.244490863519627,4.244490863519627,4.080319969360231,0.0,0.0,0.0,4.189767232133161,0.0,0.0,0.0,0.0,0.0,0.0,0.0,0.0,0.0,0.0,0.0,0.0,0.0,0.0,
0.6053,4.246286279940433,4.246286279940433,4.081772954455624,0.0,0.0,0.0,4.19144850477883,0.0,0.0,0.0,0.0,0.0,0.0,0.0,0.0,0.0,0.0,0.0,0.0,0.0,0.0,
0.6248,4.248134573068365,4.248134573068365,4.083268308737232,0.0,0.0,0.0,4.193179151624654,0.0,0.0,0.0,0.0,0.0,0.0,0.0,0.0,0.0,0.0,0.0,0.0,0.0,0.0,
0.6443,4.250045084993841,4.250045084993841,4.084813550004733,0.0,0.0,0.0,4.1949679066641385,0.0,0.0,0.0,0.0,0.0,0.0,0.0,0.0,0.0,0.0,0.0,0.0,0.0,0.0,
0.6638,4.252018168465032,4.252018168465032,4.086408918358282,0.0,0.0,0.0,4.196815085096115,0.0,0.0,0.0,0.0,0.0,0.0,0.0,0.0,0.0,0.0,0.0,0.0,0.0,0.0,
0.6834,4.254064793273898,4.254064793273898,4.0880632325595165,0.0,0.0,0.0,4.198730939702437,0.0,0.0,0.0,0.0,0.0,0.0,0.0,0.0,0.0,0.0,0.0,0.0,0.0,0.0,
0.7029,4.256164456235808,4.256164456235808,4.089759870556398,0.0,0.0,0.0,4.200696261009338,0.0,0.0,0.0,0.0,0.0,0.0,0.0,0.0,0.0,0.0,0.0,0.0,0.0,0.0,
0.7224,4.258327830278861,4.258327830278861,4.091507409903102,0.0,0.0,0.0,4.202721023486942,0.0,0.0,0.0,0.0,0.0,0.0,0.0,0.0,0.0,0.0,0.0,0.0,0.0,0.0,
0.7419,4.260555321816653,4.260555321816653,4.0933061262382395,0.0,0.0,0.0,4.204805589957182,0.0,0.0,0.0,0.0,0.0,0.0,0.0,0.0,0.0,0.0,0.0,0.0,0.0,0.0,
0.7615,4.262859272332081,4.262859272332081,4.095165925646123,0.0,0.0,0.0,4.206961490103429,0.0,0.0,0.0,0.0,0.0,0.0,0.0,0.0,0.0,0.0,0.0,0.0,0.0,0.0,
0.781,4.265216608695061,4.265216608695061,4.097068126092191,0.0,0.0,0.0,4.209167114494105,0.0,0.0,0.0,0.0,0.0,0.0,0.0,0.0,0.0,0.0,0.0,0.0,0.0,0.0,
0.8005,4.2676393691824135,4.2676393691824135,4.099022387947065,0.0,0.0,0.0,4.211433708770631,0.0,0.0,0.0,0.0,0.0,0.0,0.0,0.0,0.0,0.0,0.0,0.0,0.0,0.0,
0.82,4.270128017887292,4.270128017887292,4.101029024700083,0.0,0.0,0.0,4.213761686824889,0.0,0.0,0.0,0.0,0.0,0.0,0.0,0.0,0.0,0.0,0.0,0.0,0.0,0.0,
0.8396,4.272696308549438,4.272696308549438,4.103099056775555,0.0,0.0,0.0,4.216163891291477,0.0,0.0,0.0,0.0,0.0,0.0,0.0,0.0,0.0,0.0,0.0,0.0,0.0,0.0,
0.8591,4.275318530894955,4.275318530894955,4.10521169622603,0.0,0.0,0.0,4.21861625267198,0.0,0.0,0.0,0.0,0.0,0.0,0.0,0.0,0.0,0.0,0.0,0.0,0.0,0.0,
0.8786,4.278008128287615,4.278008128287615,4.107377712674522,0.0,0.0,0.0,4.221131323083251,0.0,0.0,0.0,0.0,0.0,0.0,0.0,0.0,0.0,0.0,0.0,0.0,0.0,0.0,
0.8981,4.28076562722862,4.28076562722862,4.109597460165774,0.0,0.0,0.0,4.223709571541004,0.0,0.0,0.0,0.0,0.0,0.0,0.0,0.0,0.0,0.0,0.0,0.0,0.0,0.0,
0.9177,4.283606240005401,4.283606240005401,4.111883104137689,0.0,0.0,0.0,4.226365194716164,0.0,0.0,0.0,0.0,0.0,0.0,0.0,0.0,0.0,0.0,0.0,0.0,0.0,0.0,
0.9372,4.286501542898959,4.286501542898959,4.114211698772653,0.0,0.0,0.0,4.229071594856857,0.0,0.0,0.0,0.0,0.0,0.0,0.0,0.0,0.0,0.0,0.0,0.0,0.0,0.0,
0.9567,4.289466429780166,4.289466429780166,4.116595153009661,0.0,0.0,0.0,4.231842670856665,0.0,0.0,0.0,0.0,0.0,0.0,0.0,0.0,0.0,0.0,0.0,0.0,0.0,0.0,
0.9762,4.292501495110502,4.292501495110502,4.119033864599791,0.0,0.0,0.0,4.234678951606932,0.0,0.0,0.0,0.0,0.0,0.0,0.0,0.0,0.0,0.0,0.0,0.0,0.0,0.0,
0.9958,4.29562346228656,4.29562346228656,4.121541178626117,0.0,0.0,0.0,4.237596034399746,0.0,0.0,0.0,0.0,0.0,0.0,0.0,0.0,0.0,0.0,0.0,0.0,0.0,0.0,
1.0153,4.298801108015937,4.298801108015937,4.124091932995398,0.0,0.0,0.0,4.240564716342424,0.0,0.0,0.0,0.0,0.0,0.0,0.0,0.0,0.0,0.0,0.0,0.0,0.0,0.0,
1.0348,4.302050828320491,4.302050828320491,4.126699209952112,0.0,0.0,0.0,4.243600288864364,0.0,0.0,0.0,0.0,0.0,0.0,0.0,0.0,0.0,0.0,0.0,0.0,0.0,0.0,
1.0543,4.305373292131291,4.305373292131291,4.12936345461654,0.0,0.0,0.0,4.246703346293041,0.0,0.0,0.0,0.0,0.0,0.0,0.0,0.0,0.0,0.0,0.0,0.0,0.0,0.0,
1.0739,4.308786793432564,4.308786793432564,4.132099230660593,0.0,0.0,0.0,4.24989093917524,0.0,0.0,0.0,0.0,0.0,0.0,0.0,0.0,0.0,0.0,0.0,0.0,0.0,0.0,
1.0934,4.312257212561617,4.312257212561617,4.134879094374209,0.0,0.0,0.0,4.253131173165815,0.0,0.0,0.0,0.0,0.0,0.0,0.0,0.0,0.0,0.0,0.0,0.0,0.0,0.0,
1.1129,4.315802506200409,4.315802506200409,4.137717339573627,0.0,0.0,0.0,4.256440783991482,0.0,0.0,0.0,0.0,0.0,0.0,0.0,0.0,0.0,0.0,0.0,0.0,0.0,0.0,
1.1324,4.31942342538127,4.31942342538127,4.14061446300273,0.0,0.0,0.0,4.259820437921757,0.0,0.0,0.0,0.0,0.0,0.0,0.0,0.0,0.0,0.0,0.0,0.0,0.0,0.0,
1.152,4.323139901837378,4.323139901837378,4.143586290593351,0.0,0.0,0.0,4.26328869808937,0.0,0.0,0.0,0.0,0.0,0.0,0.0,0.0,0.0,0.0,0.0,0.0,0.0,0.0,
1.1715,4.326914811092141,4.326914811092141,4.146603024179564,0.0,0.0,0.0,4.266810882121282,0.0,0.0,0.0,0.0,0.0,0.0,0.0,0.0,0.0,0.0,0.0,0.0,0.0,0.0,
1.191,4.330767736624663,4.330767736624663,4.149680212104155,0.0,0.0,0.0,4.27040522845116,0.0,0.0,0.0,0.0,0.0,0.0,0.0,0.0,0.0,0.0,0.0,0.0,0.0,0.0,
1.2105,4.334699520525603,4.334699520525603,4.152818407678064,0.0,0.0,0.0,4.274072482909756,0.0,0.0,0.0,0.0,0.0,0.0,0.0,0.0,0.0,0.0,0.0,0.0,0.0,0.0,
1.2301,4.338731808031545,4.338731808031545,4.15603474797884,0.0,0.0,0.0,4.277832788013977,0.0,0.0,0.0,0.0,0.0,0.0,0.0,0.0,0.0,0.0,0.0,0.0,0.0,0.0,
1.2496,4.342824348626017,4.342824348626017,4.159296999400157,0.0,0.0,0.0,4.28164856555073,0.0,0.0,0.0,0.0,0.0,0.0,0.0,0.0,0.0,0.0,0.0,0.0,0.0,0.0,
1.2691,4.34699842725724,4.34699842725724,4.162622012938933,0.0,0.0,0.0,4.285539622484471,0.0,0.0,0.0,0.0,0.0,0.0,0.0,0.0,0.0,0.0,0.0,0.0,0.0,0.0,
1.2886,4.3512549876094475,4.3512549876094475,4.166010404224844,0.0,0.0,0.0,4.289506793147913,0.0,0.0,0.0,0.0,0.0,0.0,0.0,0.0,0.0,0.0,0.0,0.0,0.0,0.0,
1.3082,4.355617473853629,4.355617473853629,4.169480676155025,0.0,0.0,0.0,4.293571874620761,0.0,0.0,0.0,0.0,0.0,0.0,0.0,0.0,0.0,0.0,0.0,0.0,0.0,0.0,
1.3277,4.360042374107014,4.360042374107014,4.1729980698067894,0.0,0.0,0.0,4.297694272673605,0.0,0.0,0.0,0.0,0.0,0.0,0.0,0.0,0.0,0.0,0.0,0.0,0.0,0.0,
1.3472,4.364552759076576,4.364552759076576,4.176580792701991,0.0,0.0,0.0,4.301895436951714,0.0,0.0,0.0,0.0,0.0,0.0,0.0,0.0,0.0,0.0,0.0,0.0,0.0,0.0,
1.3667,4.369149686468394,4.369149686468394,4.180229529495859,0.0,0.0,0.0,4.306176300810883,0.0,0.0,0.0,0.0,0.0,0.0,0.0,0.0,0.0,0.0,0.0,0.0,0.0,0.0,
1.3863,4.373858495791736,4.373858495791736,4.183964210043562,0.0,0.0,0.0,4.310560400542344,0.0,0.0,0.0,0.0,0.0,0.0,0.0,0.0,0.0,0.0,0.0,0.0,0.0,0.0,
1.4058,4.378632262838893,4.378632262838893,4.187747450479023,0.0,0.0,0.0,4.31500399205227,0.0,0.0,0.0,0.0,0.0,0.0,0.0,0.0,0.0,0.0,0.0,0.0,0.0,0.0,
1.4253,4.383495939280111,4.383495939280111,4.191598875137436,0.0,0.0,0.0,4.319530251232553,0.0,0.0,0.0,0.0,0.0,0.0,0.0,0.0,0.0,0.0,0.0,0.0,0.0,0.0,
1.4448,4.3884507115609575,4.3884507115609575,4.195519245543352,0.0,0.0,0.0,4.324140222888422,0.0,0.0,0.0,0.0,0.0,0.0,0.0,0.0,0.0,0.0,0.0,0.0,0.0,0.0,
1.4644,4.393523923463734,4.393523923463734,4.199529986914456,0.0,0.0,0.0,4.328859277947308,0.0,0.0,0.0,0.0,0.0,0.0,0.0,0.0,0.0,0.0,0.0,0.0,0.0,0.0,
1.4839,4.398665070081943,4.398665070081943,4.203590980071588,0.0,0.0,0.0,4.333640373411825,0.0,0.0,0.0,0.0,0.0,0.0,0.0,0.0,0.0,0.0,0.0,0.0,0.0,0.0,
1.5034,4.403901091732445,4.403901091732445,4.207723333669726,0.0,0.0,0.0,4.3385085057115385,0.0,0.0,0.0,0.0,0.0,0.0,0.0,0.0,0.0,0.0,0.0,0.0,0.0,0.0,
1.5229,4.409233321107957,4.409233321107957,4.21192789531002,0.0,0.0,0.0,4.343464845841978,0.0,0.0,0.0,0.0,0.0,0.0,0.0,0.0,0.0,0.0,0.0,0.0,0.0,0.0,
1.5425,4.414691229613906,4.414691229613906,4.216227662197623,0.0,0.0,0.0,4.348536707141812,0.0,0.0,0.0,0.0,0.0,0.0,0.0,0.0,0.0,0.0,0.0,0.0,0.0,0.0,
1.562,4.420220543777365,4.420220543777365,4.220579657581835,0.0,0.0,0.0,4.353673581712188,0.0,0.0,0.0,0.0,0.0,0.0,0.0,0.0,0.0,0.0,0.0,0.0,0.0,0.0,
1.5815,4.425850314619621,4.425850314619621,4.225006550117115,0.0,0.0,0.0,4.358902393118785,0.0,0.0,0.0,0.0,0.0,0.0,0.0,0.0,0.0,0.0,0.0,0.0,0.0,0.0,
1.601,4.431582042017885,4.431582042017885,4.229509284336871,0.0,0.0,0.0,4.364224456124213,0.0,0.0,0.0,0.0,0.0,0.0,0.0,0.0,0.0,0.0,0.0,0.0,0.0,0.0,
1.6206,4.437447465060661,4.437447465060661,4.234112515421536,0.0,0.0,0.0,4.369669148514286,0.0,0.0,0.0,0.0,0.0,0.0,0.0,0.0,0.0,0.0,0.0,0.0,0.0,0.0,
1.6401,4.443388331917909,4.443388331917909,4.238770273575268,0.0,0.0,0.0,4.375182312470362,0.0,0.0,0.0,0.0,0.0,0.0,0.0,0.0,0.0,0.0,0.0,0.0,0.0,0.0,
1.6596,4.449435943063698,4.449435943063698,4.243506872451494,0.0,0.0,0.0,4.3807929195262965,0.0,0.0,0.0,0.0,0.0,0.0,0.0,0.0,0.0,0.0,0.0,0.0,0.0,0.0,
1.6791,4.455591990750051,4.455591990750051,4.248323366380172,0.0,0.0,0.0,4.386502449293425,0.0,0.0,0.0,0.0,0.0,0.0,0.0,0.0,0.0,0.0,0.0,0.0,0.0,0.0,
1.6987,4.461890641334639,4.461890641334639,4.253246165245586,0.0,0.0,0.0,4.392342482638288,0.0,0.0,0.0,0.0,0.0,0.0,0.0,0.0,0.0,0.0,0.0,0.0,0.0,0.0,
1.7182,4.468269430071114,4.468269430071114,4.258226155978235,0.0,0.0,0.0,4.398255005373488,0.0,0.0,0.0,0.0,0.0,0.0,0.0,0.0,0.0,0.0,0.0,0.0,0.0,0.0,
1.7377,4.474762065177672,4.474762065177672,4.263289392936324,0.0,0.0,0.0,4.404271174430556,0.0,0.0,0.0,0.0,0.0,0.0,0.0,0.0,0.0,0.0,0.0,0.0,0.0,0.0,
1.7572,4.481370461795605,4.481370461795605,4.268437055579537,0.0,0.0,0.0,4.410392659723583,0.0,0.0,0.0,0.0,0.0,0.0,0.0,0.0,0.0,0.0,0.0,0.0,0.0,0.0,
1.7767,4.488096596228641,4.488096596228641,4.2736703573451145,0.0,0.0,0.0,4.416621183267465,0.0,0.0,0.0,0.0,0.0,0.0,0.0,0.0,0.0,0.0,0.0,0.0,0.0,0.0,
1.7963,4.494977927914844,4.494977927914844,4.2790180559977635,0.0,0.0,0.0,4.422991303942484,0.0,0.0,0.0,0.0,0.0,0.0,0.0,0.0,0.0,0.0,0.0,0.0,0.0,0.0,
1.8158,4.501946354427858,4.501946354427858,4.284426873819871,0.0,0.0,0.0,4.429439860891862,0.0,0.0,0.0,0.0,0.0,0.0,0.0,0.0,0.0,0.0,0.0,0.0,0.0,0.0,
1.8353,4.509038850969226,4.509038850969226,4.289925194091648,0.0,0.0,0.0,4.436000965343367,0.0,0.0,0.0,0.0,0.0,0.0,0.0,0.0,0.0,0.0,0.0,0.0,0.0,0.0,
1.8548,4.516257664537185,4.516257664537185,4.295514378933922,0.0,0.0,0.0,4.442676569336097,0.0,0.0,0.0,0.0,0.0,0.0,0.0,0.0,0.0,0.0,0.0,0.0,0.0,0.0,
1.8744,4.523643131728381,4.523643131728381,4.301225206970264,0.0,0.0,0.0,4.449503823475675,0.0,0.0,0.0,0.0,0.0,0.0,0.0,0.0,0.0,0.0,0.0,0.0,0.0,0.0,
1.8939,4.531122300715357,4.531122300715357,4.30700085554979,0.0,0.0,0.0,4.4564151523268345,0.0,0.0,0.0,0.0,0.0,0.0,0.0,0.0,0.0,0.0,0.0,0.0,0.0,0.0,
1.9134,4.538735001845188,4.538735001845188,4.312871712486466,0.0,0.0,0.0,4.463447238725614,0.0,0.0,0.0,0.0,0.0,0.0,0.0,0.0,0.0,0.0,0.0,0.0,0.0,0.0,
1.9329,4.546483801181715,4.546483801181715,4.318839311927157,0.0,0.0,0.0,4.470602304763529,0.0,0.0,0.0,0.0,0.0,0.0,0.0,0.0,0.0,0.0,0.0,0.0,0.0,0.0,
1.9525,4.5544121645971485,4.5544121645971485,4.324936598678244,0.0,0.0,0.0,4.477920309290847,0.0,0.0,0.0,0.0,0.0,0.0,0.0,0.0,0.0,0.0,0.0,0.0,0.0,0.0,
1.972,4.562441949503485,4.562441949503485,4.331102992980005,0.0,0.0,0.0,4.485328963995658,0.0,0.0,0.0,0.0,0.0,0.0,0.0,0.0,0.0,0.0,0.0,0.0,0.0,0.0,
1.9915,4.570616092893317,4.570616092893317,4.337371031548944,0.0,0.0,0.0,4.492867739111859,0.0,0.0,0.0,0.0,0.0,0.0,0.0,0.0,0.0,0.0,0.0,0.0,0.0,0.0,
2.011,4.578937540174435,4.578937540174435,4.343742449069061,0.0,0.0,0.0,4.5005391764726435,0.0,0.0,0.0,0.0,0.0,0.0,0.0,0.0,0.0,0.0,0.0,0.0,0.0,0.0,
2.0306,4.587453180646854,4.587453180646854,4.350252522948351,0.0,0.0,0.0,4.5083862947473525,0.0,0.0,0.0,0.0,0.0,0.0,0.0,0.0,0.0,0.0,0.0,0.0,0.0,0.0,
2.0501,4.596079295948292,4.596079295948292,4.356836679417379,0.0,0.0,0.0,4.516331757104655,0.0,0.0,0.0,0.0,0.0,0.0,0.0,0.0,0.0,0.0,0.0,0.0,0.0,0.0,
2.0696,4.604862223888466,4.604862223888466,4.3635297697101985,0.0,0.0,0.0,4.52441807249571,0.0,0.0,0.0,0.0,0.0,0.0,0.0,0.0,0.0,0.0,0.0,0.0,0.0,0.0,
2.0891,4.613805365167595,4.613805365167595,4.370333764207239,0.0,0.0,0.0,4.532648164847476,0.0,0.0,0.0,0.0,0.0,0.0,0.0,0.0,0.0,0.0,0.0,0.0,0.0,0.0,
2.1087,4.6229593785371,4.6229593785371,4.377286464709383,0.0,0.0,0.0,4.541068407261194,0.0,0.0,0.0,0.0,0.0,0.0,0.0,0.0,0.0,0.0,0.0,0.0,0.0,0.0,
2.1282,4.632234534480999,4.632234534480999,4.384319038319256,0.0,0.0,0.0,4.549596035760419,0.0,0.0,0.0,0.0,0.0,0.0,0.0,0.0,0.0,0.0,0.0,0.0,0.0,0.0,
2.1477,4.641680918730229,4.641680918730229,4.391468842059524,0.0,0.0,0.0,4.5582768931733275,0.0,0.0,0.0,0.0,0.0,0.0,0.0,0.0,0.0,0.0,0.0,0.0,0.0,0.0,
2.1672,4.651302484163785,4.651302484163785,4.398738125833822,0.0,0.0,0.0,4.567114364720464,0.0,0.0,0.0,0.0,0.0,0.0,0.0,0.0,0.0,0.0,0.0,0.0,0.0,0.0,
2.1868,4.661154069927369,4.661154069927369,4.406167438518191,0.0,0.0,0.0,4.576158526124309,0.0,0.0,0.0,0.0,0.0,0.0,0.0,0.0,0.0,0.0,0.0,0.0,0.0,0.0,
2.2063,4.67113944173839,4.67113944173839,4.413683390656721,0.0,0.0,0.0,4.5853207580445,0.0,0.0,0.0,0.0,0.0,0.0,0.0,0.0,0.0,0.0,0.0,0.0,0.0,0.0,
2.2258,4.681312847021767,4.681312847021767,4.421326067718873,0.0,0.0,0.0,4.594650587254136,0.0,0.0,0.0,0.0,0.0,0.0,0.0,0.0,0.0,0.0,0.0,0.0,0.0,0.0,
2.2453,4.691678916173975,4.691678916173975,4.429098054430859,0.0,0.0,0.0,4.604151962259603,0.0,0.0,0.0,0.0,0.0,0.0,0.0,0.0,0.0,0.0,0.0,0.0,0.0,0.0,
2.2649,4.702297162240502,4.702297162240502,4.437042907555114,0.0,0.0,0.0,4.613879077345373,0.0,0.0,0.0,0.0,0.0,0.0,0.0,0.0,0.0,0.0,0.0,0.0,0.0,0.0,
2.2844,4.7130642852024724,4.7130642852024724,4.445082346549548,0.0,0.0,0.0,4.623736972318164,0.0,0.0,0.0,0.0,0.0,0.0,0.0,0.0,0.0,0.0,0.0,0.0,0.0,0.0,
2.3039,4.724039193388464,4.724039193388464,4.4532594469590805,0.0,0.0,0.0,4.633779277912002,0.0,0.0,0.0,0.0,0.0,0.0,0.0,0.0,0.0,0.0,0.0,0.0,0.0,0.0,
2.3234,4.735227359464041,4.735227359464041,4.461577199078072,0.0,0.0,0.0,4.644010639335384,0.0,0.0,0.0,0.0,0.0,0.0,0.0,0.0,0.0,0.0,0.0,0.0,0.0,0.0,
2.343,4.746693570824385,4.746693570824385,4.4700824761726405,0.0,0.0,0.0,4.654489872607137,0.0,0.0,0.0,0.0,0.0,0.0,0.0,0.0,0.0,0.0,0.0,0.0,0.0,0.0,
2.3625,4.758326823039795,4.758326823039795,4.478691729446719,0.0,0.0,0.0,4.665115125175436,0.0,0.0,0.0,0.0,0.0,0.0,0.0,0.0,0.0,0.0,0.0,0.0,0.0,0.0,
2.382,4.770191296253893,4.770191296253893,4.487451335364987,0.0,0.0,0.0,4.675944642624258,0.0,0.0,0.0,0.0,0.0,0.0,0.0,0.0,0.0,0.0,0.0,0.0,0.0,0.0,
2.4015,4.782293525953797,4.782293525953797,4.496364781739141,0.0,0.0,0.0,4.686983944548912,0.0,0.0,0.0,0.0,0.0,0.0,0.0,0.0,0.0,0.0,0.0,0.0,0.0,0.0,
2.4211,4.794704315832073,4.794704315832073,4.505482627989379,0.0,0.0,0.0,4.698297086551175,0.0,0.0,0.0,0.0,0.0,0.0,0.0,0.0,0.0,0.0,0.0,0.0,0.0,0.0,
2.4406,4.807304229465103,4.807304229465103,4.514715630952836,0.0,0.0,0.0,4.70977469662768,0.0,0.0,0.0,0.0,0.0,0.0,0.0,0.0,0.0,0.0,0.0,0.0,0.0,0.0,
2.4601,4.8201634792070776,4.8201634792070776,4.524113842255365,0.0,0.0,0.0,4.721480266889841,0.0,0.0,0.0,0.0,0.0,0.0,0.0,0.0,0.0,0.0,0.0,0.0,0.0,0.0,
2.4796,4.833289964939048,4.833289964939048,4.533681368938143,0.0,0.0,0.0,4.733420432938747,0.0,0.0,0.0,0.0,0.0,0.0,0.0,0.0,0.0,0.0,0.0,0.0,0.0,0.0,
2.4992,4.846761440530467,4.846761440530467,4.543472905812207,0.0,0.0,0.0,4.745665262291047,0.0,0.0,0.0,0.0,0.0,0.0,0.0,0.0,0.0,0.0,0.0,0.0,0.0,0.0,
2.5187,4.860449210166301,4.860449210166301,4.553393033390956,0.0,0.0,0.0,4.758097151241186,0.0,0.0,0.0,0.0,0.0,0.0,0.0,0.0,0.0,0.0,0.0,0.0,0.0,0.0,
2.5382,4.874430484439742,4.874430484439742,4.5634959362984615,0.0,0.0,0.0,4.770785635059315,0.0,0.0,0.0,0.0,0.0,0.0,0.0,0.0,0.0,0.0,0.0,0.0,0.0,0.0,
2.5577,4.888714950354805,4.888714950354805,4.5737865053959705,0.0,0.0,0.0,4.783738802035193,0.0,0.0,0.0,0.0,0.0,0.0,0.0,0.0,0.0,0.0,0.0,0.0,0.0,0.0,
2.5773,4.903388513984825,4.903388513984825,4.584324126539961,0.0,0.0,0.0,4.79703371816987,0.0,0.0,0.0,0.0,0.0,0.0,0.0,0.0,0.0,0.0,0.0,0.0,0.0,0.0,
