energies(eV),real_xx,real_yy,real_zz,real_xy,real_yz,real_xz,real_ave,imag_xx,imag_yy,imag_zz,imag_xy,imag_yz,imag_xz,imag_ave,absorption_xx,absorption_yy,absorption_zz,absorption_xy,absorption_yz,absorption_xz,absorption_ave,band_gap
0.0,4.253121443046963,4.253121443046963,4.176434233828234,0.0,0.0,0.0,4.227559039974053,0.0,0.0,0.0,0.0,0.0,0.0,0.0,0.0,0.0,0.0,0.0,0.0,0.0,0.0,4.3351
0.0192,4.253137457070487,4.253137457070487,4.176449480696167,0.0,0.0,0.0,4.227574798279047,0.0,0.0,0.0,0.0,0.0,0.0,0.0,0.0,0.0,0.0,0.0,0.0,0.0,0.0,
0.0383,4.253185167426475,4.253185167426475,4.176494905444666,0.0,0.0,0.0,4.227621746765872,0.0,0.0,0.0,0.0,0.0,0.0,0.0,0.0,0.0,0.0,0.0,0.0,0.0,0.0,
0.0575,4.253265078156824,4.253265078156824,4.176570987873514,0.0,0.0,0.0,4.227700381395721,0.0,0.0,0.0,0.0,0.0,0.0,0.0,0.0,0.0,0.0,0.0,0.0,0.0,0.0,
0.0766,4.2533763642337785,4.2533763642337785,4.176676942321677,0.0,0.0,0.0,4.227809890263078,0.0,0.0,0.0,0.0,0.0,0.0,0.0,0.0,0.0,0.0,0.0,0.0,0.0,0.0,
0.0958,4.253520201356135,4.253520201356135,4.17681388793818,0.0,0.0,0.0,4.227951430216817,0.0,0.0,0.0,0.0,0.0,0.0,0.0,0.0,0.0,0.0,0.0,0.0,0.0,0.0,
0.115,4.253696103756381,4.253696103756381,4.176981361939576,0.0,0.0,0.0,4.228124523150779,0.0,0.0,0.0,0.0,0.0,0.0,0.0,0.0,0.0,0.0,0.0,0.0,0.0,0.0,
0.1341,4.253902921473906,4.253902921473906,4.177178269120508,0.0,0.0,0.0,4.228328037356107,0.0,0.0,0.0,0.0,0.0,0.0,0.0,0.0,0.0,0.0,0.0,0.0,0.0,0.0,
0.1533,4.254142839485105,4.254142839485105,4.177406689339855,0.0,0.0,0.0,4.228564122770021,0.0,0.0,0.0,0.0,0.0,0.0,0.0,0.0,0.0,0.0,0.0,0.0,0.0,0.0,
0.1724,4.254413380824396,4.254413380824396,4.17766426386142,0.0,0.0,0.0,4.228830341836737,0.0,0.0,0.0,0.0,0.0,0.0,0.0,0.0,0.0,0.0,0.0,0.0,0.0,0.0,
0.1916,4.254717403716773,4.254717403716773,4.1779537133736175,0.0,0.0,0.0,4.229129506935721,0.0,0.0,0.0,0.0,0.0,0.0,0.0,0.0,0.0,0.0,0.0,0.0,0.0,0.0,
0.2108,4.255053603848955,4.255053603848955,4.1782737954619,0.0,0.0,0.0,4.229460334386603,0.0,0.0,0.0,0.0,0.0,0.0,0.0,0.0,0.0,0.0,0.0,0.0,0.0,0.0,
0.2299,4.255420010417257,4.255420010417257,4.178622633151217,0.0,0.0,0.0,4.229820884661911,0.0,0.0,0.0,0.0,0.0,0.0,0.0,0.0,0.0,0.0,0.0,0.0,0.0,0.0,
0.2491,4.255820494514511,4.255820494514511,4.179003911178448,0.0,0.0,0.0,4.230214966735823,0.0,0.0,0.0,0.0,0.0,0.0,0.0,0.0,0.0,0.0,0.0,0.0,0.0,0.0,
0.2682,4.256250921577285,4.256250921577285,4.179413692461278,0.0,0.0,0.0,4.230638511871949,0.0,0.0,0.0,0.0,0.0,0.0,0.0,0.0,0.0,0.0,0.0,0.0,0.0,0.0,
0.2874,4.2567158391422915,4.2567158391422915,4.179856305537333,0.0,0.0,0.0,4.231095994607306,0.0,0.0,0.0,0.0,0.0,0.0,0.0,0.0,0.0,0.0,0.0,0.0,0.0,0.0,
0.3066,4.257213121452283,4.257213121452283,4.180329725658969,0.0,0.0,0.0,4.231585322854511,0.0,0.0,0.0,0.0,0.0,0.0,0.0,0.0,0.0,0.0,0.0,0.0,0.0,0.0,
0.3257,4.2577399724124785,4.2577399724124785,4.180831289937053,0.0,0.0,0.0,4.23210374492067,0.0,0.0,0.0,0.0,0.0,0.0,0.0,0.0,0.0,0.0,0.0,0.0,0.0,0.0,
0.3449,4.258301958440963,4.258301958440963,4.181366296549269,0.0,0.0,0.0,4.232656737810399,0.0,0.0,0.0,0.0,0.0,0.0,0.0,0.0,0.0,0.0,0.0,0.0,0.0,0.0,
0.364,4.258893277898958,4.258893277898958,4.181929221241802,0.0,0.0,0.0,4.233238592346573,0.0,0.0,0.0,0.0,0.0,0.0,0.0,0.0,0.0,0.0,0.0,0.0,0.0,0.0,
0.3832,4.259520178471184,4.259520178471184,4.182526010476977,0.0,0.0,0.0,4.233855455806448,0.0,0.0,0.0,0.0,0.0,0.0,0.0,0.0,0.0,0.0,0.0,0.0,0.0,0.0,
0.4024,4.260179708204292,4.260179708204292,4.183153852744536,0.0,0.0,0.0,4.23450442305104,0.0,0.0,0.0,0.0,0.0,0.0,0.0,0.0,0.0,0.0,0.0,0.0,0.0,0.0,
0.4215,4.260868239382875,4.260868239382875,4.183809293344388,0.0,0.0,0.0,4.235181924036713,0.0,0.0,0.0,0.0,0.0,0.0,0.0,0.0,0.0,0.0,0.0,0.0,0.0,0.0,
0.4407,4.261593047055117,4.261593047055117,4.184499256263913,0.0,0.0,0.0,4.235895116791382,0.0,0.0,0.0,0.0,0.0,0.0,0.0,0.0,0.0,0.0,0.0,0.0,0.0,0.0,
0.4598,4.262346649144819,4.262346649144819,4.185216617637874,0.0,0.0,0.0,4.236636638642504,0.0,0.0,0.0,0.0,0.0,0.0,0.0,0.0,0.0,0.0,0.0,0.0,0.0,0.0,
0.479,4.263137008453542,4.263137008453542,4.185968955767681,0.0,0.0,0.0,4.237414324224922,0.0,0.0,0.0,0.0,0.0,0.0,0.0,0.0,0.0,0.0,0.0,0.0,0.0,0.0,
0.4982,4.263960340193626,4.263960340193626,4.186752666194303,0.0,0.0,0.0,4.238224448860518,0.0,0.0,0.0,0.0,0.0,0.0,0.0,0.0,0.0,0.0,0.0,0.0,0.0,0.0,
0.5173,4.264812176774256,4.264812176774256,4.187563494717635,0.0,0.0,0.0,4.239062616088716,0.0,0.0,0.0,0.0,0.0,0.0,0.0,0.0,0.0,0.0,0.0,0.0,0.0,0.0,
0.5365,4.265701519375414,4.265701519375414,4.188410007401139,0.0,0.0,0.0,4.239937682050655,0.0,0.0,0.0,0.0,0.0,0.0,0.0,0.0,0.0,0.0,0.0,0.0,0.0,0.0,
0.5556,4.266619188141679,4.266619188141679,4.189283464626609,0.0,0.0,0.0,4.240840613636656,0.0,0.0,0.0,0.0,0.0,0.0,0.0,0.0,0.0,0.0,0.0,0.0,0.0,0.0,
0.5748,4.267574880206471,4.267574880206471,4.190193094391245,0.0,0.0,0.0,4.241780951601395,0.0,0.0,0.0,0.0,0.0,0.0,0.0,0.0,0.0,0.0,0.0,0.0,0.0,0.0,
0.594,4.2685639693783965,4.2685639693783965,4.191134491303168,0.0,0.0,0.0,4.24275414335332,0.0,0.0,0.0,0.0,0.0,0.0,0.0,0.0,0.0,0.0,0.0,0.0,0.0,0.0,
0.6131,4.269581137953912,4.269581137953912,4.192102592128801,0.0,0.0,0.0,4.243754956012208,0.0,0.0,0.0,0.0,0.0,0.0,0.0,0.0,0.0,0.0,0.0,0.0,0.0,0.0,
0.6323,4.270637135076622,4.270637135076622,4.1931076252921695,0.0,0.0,0.0,4.244793965148471,0.0,0.0,0.0,0.0,0.0,0.0,0.0,0.0,0.0,0.0,0.0,0.0,0.0,0.0,
0.6514,4.271721061666405,4.271721061666405,4.194139215466539,0.0,0.0,0.0,4.245860446266449,0.0,0.0,0.0,0.0,0.0,0.0,0.0,0.0,0.0,0.0,0.0,0.0,0.0,0.0,
0.6706,4.272844372796959,4.272844372796959,4.195208262276652,0.0,0.0,0.0,4.24696566929019,0.0,0.0,0.0,0.0,0.0,0.0,0.0,0.0,0.0,0.0,0.0,0.0,0.0,0.0,
0.6898,4.274001590313755,4.274001590313755,4.196309549562471,0.0,0.0,0.0,4.248104243396661,0.0,0.0,0.0,0.0,0.0,0.0,0.0,0.0,0.0,0.0,0.0,0.0,0.0,0.0,
0.7089,4.27518653410835,4.27518653410835,4.197437193613542,0.0,0.0,0.0,4.249270087276748,0.0,0.0,0.0,0.0,0.0,0.0,0.0,0.0,0.0,0.0,0.0,0.0,0.0,0.0,
0.7281,4.2764117276198945,4.2764117276198945,4.198603109669888,0.0,0.0,0.0,4.250475521636559,0.0,0.0,0.0,0.0,0.0,0.0,0.0,0.0,0.0,0.0,0.0,0.0,0.0,0.0,
0.7472,4.277664526837459,4.277664526837459,4.199795262785077,0.0,0.0,0.0,4.251708105486665,0.0,0.0,0.0,0.0,0.0,0.0,0.0,0.0,0.0,0.0,0.0,0.0,0.0,0.0,
0.7664,4.2789581729615875,4.2789581729615875,4.20102625038466,0.0,0.0,0.0,4.252980865435945,0.0,0.0,0.0,0.0,0.0,0.0,0.0,0.0,0.0,0.0,0.0,0.0,0.0,0.0,
0.7856,4.280286323251347,4.280286323251347,4.202290033786639,0.0,0.0,0.0,4.2542875600964445,0.0,0.0,0.0,0.0,0.0,0.0,0.0,0.0,0.0,0.0,0.0,0.0,0.0,0.0,
0.8047,4.281641920759067,4.281641920759067,4.203579895371084,0.0,0.0,0.0,4.255621245629739,0.0,0.0,0.0,0.0,0.0,0.0,0.0,0.0,0.0,0.0,0.0,0.0,0.0,0.0,
0.8239,4.2830392942583995,4.2830392942583995,4.20490946600748,0.0,0.0,0.0,4.2569960181747595,0.0,0.0,0.0,0.0,0.0,0.0,0.0,0.0,0.0,0.0,0.0,0.0,0.0,0.0,
0.843,4.2844640246512995,4.2844640246512995,4.206265023090669,0.0,0.0,0.0,4.258397690797756,0.0,0.0,0.0,0.0,0.0,0.0,0.0,0.0,0.0,0.0,0.0,0.0,0.0,0.0,
0.8622,4.285931172253514,4.285931172253514,4.2076608924634415,0.0,0.0,0.0,4.259841078990156,0.0,0.0,0.0,0.0,0.0,0.0,0.0,0.0,0.0,0.0,0.0,0.0,0.0,0.0,
0.8813,4.287425598826271,4.287425598826271,4.209082668001653,0.0,0.0,0.0,4.261311288551398,0.0,0.0,0.0,0.0,0.0,0.0,0.0,0.0,0.0,0.0,0.0,0.0,0.0,0.0,
0.9005,4.2889631023066865,4.2889631023066865,4.21054537616024,0.0,0.0,0.0,4.262823860257871,0.0,0.0,0.0,0.0,0.0,0.0,0.0,0.0,0.0,0.0,0.0,0.0,0.0,0.0,
0.9197,4.290536104393253,4.290536104393253,4.212041803333042,0.0,0.0,0.0,4.264371337373182,0.0,0.0,0.0,0.0,0.0,0.0,0.0,0.0,0.0,0.0,0.0,0.0,0.0,0.0,
0.9388,4.29213629220268,4.29213629220268,4.213564038051411,0.0,0.0,0.0,4.265945540818923,0.0,0.0,0.0,0.0,0.0,0.0,0.0,0.0,0.0,0.0,0.0,0.0,0.0,0.0,
0.958,4.293780583222919,4.293780583222919,4.215128169875351,0.0,0.0,0.0,4.267563112107063,0.0,0.0,0.0,0.0,0.0,0.0,0.0,0.0,0.0,0.0,0.0,0.0,0.0,0.0,
0.9771,4.29545201400175,4.29545201400175,4.216718058443158,0.0,0.0,0.0,4.269207362148886,0.0,0.0,0.0,0.0,0.0,0.0,0.0,0.0,0.0,0.0,0.0,0.0,0.0,0.0,
0.9963,4.297168256350526,4.297168256350526,4.218350509412,0.0,0.0,0.0,4.270895674037684,0.0,0.0,0.0,0.0,0.0,0.0,0.0,0.0,0.0,0.0,0.0,0.0,0.0,0.0,
1.0155,4.298920828099633,4.298920828099633,4.220017450104482,0.0,0.0,0.0,4.27261970210125,0.0,0.0,0.0,0.0,0.0,0.0,0.0,0.0,0.0,0.0,0.0,0.0,0.0,0.0,
1.0346,4.300700495483277,4.300700495483277,4.2217100941891355,0.0,0.0,0.0,4.274370361718563,0.0,0.0,0.0,0.0,0.0,0.0,0.0,0.0,0.0,0.0,0.0,0.0,0.0,0.0,
1.0538,4.302526076602772,4.302526076602772,4.2234463352101645,0.0,0.0,0.0,4.276166162805237,0.0,0.0,0.0,0.0,0.0,0.0,0.0,0.0,0.0,0.0,0.0,0.0,0.0,0.0,
1.0729,4.304378740953935,4.304378740953935,4.2252082597172285,0.0,0.0,0.0,4.2779885805417,0.0,0.0,0.0,0.0,0.0,0.0,0.0,0.0,0.0,0.0,0.0,0.0,0.0,0.0,
1.0921,4.3062780799161775,4.3062780799161775,4.227014494912364,0.0,0.0,0.0,4.279856884914906,0.0,0.0,0.0,0.0,0.0,0.0,0.0,0.0,0.0,0.0,0.0,0.0,0.0,0.0,
1.1113,4.3082146870401274,4.3082146870401274,4.228856090070586,0.0,0.0,0.0,4.281761821383614,0.0,0.0,0.0,0.0,0.0,0.0,0.0,0.0,0.0,0.0,0.0,0.0,0.0,0.0,
1.1304,4.310178385063272,4.310178385063272,4.230723362989481,0.0,0.0,0.0,4.283693377705342,0.0,0.0,0.0,0.0,0.0,0.0,0.0,0.0,0.0,0.0,0.0,0.0,0.0,0.0,
1.1496,4.312189941895314,4.312189941895314,4.23263605676278,0.0,0.0,0.0,4.2856719801844685,0.0,0.0,0.0,0.0,0.0,0.0,0.0,0.0,0.0,0.0,0.0,0.0,0.0,0.0,
1.1687,4.31422861274662,4.31422861274662,4.234574441020042,0.0,0.0,0.0,4.2876772221710935,0.0,0.0,0.0,0.0,0.0,0.0,0.0,0.0,0.0,0.0,0.0,0.0,0.0,0.0,
1.1879,4.316315960176752,4.316315960176752,4.236559012296464,0.0,0.0,0.0,4.289730310883322,0.0,0.0,0.0,0.0,0.0,0.0,0.0,0.0,0.0,0.0,0.0,0.0,0.0,0.0,
1.2071,4.318441630451739,4.318441630451739,4.238579920445014,0.0,0.0,0.0,4.2918210604494975,0.0,0.0,0.0,0.0,0.0,0.0,0.0,0.0,0.0,0.0,0.0,0.0,0.0,0.0,
1.2262,4.320594477445553,4.320594477445553,4.240626563842357,0.0,0.0,0.0,4.293938506244488,0.0,0.0,0.0,0.0,0.0,0.0,0.0,0.0,0.0,0.0,0.0,0.0,0.0,0.0,
1.2454,4.322797274255457,4.322797274255457,4.242720586381497,0.0,0.0,0.0,4.296105044964137,0.0,0.0,0.0,0.0,0.0,0.0,0.0,0.0,0.0,0.0,0.0,0.0,0.0,0.0,
1.2645,4.325027308794352,4.325027308794352,4.2448403916138435,0.0,0.0,0.0,4.298298336400849,0.0,0.0,0.0,0.0,0.0,0.0,0.0,0.0,0.0,0.0,0.0,0.0,0.0,0.0,
1.2837,4.3273081727893175,4.3273081727893175,4.2470083990512695,0.0,0.0,0.0,4.3005415815433015,0.0,0.0,0.0,0.0,0.0,0.0,0.0,0.0,0.0,0.0,0.0,0.0,0.0,0.0,
1.3029,4.329628539446498,4.329628539446498,4.249213835191416,0.0,0.0,0.0,4.302823638028137,0.0,0.0,0.0,0.0,0.0,0.0,0.0,0.0,0.0,0.0,0.0,0.0,0.0,0.0,
1.322,4.331976265454502,4.331976265454502,4.251445152716046,0.0,0.0,0.0,4.30513256120835,0.0,0.0,0.0,0.0,0.0,0.0,0.0,0.0,0.0,0.0,0.0,0.0,0.0,0.0,
1.3412,4.33437619116172,4.33437619116172,4.253725953697861,0.0,0.0,0.0,4.307492778673767,0.0,0.0,0.0,0.0,0.0,0.0,0.0,0.0,0.0,0.0,0.0,0.0,0.0,0.0,
1.3603,4.33680357794983,4.33680357794983,4.256032720727939,0.0,0.0,0.0,4.309879958875866,0.0,0.0,0.0,0.0,0.0,0.0,0.0,0.0,0.0,0.0,0.0,0.0,0.0,0.0,
1.3795,4.3392841116069505,4.3392841116069505,4.258389856266829,0.0,0.0,0.0,4.31231935982691,0.0,0.0,0.0,0.0,0.0,0.0,0.0,0.0,0.0,0.0,0.0,0.0,0.0,0.0,
1.3987,4.341805463529544,4.341805463529544,4.260785636780955,0.0,0.0,0.0,4.314798854613348,0.0,0.0,0.0,0.0,0.0,0.0,0.0,0.0,0.0,0.0,0.0,0.0,0.0,0.0,
1.4178,4.3443544617114735,4.3443544617114735,4.2632075400495975,0.0,0.0,0.0,4.317305487824181,0.0,0.0,0.0,0.0,0.0,0.0,0.0,0.0,0.0,0.0,0.0,0.0,0.0,0.0,
1.437,4.346958083080782,4.346958083080782,4.265681190354071,0.0,0.0,0.0,4.319865785505212,0.0,0.0,0.0,0.0,0.0,0.0,0.0,0.0,0.0,0.0,0.0,0.0,0.0,0.0,
1.4561,4.3495894965214354,4.3495894965214354,4.268181088260006,0.0,0.0,0.0,4.3224533604342925,0.0,0.0,0.0,0.0,0.0,0.0,0.0,0.0,0.0,0.0,0.0,0.0,0.0,0.0,
1.4753,4.352276554297912,4.352276554297912,4.2707336860258795,0.0,0.0,0.0,4.325095598207235,0.0,0.0,0.0,0.0,0.0,0.0,0.0,0.0,0.0,0.0,0.0,0.0,0.0,0.0,
1.4945,4.355005894039007,4.355005894039007,4.273326280457262,0.0,0.0,0.0,4.327779356178425,0.0,0.0,0.0,0.0,0.0,0.0,0.0,0.0,0.0,0.0,0.0,0.0,0.0,0.0,
1.5136,4.357763280080576,4.357763280080576,4.27594534205052,0.0,0.0,0.0,4.330490634070557,0.0,0.0,0.0,0.0,0.0,0.0,0.0,0.0,0.0,0.0,0.0,0.0,0.0,0.0,
1.5328,4.360577903196267,4.360577903196267,4.278618588570911,0.0,0.0,0.0,4.333258131654482,0.0,0.0,0.0,0.0,0.0,0.0,0.0,0.0,0.0,0.0,0.0,0.0,0.0,0.0,
1.5519,4.363420766485248,4.363420766485248,4.281318470784482,0.0,0.0,0.0,4.336053334584993,0.0,0.0,0.0,0.0,0.0,0.0,0.0,0.0,0.0,0.0,0.0,0.0,0.0,0.0,
1.5711,4.366321969339715,4.366321969339715,4.284073565108023,0.0,0.0,0.0,4.338905834595818,0.0,0.0,0.0,0.0,0.0,0.0,0.0,0.0,0.0,0.0,0.0,0.0,0.0,0.0,
1.5903,4.369267080186746,4.369267080186746,4.286870155862311,0.0,0.0,0.0,4.341801438745268,0.0,0.0,0.0,0.0,0.0,0.0,0.0,0.0,0.0,0.0,0.0,0.0,0.0,0.0,
1.6094,4.372240760981512,4.372240760981512,4.289693670433139,0.0,0.0,0.0,4.344725064132054,0.0,0.0,0.0,0.0,0.0,0.0,0.0,0.0,0.0,0.0,0.0,0.0,0.0,0.0,
1.6286,4.375274502327889,4.375274502327889,4.292573999283784,0.0,0.0,0.0,4.347707667979853,0.0,0.0,0.0,0.0,0.0,0.0,0.0,0.0,0.0,0.0,0.0,0.0,0.0,0.0,
1.6477,4.378337060255464,4.378337060255464,4.295481468293027,0.0,0.0,0.0,4.350718529601319,0.0,0.0,0.0,0.0,0.0,0.0,0.0,0.0,0.0,0.0,0.0,0.0,0.0,0.0,
1.6669,4.381460871000321,4.381460871000321,4.298446860641536,0.0,0.0,0.0,4.35378953421406,0.0,0.0,0.0,0.0,0.0,0.0,0.0,0.0,0.0,0.0,0.0,0.0,0.0,0.0,
1.6861,4.384630394571689,4.384630394571689,4.301455411871643,0.0,0.0,0.0,4.3569054003383405,0.0,0.0,0.0,0.0,0.0,0.0,0.0,0.0,0.0,0.0,0.0,0.0,0.0,0.0,
1.7052,4.387829147712198,4.387829147712198,4.304491466670653,0.0,0.0,0.0,4.36004992069835,0.0,0.0,0.0,0.0,0.0,0.0,0.0,0.0,0.0,0.0,0.0,0.0,0.0,0.0,
1.7244,4.391091016465909,4.391091016465909,4.307587176154358,0.0,0.0,0.0,4.363256403028725,0.0,0.0,0.0,0.0,0.0,0.0,0.0,0.0,0.0,0.0,0.0,0.0,0.0,0.0,
1.7435,4.394382419731118,4.394382419731118,4.310710658218487,0.0,0.0,0.0,4.36649183256024,0.0,0.0,0.0,0.0,0.0,0.0,0.0,0.0,0.0,0.0,0.0,0.0,0.0,0.0,
1.7627,4.397738230332445,4.397738230332445,4.313894994508742,0.0,0.0,0.0,4.3697904850578775,0.0,0.0,0.0,0.0,0.0,0.0,0.0,0.0,0.0,0.0,0.0,0.0,0.0,0.0,
1.7819,4.401141756513319,4.401141756513319,4.317124331712092,0.0,0.0,0.0,4.373135948246243,0.0,0.0,0.0,0.0,0.0,0.0,0.0,0.0,0.0,0.0,0.0,0.0,0.0,0.0,
1.801,4.404575322460916,4.404575322460916,4.320381888110216,0.0,0.0,0.0,4.376510844344016,0.0,0.0,0.0,0.0,0.0,0.0,0.0,0.0,0.0,0.0,0.0,0.0,0.0,0.0,
1.8202,4.4080753159520505,4.4080753159520505,4.323702173097052,0.0,0.0,0.0,4.379950935000385,0.0,0.0,0.0,0.0,0.0,0.0,0.0,0.0,0.0,0.0,0.0,0.0,0.0,0.0,
1.8393,4.411605719014967,4.411605719014967,4.327051004681895,0.0,0.0,0.0,4.383420814237277,0.0,0.0,0.0,0.0,0.0,0.0,0.0,0.0,0.0,0.0,0.0,0.0,0.0,0.0,
1.8585,4.415203951960532,4.415203951960532,4.33046386476142,0.0,0.0,0.0,4.386957256227494,0.0,0.0,0.0,0.0,0.0,0.0,0.0,0.0,0.0,0.0,0.0,0.0,0.0,0.0,
1.8777,4.418852123385568,4.418852123385568,4.333923766947887,0.0,0.0,0.0,4.3905426712396745,0.0,0.0,0.0,0.0,0.0,0.0,0.0,0.0,0.0,0.0,0.0,0.0,0.0,0.0,
1.8968,4.422531312607154,4.422531312607154,4.337412754880117,0.0,0.0,0.0,4.394158460031474,0.0,0.0,0.0,0.0,0.0,0.0,0.0,0.0,0.0,0.0,0.0,0.0,0.0,0.0,
1.916,4.4262805273443995,4.4262805273443995,4.340967804610367,0.0,0.0,0.0,4.397842953099722,0.0,0.0,0.0,0.0,0.0,0.0,0.0,0.0,0.0,0.0,0.0,0.0,0.0,0.0,
1.9351,4.430061202299976,4.430061202299976,4.344552332629297,0.0,0.0,0.0,4.401558245743083,0.0,0.0,0.0,0.0,0.0,0.0,0.0,0.0,0.0,0.0,0.0,0.0,0.0,0.0,
1.9543,4.433913428636409,4.433913428636409,4.3482043341066845,0.0,0.0,0.0,4.405343730459834,0.0,0.0,0.0,0.0,0.0,0.0,0.0,0.0,0.0,0.0,0.0,0.0,0.0,0.0,
1.9735,4.437818062431794,4.437818062431794,4.351905640808955,0.0,0.0,0.0,4.409180588557514,0.0,0.0,0.0,0.0,0.0,0.0,0.0,0.0,0.0,0.0,0.0,0.0,0.0,0.0,
1.9926,4.441754880316595,4.441754880316595,4.355637068493165,0.0,0.0,0.0,4.413048943042118,0.0,0.0,0.0,0.0,0.0,0.0,0.0,0.0,0.0,0.0,0.0,0.0,0.0,0.0,
2.0118,4.445765641525819,4.445765641525819,4.3594381802692315,0.0,0.0,0.0,4.416989821106957,0.0,0.0,0.0,0.0,0.0,0.0,0.0,0.0,0.0,0.0,0.0,0.0,0.0,0.0,
2.0309,4.449809111059503,4.449809111059503,4.363269878684042,0.0,0.0,0.0,4.420962700267682,0.0,0.0,0.0,0.0,0.0,0.0,0.0,0.0,0.0,0.0,0.0,0.0,0.0,0.0,
2.0501,4.453928188309311,4.453928188309311,4.367172797786268,0.0,0.0,0.0,4.42500972480163,0.0,0.0,0.0,0.0,0.0,0.0,0.0,0.0,0.0,0.0,0.0,0.0,0.0,0.0,
2.0693,4.45810241844533,4.45810241844533,4.3711275337042315,0.0,0.0,0.0,4.429110790198298,0.0,0.0,0.0,0.0,0.0,0.0,0.0,0.0,0.0,0.0,0.0,0.0,0.0,0.0,
2.0884,4.462310211481716,4.462310211481716,4.375113615530873,0.0,0.0,0.0,4.4332446794981015,0.0,0.0,0.0,0.0,0.0,0.0,0.0,0.0,0.0,0.0,0.0,0.0,0.0,0.0,
2.1076,4.466596224811559,4.466596224811559,4.379173327335,0.0,0.0,0.0,4.437455258986039,0.0,0.0,0.0,0.0,0.0,0.0,0.0,0.0,0.0,0.0,0.0,0.0,0.0,0.0,
2.1267,4.470916418033404,4.470916418033404,4.383264933269061,0.0,0.0,0.0,4.44169925644529,0.0,0.0,0.0,0.0,0.0,0.0,0.0,0.0,0.0,0.0,0.0,0.0,0.0,0.0,
2.1459,4.475316651978753,4.475316651978753,4.387431846031943,0.0,0.0,0.0,4.446021716663149,0.0,0.0,0.0,0.0,0.0,0.0,0.0,0.0,0.0,0.0,0.0,0.0,0.0,0.0,
2.1651,4.47977509639996,4.47977509639996,4.391653366763471,0.0,0.0,0.0,4.45040118652113,0.0,0.0,0.0,0.0,0.0,0.0,0.0,0.0,0.0,0.0,0.0,0.0,0.0,0.0,
2.1842,4.484268723946854,4.484268723946854,4.395907672942284,0.0,0.0,0.0,4.454815040278664,0.0,0.0,0.0,0.0,0.0,0.0,0.0,0.0,0.0,0.0,0.0,0.0,0.0,0.0,
2.2034,4.488845253897031,4.488845253897031,4.4002399187451235,0.0,0.0,0.0,4.459310142179729,0.0,0.0,0.0,0.0,0.0,0.0,0.0,0.0,0.0,0.0,0.0,0.0,0.0,0.0,
2.2225,4.493457689794591,4.493457689794591,4.404605592021989,0.0,0.0,0.0,4.46384032387039,0.0,0.0,0.0,0.0,0.0,0.0,0.0,0.0,0.0,0.0,0.0,0.0,0.0,0.0,
2.2417,4.498155025114707,4.498155025114707,4.409051039925007,0.0,0.0,0.0,4.46845369671814,0.0,0.0,0.0,0.0,0.0,0.0,0.0,0.0,0.0,0.0,0.0,0.0,0.0,0.0,
2.2609,4.502913982868044,4.502913982868044,4.413554203081086,0.0,0.0,0.0,4.473127389605724,0.0,0.0,0.0,0.0,0.0,0.0,0.0,0.0,0.0,0.0,0.0,0.0,0.0,0.0,
2.28,4.507710019956894,4.507710019956894,4.418091835515987,0.0,0.0,0.0,4.477837291809926,0.0,0.0,0.0,0.0,0.0,0.0,0.0,0.0,0.0,0.0,0.0,0.0,0.0,0.0,
2.2992,4.512594100753044,4.512594100753044,4.422712127977767,0.0,0.0,0.0,4.482633443161284,0.0,0.0,0.0,0.0,0.0,0.0,0.0,0.0,0.0,0.0,0.0,0.0,0.0,0.0,
2.3183,4.51751610522874,4.51751610522874,4.427367638979057,0.0,0.0,0.0,4.487466616478845,0.0,0.0,0.0,0.0,0.0,0.0,0.0,0.0,0.0,0.0,0.0,0.0,0.0,0.0,
2.3375,4.522528351274726,4.522528351274726,4.432107824173889,0.0,0.0,0.0,4.4923881755744475,0.0,0.0,0.0,0.0,0.0,0.0,0.0,0.0,0.0,0.0,0.0,0.0,0.0,0.0,
2.3567,4.527606036224016,4.527606036224016,4.436909191270267,0.0,0.0,0.0,4.497373754572767,0.0,0.0,0.0,0.0,0.0,0.0,0.0,0.0,0.0,0.0,0.0,0.0,0.0,0.0,
2.3758,4.5327230142657715,4.5327230142657715,4.441746991280548,0.0,0.0,0.0,4.502397673270697,0.0,0.0,0.0,0.0,0.0,0.0,0.0,0.0,0.0,0.0,0.0,0.0,0.0,0.0,
2.395,4.537933700429651,4.537933700429651,4.446672637761383,0.0,0.0,0.0,4.507513346206895,0.0,0.0,0.0,0.0,0.0,0.0,0.0,0.0,0.0,0.0,0.0,0.0,0.0,0.0,
2.4141,4.543184664489558,4.543184664489558,4.451635589772808,0.0,0.0,0.0,4.512668306250641,0.0,0.0,0.0,0.0,0.0,0.0,0.0,0.0,0.0,0.0,0.0,0.0,0.0,0.0,
2.4333,4.548531764182872,4.548531764182872,4.456688606407175,0.0,0.0,0.0,4.51791737825764,0.0,0.0,0.0,0.0,0.0,0.0,0.0,0.0,0.0,0.0,0.0,0.0,0.0,0.0,
2.4525,4.553948583697821,4.553948583697821,4.4618066823522256,0.0,0.0,0.0,4.523234616582623,0.0,0.0,0.0,0.0,0.0,0.0,0.0,0.0,0.0,0.0,0.0,0.0,0.0,0.0,
2.4716,4.559407277860814,4.559407277860814,4.466963477357848,0.0,0.0,0.0,4.528592677693158,0.0,0.0,0.0,0.0,0.0,0.0,0.0,0.0,0.0,0.0,0.0,0.0,0.0,0.0,
2.4908,4.564965943736883,4.564965943736883,4.472213836747401,0.0,0.0,0.0,4.534048574740389,0.0,0.0,0.0,0.0,0.0,0.0,0.0,0.0,0.0,0.0,0.0,0.0,0.0,0.0,
2.5099,4.570567632517896,4.570567632517896,4.477503930637471,0.0,0.0,0.0,4.539546398557754,0.0,0.0,0.0,0.0,0.0,0.0,0.0,0.0,0.0,0.0,0.0,0.0,0.0,0.0,
2.5291,4.576271984613918,4.576271984613918,4.482890040556279,0.0,0.0,0.0,4.545144669928038,0.0,0.0,0.0,0.0,0.0,0.0,0.0,0.0,0.0,0.0,0.0,0.0,0.0,0.0,
