energies(eV),real_xx,real_yy,real_zz,real_xy,real_yz,real_xz,real_ave,imag_xx,imag_yy,imag_zz,imag_xy,imag_yz,imag_xz,imag_ave,absorption_xx,absorption_yy,absorption_zz,absorption_xy,absorption_yz,absorption_xz,absorption_ave,band_gap
0.0,3.5056818009000836,3.5056818009000836,3.7322752189894213,0.0,0.0,0.0,3.581212940263196,0.0,0.0,0.0,0.0,0.0,0.0,0.0,0.0,0.0,0.0,0.0,0.0,0.0,0.0,5.000400000000001
0.0196,3.5056919658968355,3.5056919658968355,3.7322877398659964,0.0,0.0,0.0,3.5812238905532223,0.0,0.0,0.0,0.0,0.0,0.0,0.0,0.0,0.0,0.0,0.0,0.0,0.0,0.0,
0.0393,3.5057226693859893,3.5057226693859893,3.732325559402455,0.0,0.0,0.0,3.581256966058145,0.0,0.0,0.0,0.0,0.0,0.0,0.0,0.0,0.0,0.0,0.0,0.0,0.0,0.0,
0.0589,3.5057736019992554,3.5057736019992554,3.732388296783682,0.0,0.0,0.0,3.5813118335940644,0.0,0.0,0.0,0.0,0.0,0.0,0.0,0.0,0.0,0.0,0.0,0.0,0.0,0.0,
0.0786,3.505845287389518,3.505845287389518,3.7324765974580307,0.0,0.0,0.0,3.5813890574123555,0.0,0.0,0.0,0.0,0.0,0.0,0.0,0.0,0.0,0.0,0.0,0.0,0.0,0.0,
0.0982,3.505937003256462,3.505937003256462,3.732589572304262,0.0,0.0,0.0,3.5814878596057285,0.0,0.0,0.0,0.0,0.0,0.0,0.0,0.0,0.0,0.0,0.0,0.0,0.0,0.0,
0.1178,3.506049068607159,3.506049068607159,3.732727615028915,0.0,0.0,0.0,3.581608584081078,0.0,0.0,0.0,0.0,0.0,0.0,0.0,0.0,0.0,0.0,0.0,0.0,0.0,0.0,
0.1375,3.506182219849372,3.506182219849372,3.7328916336922813,0.0,0.0,0.0,3.5817520244636754,0.0,0.0,0.0,0.0,0.0,0.0,0.0,0.0,0.0,0.0,0.0,0.0,0.0,0.0,
0.1571,3.5063351153623032,3.5063351153623032,3.733079976761099,0.0,0.0,0.0,3.581916735828569,0.0,0.0,0.0,0.0,0.0,0.0,0.0,0.0,0.0,0.0,0.0,0.0,0.0,0.0,
0.1768,3.5065093271245282,3.5065093271245282,3.733294581948733,0.0,0.0,0.0,3.5821044120659296,0.0,0.0,0.0,0.0,0.0,0.0,0.0,0.0,0.0,0.0,0.0,0.0,0.0,0.0,
0.1964,3.5067030998035134,3.5067030998035134,3.733533288371675,0.0,0.0,0.0,3.5823131626595672,0.0,0.0,0.0,0.0,0.0,0.0,0.0,0.0,0.0,0.0,0.0,0.0,0.0,0.0,
0.2161,3.5069184256654498,3.5069184256654498,3.7337985519106347,0.0,0.0,0.0,3.582545134413845,0.0,0.0,0.0,0.0,0.0,0.0,0.0,0.0,0.0,0.0,0.0,0.0,0.0,0.0,
0.2357,3.5071531351347325,3.5071531351347325,3.734087701620259,0.0,0.0,0.0,3.582797990629908,0.0,0.0,0.0,0.0,0.0,0.0,0.0,0.0,0.0,0.0,0.0,0.0,0.0,0.0,
0.2553,3.5074082871436083,3.5074082871436083,3.734402043957822,0.0,0.0,0.0,3.583072872748346,0.0,0.0,0.0,0.0,0.0,0.0,0.0,0.0,0.0,0.0,0.0,0.0,0.0,0.0,
0.275,3.507685359948648,3.507685359948648,3.7347434023145265,0.0,0.0,0.0,3.5833713740706075,0.0,0.0,0.0,0.0,0.0,0.0,0.0,0.0,0.0,0.0,0.0,0.0,0.0,0.0,
0.2946,3.507981561866316,3.507981561866316,3.735108339599807,0.0,0.0,0.0,3.5836904877774796,0.0,0.0,0.0,0.0,0.0,0.0,0.0,0.0,0.0,0.0,0.0,0.0,0.0,0.0,
0.3143,3.5082999383581988,3.5082999383581988,3.735500610494078,0.0,0.0,0.0,3.584033495736825,0.0,0.0,0.0,0.0,0.0,0.0,0.0,0.0,0.0,0.0,0.0,0.0,0.0,0.0,
0.3339,3.508637281617669,3.508637281617669,3.7359162653269262,0.0,0.0,0.0,3.584396942854088,0.0,0.0,0.0,0.0,0.0,0.0,0.0,0.0,0.0,0.0,0.0,0.0,0.0,0.0,
0.3535,3.508995181379428,3.508995181379428,3.7363572655981985,0.0,0.0,0.0,3.584782542785685,0.0,0.0,0.0,0.0,0.0,0.0,0.0,0.0,0.0,0.0,0.0,0.0,0.0,0.0,
0.3732,3.5093756490586125,3.5093756490586125,3.7368260929023633,0.0,0.0,0.0,3.5851924636731964,0.0,0.0,0.0,0.0,0.0,0.0,0.0,0.0,0.0,0.0,0.0,0.0,0.0,0.0,
0.3928,3.5097748513273843,3.5097748513273843,3.737318026851589,0.0,0.0,0.0,3.5856225765021192,0.0,0.0,0.0,0.0,0.0,0.0,0.0,0.0,0.0,0.0,0.0,0.0,0.0,0.0,
0.4125,3.51019689280726,3.51019689280726,3.7378381289315783,0.0,0.0,0.0,3.586077304848699,0.0,0.0,0.0,0.0,0.0,0.0,0.0,0.0,0.0,0.0,0.0,0.0,0.0,0.0,
0.4321,3.51063752136927,3.51063752136927,3.738381162586784,0.0,0.0,0.0,3.5865520684417747,0.0,0.0,0.0,0.0,0.0,0.0,0.0,0.0,0.0,0.0,0.0,0.0,0.0,0.0,
0.4518,3.511101267657717,3.511101267657717,3.7389527151682627,0.0,0.0,0.0,3.587051750161232,0.0,0.0,0.0,0.0,0.0,0.0,0.0,0.0,0.0,0.0,0.0,0.0,0.0,0.0,
0.4714,3.5115834594437976,3.5115834594437976,3.739547032212501,0.0,0.0,0.0,3.5875713170333654,0.0,0.0,0.0,0.0,0.0,0.0,0.0,0.0,0.0,0.0,0.0,0.0,0.0,0.0,
0.491,3.512086435264699,3.512086435264699,3.7401669998981903,0.0,0.0,0.0,3.588113290142529,0.0,0.0,0.0,0.0,0.0,0.0,0.0,0.0,0.0,0.0,0.0,0.0,0.0,0.0,
0.5107,3.512612960042537,3.512612960042537,3.7408160308122604,0.0,0.0,0.0,3.588680650299111,0.0,0.0,0.0,0.0,0.0,0.0,0.0,0.0,0.0,0.0,0.0,0.0,0.0,0.0,
0.5303,3.513157729213962,3.513157729213962,3.741487590643816,0.0,0.0,0.0,3.589267683023914,0.0,0.0,0.0,0.0,0.0,0.0,0.0,0.0,0.0,0.0,0.0,0.0,0.0,0.0,
0.55,3.5137263444944757,3.5137263444944757,3.7421885895422156,0.0,0.0,0.0,3.589880426177056,0.0,0.0,0.0,0.0,0.0,0.0,0.0,0.0,0.0,0.0,0.0,0.0,0.0,0.0,
0.5696,3.5143130773980116,3.5143130773980116,3.7429119701647227,0.0,0.0,0.0,3.5905127083202486,0.0,0.0,0.0,0.0,0.0,0.0,0.0,0.0,0.0,0.0,0.0,0.0,0.0,0.0,
0.5892,3.514920806701978,3.514920806701978,3.7436612864167707,0.0,0.0,0.0,3.591167633273576,0.0,0.0,0.0,0.0,0.0,0.0,0.0,0.0,0.0,0.0,0.0,0.0,0.0,0.0,
0.6089,3.5155528419603703,3.5155528419603703,3.7444406245083295,0.0,0.0,0.0,3.591848769476357,0.0,0.0,0.0,0.0,0.0,0.0,0.0,0.0,0.0,0.0,0.0,0.0,0.0,0.0,
0.6285,3.5162028159951726,3.5162028159951726,3.7452421387265677,0.0,0.0,0.0,3.5925492569056376,0.0,0.0,0.0,0.0,0.0,0.0,0.0,0.0,0.0,0.0,0.0,0.0,0.0,0.0,
0.6482,3.5168774127135993,3.5168774127135993,3.7460740769571514,0.0,0.0,0.0,3.5932763007947837,0.0,0.0,0.0,0.0,0.0,0.0,0.0,0.0,0.0,0.0,0.0,0.0,0.0,0.0,
0.6678,3.5175698363482946,3.5175698363482946,3.7469280641979417,0.0,0.0,0.0,3.5940225789648435,0.0,0.0,0.0,0.0,0.0,0.0,0.0,0.0,0.0,0.0,0.0,0.0,0.0,0.0,
0.6875,3.518287207522098,3.518287207522098,3.7478128885641064,0.0,0.0,0.0,3.594795767869434,0.0,0.0,0.0,0.0,0.0,0.0,0.0,0.0,0.0,0.0,0.0,0.0,0.0,0.0,
0.7071,3.519022299768284,3.519022299768284,3.74871964293385,0.0,0.0,0.0,3.595588080823473,0.0,0.0,0.0,0.0,0.0,0.0,0.0,0.0,0.0,0.0,0.0,0.0,0.0,0.0,
0.7267,3.51977875834639,3.51977875834639,3.7496528296623333,0.0,0.0,0.0,3.596403448785038,0.0,0.0,0.0,0.0,0.0,0.0,0.0,0.0,0.0,0.0,0.0,0.0,0.0,0.0,
0.7464,3.5205606669437963,3.5205606669437963,3.7506174936882646,0.0,0.0,0.0,3.5972462758586192,0.0,0.0,0.0,0.0,0.0,0.0,0.0,0.0,0.0,0.0,0.0,0.0,0.0,0.0,
0.766,3.5213601493319917,3.5213601493319917,3.751603924670739,0.0,0.0,0.0,3.5981080744449074,0.0,0.0,0.0,0.0,0.0,0.0,0.0,0.0,0.0,0.0,0.0,0.0,0.0,0.0,
0.7857,3.522185427704,3.522185427704,3.7526222745078686,0.0,0.0,0.0,3.598997709971956,0.0,0.0,0.0,0.0,0.0,0.0,0.0,0.0,0.0,0.0,0.0,0.0,0.0,0.0,
0.8053,3.523028189235901,3.523028189235901,3.753662292827287,0.0,0.0,0.0,3.599906223766363,0.0,0.0,0.0,0.0,0.0,0.0,0.0,0.0,0.0,0.0,0.0,0.0,0.0,0.0,
0.8249,3.523892635352557,3.523892635352557,3.7547291711340582,0.0,0.0,0.0,3.600838147279724,0.0,0.0,0.0,0.0,0.0,0.0,0.0,0.0,0.0,0.0,0.0,0.0,0.0,0.0,
0.8446,3.524783412490671,3.524783412490671,3.7558286523679563,0.0,0.0,0.0,3.6017984924497664,0.0,0.0,0.0,0.0,0.0,0.0,0.0,0.0,0.0,0.0,0.0,0.0,0.0,0.0,
0.8642,3.525691548545394,3.525691548545394,3.756949670160132,0.0,0.0,0.0,3.60277758908364,0.0,0.0,0.0,0.0,0.0,0.0,0.0,0.0,0.0,0.0,0.0,0.0,0.0,0.0,
0.8839,3.526626383958743,3.526626383958743,3.7581037626249216,0.0,0.0,0.0,3.6037855101808027,0.0,0.0,0.0,0.0,0.0,0.0,0.0,0.0,0.0,0.0,0.0,0.0,0.0,0.0,
0.9035,3.52757850321448,3.52757850321448,3.759279314210134,0.0,0.0,0.0,3.6048121068796983,0.0,0.0,0.0,0.0,0.0,0.0,0.0,0.0,0.0,0.0,0.0,0.0,0.0,0.0,
0.9231,3.5285526725849627,3.5285526725849627,3.7604822172610897,0.0,0.0,0.0,3.6058625208103385,0.0,0.0,0.0,0.0,0.0,0.0,0.0,0.0,0.0,0.0,0.0,0.0,0.0,0.0,
0.9428,3.529554110918056,3.529554110918056,3.7617189257327346,0.0,0.0,0.0,3.606942382522949,0.0,0.0,0.0,0.0,0.0,0.0,0.0,0.0,0.0,0.0,0.0,0.0,0.0,0.0,
0.9624,3.5305727324883462,3.5305727324883462,3.7629769933979285,0.0,0.0,0.0,3.608040819458207,0.0,0.0,0.0,0.0,0.0,0.0,0.0,0.0,0.0,0.0,0.0,0.0,0.0,0.0,
0.9821,3.5316190151517364,3.5316190151517364,3.7642693703817858,0.0,0.0,0.0,3.609169133561753,0.0,0.0,0.0,0.0,0.0,0.0,0.0,0.0,0.0,0.0,0.0,0.0,0.0,0.0,
1.0017,3.5326824219935236,3.5326824219935236,3.765583050823145,0.0,0.0,0.0,3.610315964936731,0.0,0.0,0.0,0.0,0.0,0.0,0.0,0.0,0.0,0.0,0.0,0.0,0.0,0.0,
1.0214,3.5337738920174737,3.5337738920174737,3.766931557952712,0.0,0.0,0.0,3.6114931139958864,0.0,0.0,0.0,0.0,0.0,0.0,0.0,0.0,0.0,0.0,0.0,0.0,0.0,0.0,
1.041,3.534882433726541,3.534882433726541,3.7683013217138965,0.0,0.0,0.0,3.612688729722326,0.0,0.0,0.0,0.0,0.0,0.0,0.0,0.0,0.0,0.0,0.0,0.0,0.0,0.0,
1.0606,3.5360136213431805,3.5360136213431805,3.769699238744614,0.0,0.0,0.0,3.6139088271436584,0.0,0.0,0.0,0.0,0.0,0.0,0.0,0.0,0.0,0.0,0.0,0.0,0.0,0.0,
1.0803,3.5371734939975337,3.5371734939975337,3.7711327838971904,0.0,0.0,0.0,3.615159923964086,0.0,0.0,0.0,0.0,0.0,0.0,0.0,0.0,0.0,0.0,0.0,0.0,0.0,0.0,
1.0999,3.5383503721823004,3.5383503721823004,3.7725875325091427,0.0,0.0,0.0,3.616429425624581,0.0,0.0,0.0,0.0,0.0,0.0,0.0,0.0,0.0,0.0,0.0,0.0,0.0,0.0,
1.1196,3.5395563635723155,3.5395563635723155,3.77407846192995,0.0,0.0,0.0,3.6177303963581937,0.0,0.0,0.0,0.0,0.0,0.0,0.0,0.0,0.0,0.0,0.0,0.0,0.0,0.0,
1.1392,3.5407793248694466,3.5407793248694466,3.775590570915324,0.0,0.0,0.0,3.6190497402180726,0.0,0.0,0.0,0.0,0.0,0.0,0.0,0.0,0.0,0.0,0.0,0.0,0.0,0.0,
1.1588,3.5420254213556532,3.5420254213556532,3.7771314922814425,0.0,0.0,0.0,3.62039411166425,0.0,0.0,0.0,0.0,0.0,0.0,0.0,0.0,0.0,0.0,0.0,0.0,0.0,0.0,
1.1785,3.5433012933516563,3.5433012933516563,3.7787094507135457,0.0,0.0,0.0,3.621770679138953,0.0,0.0,0.0,0.0,0.0,0.0,0.0,0.0,0.0,0.0,0.0,0.0,0.0,0.0,
1.1981,3.5445940949410057,3.5445940949410057,3.7803085707037414,0.0,0.0,0.0,3.6231655868619175,0.0,0.0,0.0,0.0,0.0,0.0,0.0,0.0,0.0,0.0,0.0,0.0,0.0,0.0,
1.2178,3.5459171281567183,3.5459171281567183,3.7819453183591487,0.0,0.0,0.0,3.6245931915575285,0.0,0.0,0.0,0.0,0.0,0.0,0.0,0.0,0.0,0.0,0.0,0.0,0.0,0.0,
1.2374,3.5472570729911777,3.5472570729911777,3.7836032277232725,0.0,0.0,0.0,3.6260391245685426,0.0,0.0,0.0,0.0,0.0,0.0,0.0,0.0,0.0,0.0,0.0,0.0,0.0,0.0,
1.2571,3.548627717327694,3.548627717327694,3.785299371321208,0.0,0.0,0.0,3.6275182686588656,0.0,0.0,0.0,0.0,0.0,0.0,0.0,0.0,0.0,0.0,0.0,0.0,0.0,0.0,
1.2767,3.550015262624388,3.550015262624388,3.7870166867625086,0.0,0.0,0.0,3.6290157373370953,0.0,0.0,0.0,0.0,0.0,0.0,0.0,0.0,0.0,0.0,0.0,0.0,0.0,0.0,
1.2963,3.551426724543253,3.551426724543253,3.7887638684146934,0.0,0.0,0.0,3.6305391058337335,0.0,0.0,0.0,0.0,0.0,0.0,0.0,0.0,0.0,0.0,0.0,0.0,0.0,0.0,
1.316,3.5528696099720913,3.5528696099720913,3.790550224355316,0.0,0.0,0.0,3.632096481433166,0.0,0.0,0.0,0.0,0.0,0.0,0.0,0.0,0.0,0.0,0.0,0.0,0.0,0.0,
1.3356,3.5543293944397867,3.5543293944397867,3.7923577865274463,0.0,0.0,0.0,3.63367219180234,0.0,0.0,0.0,0.0,0.0,0.0,0.0,0.0,0.0,0.0,0.0,0.0,0.0,0.0,
1.3553,3.5558211012468584,3.5558211012468584,3.7942051716427647,0.0,0.0,0.0,3.6352824580454937,0.0,0.0,0.0,0.0,0.0,0.0,0.0,0.0,0.0,0.0,0.0,0.0,0.0,0.0,
1.3749,3.557329715442578,3.557329715442578,3.7960737991076328,0.0,0.0,0.0,3.6369110766642625,0.0,0.0,0.0,0.0,0.0,0.0,0.0,0.0,0.0,0.0,0.0,0.0,0.0,0.0,
1.3945,3.558862878435663,3.558862878435663,3.797973146327674,0.0,0.0,0.0,3.638566301066333,0.0,0.0,0.0,0.0,0.0,0.0,0.0,0.0,0.0,0.0,0.0,0.0,0.0,0.0,
1.4142,3.560428735961897,3.560428735961897,3.7999133221168093,0.0,0.0,0.0,3.6402569313468676,0.0,0.0,0.0,0.0,0.0,0.0,0.0,0.0,0.0,0.0,0.0,0.0,0.0,0.0,
1.4338,3.5620115283009115,3.5620115283009115,3.8018748148045702,0.0,0.0,0.0,3.6419659571354646,0.0,0.0,0.0,0.0,0.0,0.0,0.0,0.0,0.0,0.0,0.0,0.0,0.0,0.0,
1.4535,3.5636275474172923,3.5636275474172923,3.8038778302252543,0.0,0.0,0.0,3.643710975019946,0.0,0.0,0.0,0.0,0.0,0.0,0.0,0.0,0.0,0.0,0.0,0.0,0.0,0.0,
1.4731,3.565260529894193,3.565260529894193,3.8059022263370013,0.0,0.0,0.0,3.645474428708462,0.0,0.0,0.0,0.0,0.0,0.0,0.0,0.0,0.0,0.0,0.0,0.0,0.0,0.0,
1.4927,3.566918760174186,3.566918760174186,3.807958286975023,0.0,0.0,0.0,3.6472652691077982,0.0,0.0,0.0,0.0,0.0,0.0,0.0,0.0,0.0,0.0,0.0,0.0,0.0,0.0,
1.5124,3.568611041519377,3.568611041519377,3.810056946981154,0.0,0.0,0.0,3.649093010006636,0.0,0.0,0.0,0.0,0.0,0.0,0.0,0.0,0.0,0.0,0.0,0.0,0.0,0.0,
1.532,3.5703203449298715,3.5703203449298715,3.8121771051360995,0.0,0.0,0.0,3.6509392649986143,0.0,0.0,0.0,0.0,0.0,0.0,0.0,0.0,0.0,0.0,0.0,0.0,0.0,0.0,
1.5517,3.5720642678278085,3.5720642678278085,3.814340606178656,0.0,0.0,0.0,3.652823047278091,0.0,0.0,0.0,0.0,0.0,0.0,0.0,0.0,0.0,0.0,0.0,0.0,0.0,0.0,
1.5713,3.5738252629356477,3.5738252629356477,3.8165256988211174,0.0,0.0,0.0,3.6547254082308043,0.0,0.0,0.0,0.0,0.0,0.0,0.0,0.0,0.0,0.0,0.0,0.0,0.0,0.0,
1.591,3.575621461281483,3.575621461281483,3.8187548988066387,0.0,0.0,0.0,3.6566659404565347,0.0,0.0,0.0,0.0,0.0,0.0,0.0,0.0,0.0,0.0,0.0,0.0,0.0,0.0,
1.6106,3.577434791069223,3.577434791069223,3.8210057963419373,0.0,0.0,0.0,3.658625126160128,0.0,0.0,0.0,0.0,0.0,0.0,0.0,0.0,0.0,0.0,0.0,0.0,0.0,0.0,
1.6302,3.579274469731092,3.579274469731092,3.8232898486088454,0.0,0.0,0.0,3.66061292935701,0.0,0.0,0.0,0.0,0.0,0.0,0.0,0.0,0.0,0.0,0.0,0.0,0.0,0.0,
1.6499,3.5811502563608313,3.5811502563608313,3.825619194726785,0.0,0.0,0.0,3.662639902482816,0.0,0.0,0.0,0.0,0.0,0.0,0.0,0.0,0.0,0.0,0.0,0.0,0.0,0.0,
1.6695,3.583043280833998,3.583043280833998,3.827970421455666,0.0,0.0,0.0,3.6646856610412204,0.0,0.0,0.0,0.0,0.0,0.0,0.0,0.0,0.0,0.0,0.0,0.0,0.0,0.0,
1.6892,3.5849730376613542,3.5849730376613542,3.830367762057666,0.0,0.0,0.0,3.6667712791267917,0.0,0.0,0.0,0.0,0.0,0.0,0.0,0.0,0.0,0.0,0.0,0.0,0.0,0.0,
1.7088,3.586920115527707,3.586920115527707,3.8327871222294023,0.0,0.0,0.0,3.668875784428272,0.0,0.0,0.0,0.0,0.0,0.0,0.0,0.0,0.0,0.0,0.0,0.0,0.0,0.0,
1.7284,3.588894424258715,3.588894424258715,3.8352408324983016,0.0,0.0,0.0,3.671009893671911,0.0,0.0,0.0,0.0,0.0,0.0,0.0,0.0,0.0,0.0,0.0,0.0,0.0,0.0,
1.7481,3.5909064336507126,3.5909064336507126,3.837741930156853,0.0,0.0,0.0,3.673184932486093,0.0,0.0,0.0,0.0,0.0,0.0,0.0,0.0,0.0,0.0,0.0,0.0,0.0,0.0,
1.7677,3.5929359078656637,3.5929359078656637,3.8402652819921315,0.0,0.0,0.0,3.6753790325744866,0.0,0.0,0.0,0.0,0.0,0.0,0.0,0.0,0.0,0.0,0.0,0.0,0.0,0.0,
1.7874,3.59500375143713,3.59500375143713,3.842836901927617,0.0,0.0,0.0,3.677614801600626,0.0,0.0,0.0,0.0,0.0,0.0,0.0,0.0,0.0,0.0,0.0,0.0,0.0,0.0,
1.807,3.597089169021483,3.597089169021483,3.845430950877083,0.0,0.0,0.0,3.67986976297335,0.0,0.0,0.0,0.0,0.0,0.0,0.0,0.0,0.0,0.0,0.0,0.0,0.0,0.0,
1.8267,3.59921364352459,3.59921364352459,3.8480741745067286,0.0,0.0,0.0,3.6821671538519696,0.0,0.0,0.0,0.0,0.0,0.0,0.0,0.0,0.0,0.0,0.0,0.0,0.0,0.0,
1.8463,3.60135581227574,3.60135581227574,3.850740017252658,0.0,0.0,0.0,3.684483880601379,0.0,0.0,0.0,0.0,0.0,0.0,0.0,0.0,0.0,0.0,0.0,0.0,0.0,0.0,
1.8659,3.6035265959135834,3.6035265959135834,3.853442088639054,0.0,0.0,0.0,3.686831760155407,0.0,0.0,0.0,0.0,0.0,0.0,0.0,0.0,0.0,0.0,0.0,0.0,0.0,0.0,
1.8856,3.605737503799583,3.605737503799583,3.856194744001039,0.0,0.0,0.0,3.6892232505334017,0.0,0.0,0.0,0.0,0.0,0.0,0.0,0.0,0.0,0.0,0.0,0.0,0.0,0.0,
1.9052,3.607966307699629,3.607966307699629,3.858970333221105,0.0,0.0,0.0,3.6916343162067875,0.0,0.0,0.0,0.0,0.0,0.0,0.0,0.0,0.0,0.0,0.0,0.0,0.0,0.0,
1.9249,3.610235973682279,3.610235973682279,3.8617974820030683,0.0,0.0,0.0,3.6940898097892085,0.0,0.0,0.0,0.0,0.0,0.0,0.0,0.0,0.0,0.0,0.0,0.0,0.0,0.0,
1.9445,3.612523685325522,3.612523685325522,3.8646477954433496,0.0,0.0,0.0,3.696565055364798,0.0,0.0,0.0,0.0,0.0,0.0,0.0,0.0,0.0,0.0,0.0,0.0,0.0,0.0,
1.9641,3.6148411181146685,3.6148411181146685,3.8675358413159766,0.0,0.0,0.0,3.6990726925151045,0.0,0.0,0.0,0.0,0.0,0.0,0.0,0.0,0.0,0.0,0.0,0.0,0.0,0.0,
1.9838,3.617200559258483,3.617200559258483,3.870476964488038,0.0,0.0,0.0,3.701626027668335,0.0,0.0,0.0,0.0,0.0,0.0,0.0,0.0,0.0,0.0,0.0,0.0,0.0,0.0,
2.0034,3.61957829402409,3.61957829402409,3.873441631034762,0.0,0.0,0.0,3.704199406360981,0.0,0.0,0.0,0.0,0.0,0.0,0.0,0.0,0.0,0.0,0.0,0.0,0.0,0.0,
2.0231,3.6219988302002024,3.6219988302002024,3.8764604263787374,0.0,0.0,0.0,3.7068193622597136,0.0,0.0,0.0,0.0,0.0,0.0,0.0,0.0,0.0,0.0,0.0,0.0,0.0,0.0,
2.0427,3.6244378419833945,3.6244378419833945,3.8795030407168136,0.0,0.0,0.0,3.7094595748945345,0.0,0.0,0.0,0.0,0.0,0.0,0.0,0.0,0.0,0.0,0.0,0.0,0.0,0.0,
2.0624,3.6269204718686896,3.6269204718686896,3.8826008678730743,0.0,0.0,0.0,3.7121472705368177,0.0,0.0,0.0,0.0,0.0,0.0,0.0,0.0,0.0,0.0,0.0,0.0,0.0,0.0,
2.082,3.629421773214795,3.629421773214795,3.885722808882162,0.0,0.0,0.0,3.714855451770584,0.0,0.0,0.0,0.0,0.0,0.0,0.0,0.0,0.0,0.0,0.0,0.0,0.0,0.0,
2.1016,3.631954530599097,3.631954530599097,3.888884844320883,0.0,0.0,0.0,3.717597968506359,0.0,0.0,0.0,0.0,0.0,0.0,0.0,0.0,0.0,0.0,0.0,0.0,0.0,0.0,
2.1213,3.6345321764278564,3.6345321764278564,3.8921037810396566,0.0,0.0,0.0,3.720389377965123,0.0,0.0,0.0,0.0,0.0,0.0,0.0,0.0,0.0,0.0,0.0,0.0,0.0,0.0,
2.1409,3.6371288144943557,3.6371288144943557,3.895347311343412,0.0,0.0,0.0,3.7232016467773743,0.0,0.0,0.0,0.0,0.0,0.0,0.0,0.0,0.0,0.0,0.0,0.0,0.0,0.0,
2.1606,3.639771221020038,3.639771221020038,3.898648914162373,0.0,0.0,0.0,3.7260637854008163,0.0,0.0,0.0,0.0,0.0,0.0,0.0,0.0,0.0,0.0,0.0,0.0,0.0,0.0,
2.1802,3.6424328529097716,3.6424328529097716,3.9019754571766723,0.0,0.0,0.0,3.7289470543320715,0.0,0.0,0.0,0.0,0.0,0.0,0.0,0.0,0.0,0.0,0.0,0.0,0.0,0.0,
2.1998,3.645127328428475,3.645127328428475,3.9053439867114923,0.0,0.0,0.0,3.731866214522814,0.0,0.0,0.0,0.0,0.0,0.0,0.0,0.0,0.0,0.0,0.0,0.0,0.0,0.0,
2.2195,3.6478689425778343,3.6478689425778343,3.908772414802531,0.0,0.0,0.0,3.7348367666527333,0.0,0.0,0.0,0.0,0.0,0.0,0.0,0.0,0.0,0.0,0.0,0.0,0.0,0.0,
2.2391,3.6506301617933925,3.6506301617933925,3.912226344680253,0.0,0.0,0.0,3.737828889422346,0.0,0.0,0.0,0.0,0.0,0.0,0.0,0.0,0.0,0.0,0.0,0.0,0.0,0.0,
2.2588,3.6534394697647388,3.6534394697647388,3.915741441028515,0.0,0.0,0.0,3.740873460185998,0.0,0.0,0.0,0.0,0.0,0.0,0.0,0.0,0.0,0.0,0.0,0.0,0.0,0.0,
2.2784,3.6562686574454517,3.6562686574454517,3.9192824434762037,0.0,0.0,0.0,3.7439399194557024,0.0,0.0,0.0,0.0,0.0,0.0,0.0,0.0,0.0,0.0,0.0,0.0,0.0,0.0,
2.298,3.6591322155187807,3.6591322155187807,3.922867517012742,0.0,0.0,0.0,3.7470439826834343,0.0,0.0,0.0,0.0,0.0,0.0,0.0,0.0,0.0,0.0,0.0,0.0,0.0,0.0,
2.3177,3.6620453432432787,3.6620453432432787,3.926515735828503,0.0,0.0,0.0,3.750202140771687,0.0,0.0,0.0,0.0,0.0,0.0,0.0,0.0,0.0,0.0,0.0,0.0,0.0,0.0,
2.3373,3.664978796190365,3.664978796190365,3.930190513838868,0.0,0.0,0.0,3.7533827020731994,0.0,0.0,0.0,0.0,0.0,0.0,0.0,0.0,0.0,0.0,0.0,0.0,0.0,0.0,
2.357,3.6679628468148273,3.6679628468148273,3.933929812579114,0.0,0.0,0.0,3.7566185020695895,0.0,0.0,0.0,0.0,0.0,0.0,0.0,0.0,0.0,0.0,0.0,0.0,0.0,0.0,
2.3766,3.6709675437966856,3.6709675437966856,3.937696139489725,0.0,0.0,0.0,3.7598770756943654,0.0,0.0,0.0,0.0,0.0,0.0,0.0,0.0,0.0,0.0,0.0,0.0,0.0,0.0,
2.3963,3.6740239001006945,3.6740239001006945,3.94152840901837,0.0,0.0,0.0,3.76319206973992,0.0,0.0,0.0,0.0,0.0,0.0,0.0,0.0,0.0,0.0,0.0,0.0,0.0,0.0,
2.4159,3.6771012440874067,3.6771012440874067,3.945388203784504,0.0,0.0,0.0,3.7665302306531054,0.0,0.0,0.0,0.0,0.0,0.0,0.0,0.0,0.0,0.0,0.0,0.0,0.0,0.0,
2.4355,3.680215360912004,3.680215360912004,3.9492953548802374,0.0,0.0,0.0,3.7699086922347482,0.0,0.0,0.0,0.0,0.0,0.0,0.0,0.0,0.0,0.0,0.0,0.0,0.0,0.0,
2.4552,3.68338279447224,3.68338279447224,3.9532706712279775,0.0,0.0,0.0,3.773345420057486,0.0,0.0,0.0,0.0,0.0,0.0,0.0,0.0,0.0,0.0,0.0,0.0,0.0,0.0,
2.4748,3.686571767273971,3.686571767273971,3.9572743134480866,0.0,0.0,0.0,3.7768059493320094,0.0,0.0,0.0,0.0,0.0,0.0,0.0,0.0,0.0,0.0,0.0,0.0,0.0,0.0,
2.4945,3.6898152093141934,3.6898152093141934,3.9613476683793936,0.0,0.0,0.0,3.7803260290025933,0.0,0.0,0.0,0.0,0.0,0.0,0.0,0.0,0.0,0.0,0.0,0.0,0.0,0.0,
2.5141,3.6930805868882635,3.6930805868882635,3.9654499227382742,0.0,0.0,0.0,3.7838703655049337,0.0,0.0,0.0,0.0,0.0,0.0,0.0,0.0,0.0,0.0,0.0,0.0,0.0,0.0,
2.5337,3.6963846680721884,3.6963846680721884,3.969602177557632,0.0,0.0,0.0,3.787457171234003,0.0,0.0,0.0,0.0,0.0,0.0,0.0,0.0,0.0,0.0,0.0,0.0,0.0,0.0,
2.5534,3.6997450200628923,3.6997450200628923,3.9738265670165744,0.0,0.0,0.0,3.7911055357141197,0.0,0.0,0.0,0.0,0.0,0.0,0.0,0.0,0.0,0.0,0.0,0.0,0.0,0.0,
