energies(eV),real_xx,real_yy,real_zz,real_xy,real_yz,real_xz,real_ave,imag_xx,imag_yy,imag_zz,imag_xy,imag_yz,imag_xz,imag_ave,absorption_xx,absorption_yy,absorption_zz,absorption_xy,absorption_yz,absorption_xz,absorption_ave,band_gap
0.0,2.728656875902068,2.728656875902068,2.728656875902068,0.0,0.0,0.0,2.728656875902068,0.0,0.0,0.0,0.0,0.0,0.0,0.0,0.0,0.0,0.0,0.0,0.0,0.0,0.0,5.2553
0.0135,2.728660285571368,2.728660285571368,2.728660285571368,0.0,0.0,0.0,2.7286602855713675,0.0,0.0,0.0,0.0,0.0,0.0,0.0,0.0,0.0,0.0,0.0,0.0,0.0,0.0,
0.027,2.728670514714237,2.728670514714237,2.728670514714237,0.0,0.0,0.0,2.728670514714237,0.0,0.0,0.0,0.0,0.0,0.0,0.0,0.0,0.0,0.0,0.0,0.0,0.0,0.0,
0.0405,2.728687563735534,2.728687563735534,2.728687563735534,0.0,0.0,0.0,2.728687563735534,0.0,0.0,0.0,0.0,0.0,0.0,0.0,0.0,0.0,0.0,0.0,0.0,0.0,0.0,
0.054,2.7287114333100906,2.7287114333100906,2.7287114333100906,0.0,0.0,0.0,2.7287114333100906,0.0,0.0,0.0,0.0,0.0,0.0,0.0,0.0,0.0,0.0,0.0,0.0,0.0,0.0,
0.0675,2.7287421243827863,2.7287421243827863,2.7287421243827863,0.0,0.0,0.0,2.728742124382786,0.0,0.0,0.0,0.0,0.0,0.0,0.0,0.0,0.0,0.0,0.0,0.0,0.0,0.0,
0.081,2.7287796381686835,2.7287796381686835,2.7287796381686835,0.0,0.0,0.0,2.7287796381686835,0.0,0.0,0.0,0.0,0.0,0.0,0.0,0.0,0.0,0.0,0.0,0.0,0.0,0.0,
0.0945,2.7288239761532047,2.7288239761532047,2.7288239761532047,0.0,0.0,0.0,2.7288239761532047,0.0,0.0,0.0,0.0,0.0,0.0,0.0,0.0,0.0,0.0,0.0,0.0,0.0,0.0,
0.108,2.728875140092247,2.728875140092247,2.728875140092247,0.0,0.0,0.0,2.728875140092247,0.0,0.0,0.0,0.0,0.0,0.0,0.0,0.0,0.0,0.0,0.0,0.0,0.0,0.0,
0.1215,2.7289331320125028,2.7289331320125028,2.7289331320125028,0.0,0.0,0.0,2.7289331320125023,0.0,0.0,0.0,0.0,0.0,0.0,0.0,0.0,0.0,0.0,0.0,0.0,0.0,0.0,
0.135,2.728997954211689,2.728997954211689,2.728997954211689,0.0,0.0,0.0,2.728997954211689,0.0,0.0,0.0,0.0,0.0,0.0,0.0,0.0,0.0,0.0,0.0,0.0,0.0,0.0,
0.1484,2.729069053354496,2.729069053354496,2.729069053354496,0.0,0.0,0.0,2.7290690533544955,0.0,0.0,0.0,0.0,0.0,0.0,0.0,0.0,0.0,0.0,0.0,0.0,0.0,0.0,
0.1619,2.72914749344434,2.72914749344434,2.72914749344434,0.0,0.0,0.0,2.7291474934443394,0.0,0.0,0.0,0.0,0.0,0.0,0.0,0.0,0.0,0.0,0.0,0.0,0.0,0.0,
0.1754,2.729232772311394,2.729232772311394,2.729232772311394,0.0,0.0,0.0,2.7292327723113936,0.0,0.0,0.0,0.0,0.0,0.0,0.0,0.0,0.0,0.0,0.0,0.0,0.0,0.0,
0.1889,2.7293248933387098,2.7293248933387098,2.7293248933387098,0.0,0.0,0.0,2.7293248933387098,0.0,0.0,0.0,0.0,0.0,0.0,0.0,0.0,0.0,0.0,0.0,0.0,0.0,0.0,
0.2024,2.7294238601822505,2.7294238601822505,2.7294238601822505,0.0,0.0,0.0,2.72942386018225,0.0,0.0,0.0,0.0,0.0,0.0,0.0,0.0,0.0,0.0,0.0,0.0,0.0,0.0,
0.2159,2.729529676771264,2.729529676771264,2.729529676771264,0.0,0.0,0.0,2.729529676771264,0.0,0.0,0.0,0.0,0.0,0.0,0.0,0.0,0.0,0.0,0.0,0.0,0.0,0.0,
0.2294,2.7296423473088707,2.7296423473088707,2.7296423473088707,0.0,0.0,0.0,2.7296423473088702,0.0,0.0,0.0,0.0,0.0,0.0,0.0,0.0,0.0,0.0,0.0,0.0,0.0,0.0,
0.2429,2.7297618762725566,2.7297618762725566,2.7297618762725566,0.0,0.0,0.0,2.7297618762725566,0.0,0.0,0.0,0.0,0.0,0.0,0.0,0.0,0.0,0.0,0.0,0.0,0.0,0.0,
0.2564,2.729888268414812,2.729888268414812,2.729888268414812,0.0,0.0,0.0,2.7298882684148125,0.0,0.0,0.0,0.0,0.0,0.0,0.0,0.0,0.0,0.0,0.0,0.0,0.0,0.0,
0.2699,2.7300215287636753,2.7300215287636753,2.7300215287636753,0.0,0.0,0.0,2.7300215287636753,0.0,0.0,0.0,0.0,0.0,0.0,0.0,0.0,0.0,0.0,0.0,0.0,0.0,0.0,
0.2834,2.7301616626234715,2.7301616626234715,2.7301616626234715,0.0,0.0,0.0,2.7301616626234715,0.0,0.0,0.0,0.0,0.0,0.0,0.0,0.0,0.0,0.0,0.0,0.0,0.0,0.0,
0.2969,2.730308675575463,2.730308675575463,2.730308675575463,0.0,0.0,0.0,2.730308675575463,0.0,0.0,0.0,0.0,0.0,0.0,0.0,0.0,0.0,0.0,0.0,0.0,0.0,0.0,
0.3104,2.7304625734785555,2.7304625734785555,2.7304625734785555,0.0,0.0,0.0,2.730462573478556,0.0,0.0,0.0,0.0,0.0,0.0,0.0,0.0,0.0,0.0,0.0,0.0,0.0,0.0,
0.3239,2.7306233624701184,2.7306233624701184,2.7306233624701184,0.0,0.0,0.0,2.730623362470118,0.0,0.0,0.0,0.0,0.0,0.0,0.0,0.0,0.0,0.0,0.0,0.0,0.0,0.0,
0.3374,2.7307910489667577,2.7307910489667577,2.7307910489667577,0.0,0.0,0.0,2.7307910489667577,0.0,0.0,0.0,0.0,0.0,0.0,0.0,0.0,0.0,0.0,0.0,0.0,0.0,0.0,
0.3509,2.7309656396651523,2.7309656396651523,2.7309656396651523,0.0,0.0,0.0,2.7309656396651523,0.0,0.0,0.0,0.0,0.0,0.0,0.0,0.0,0.0,0.0,0.0,0.0,0.0,0.0,
0.3644,2.7311471415429494,2.7311471415429494,2.7311471415429494,0.0,0.0,0.0,2.7311471415429494,0.0,0.0,0.0,0.0,0.0,0.0,0.0,0.0,0.0,0.0,0.0,0.0,0.0,0.0,
0.3779,2.7313355618596638,2.7313355618596638,2.7313355618596638,0.0,0.0,0.0,2.7313355618596638,0.0,0.0,0.0,0.0,0.0,0.0,0.0,0.0,0.0,0.0,0.0,0.0,0.0,0.0,
0.3914,2.7315309081576693,2.7315309081576693,2.7315309081576693,0.0,0.0,0.0,2.7315309081576693,0.0,0.0,0.0,0.0,0.0,0.0,0.0,0.0,0.0,0.0,0.0,0.0,0.0,0.0,
0.4049,2.7317331882631484,2.7317331882631484,2.7317331882631484,0.0,0.0,0.0,2.731733188263148,0.0,0.0,0.0,0.0,0.0,0.0,0.0,0.0,0.0,0.0,0.0,0.0,0.0,0.0,
0.4184,2.7319424102871457,2.7319424102871457,2.7319424102871457,0.0,0.0,0.0,2.7319424102871452,0.0,0.0,0.0,0.0,0.0,0.0,0.0,0.0,0.0,0.0,0.0,0.0,0.0,0.0,
0.4319,2.7321585826266306,2.7321585826266306,2.7321585826266306,0.0,0.0,0.0,2.73215858262663,0.0,0.0,0.0,0.0,0.0,0.0,0.0,0.0,0.0,0.0,0.0,0.0,0.0,0.0,
0.4453,2.732380035536032,2.732380035536032,2.732380035536032,0.0,0.0,0.0,2.732380035536032,0.0,0.0,0.0,0.0,0.0,0.0,0.0,0.0,0.0,0.0,0.0,0.0,0.0,0.0,
0.4588,2.7326100831984776,2.7326100831984776,2.7326100831984776,0.0,0.0,0.0,2.732610083198478,0.0,0.0,0.0,0.0,0.0,0.0,0.0,0.0,0.0,0.0,0.0,0.0,0.0,0.0,
0.4723,2.7328471080245977,2.7328471080245977,2.7328471080245977,0.0,0.0,0.0,2.732847108024598,0.0,0.0,0.0,0.0,0.0,0.0,0.0,0.0,0.0,0.0,0.0,0.0,0.0,0.0,
0.4858,2.73309111956445,2.73309111956445,2.73309111956445,0.0,0.0,0.0,2.7330911195644503,0.0,0.0,0.0,0.0,0.0,0.0,0.0,0.0,0.0,0.0,0.0,0.0,0.0,0.0,
0.4993,2.733342127659964,2.733342127659964,2.733342127659964,0.0,0.0,0.0,2.7333421276599643,0.0,0.0,0.0,0.0,0.0,0.0,0.0,0.0,0.0,0.0,0.0,0.0,0.0,0.0,
0.5128,2.7336001424462895,2.7336001424462895,2.7336001424462895,0.0,0.0,0.0,2.73360014244629,0.0,0.0,0.0,0.0,0.0,0.0,0.0,0.0,0.0,0.0,0.0,0.0,0.0,0.0,
0.5263,2.733865174353092,2.733865174353092,2.733865174353092,0.0,0.0,0.0,2.733865174353092,0.0,0.0,0.0,0.0,0.0,0.0,0.0,0.0,0.0,0.0,0.0,0.0,0.0,0.0,
0.5398,2.7341372341059986,2.7341372341059986,2.7341372341059986,0.0,0.0,0.0,2.7341372341059986,0.0,0.0,0.0,0.0,0.0,0.0,0.0,0.0,0.0,0.0,0.0,0.0,0.0,0.0,
0.5533,2.7344163327280073,2.7344163327280073,2.7344163327280073,0.0,0.0,0.0,2.7344163327280078,0.0,0.0,0.0,0.0,0.0,0.0,0.0,0.0,0.0,0.0,0.0,0.0,0.0,0.0,
0.5668,2.734702481540989,2.734702481540989,2.734702481540989,0.0,0.0,0.0,2.734702481540989,0.0,0.0,0.0,0.0,0.0,0.0,0.0,0.0,0.0,0.0,0.0,0.0,0.0,0.0,
0.5803,2.7349956921671796,2.7349956921671796,2.7349956921671796,0.0,0.0,0.0,2.7349956921671796,0.0,0.0,0.0,0.0,0.0,0.0,0.0,0.0,0.0,0.0,0.0,0.0,0.0,0.0,
0.5938,2.7352959765307916,2.7352959765307916,2.7352959765307916,0.0,0.0,0.0,2.7352959765307916,0.0,0.0,0.0,0.0,0.0,0.0,0.0,0.0,0.0,0.0,0.0,0.0,0.0,0.0,
0.6073,2.7356033468595937,2.7356033468595937,2.7356033468595937,0.0,0.0,0.0,2.7356033468595933,0.0,0.0,0.0,0.0,0.0,0.0,0.0,0.0,0.0,0.0,0.0,0.0,0.0,0.0,
0.6208,2.735917815686549,2.735917815686549,2.735917815686549,0.0,0.0,0.0,2.7359178156865496,0.0,0.0,0.0,0.0,0.0,0.0,0.0,0.0,0.0,0.0,0.0,0.0,0.0,0.0,
0.6343,2.7362393958516105,2.7362393958516105,2.7362393958516105,0.0,0.0,0.0,2.7362393958516105,0.0,0.0,0.0,0.0,0.0,0.0,0.0,0.0,0.0,0.0,0.0,0.0,0.0,0.0,
0.6478,2.736568100503323,2.736568100503323,2.736568100503323,0.0,0.0,0.0,2.736568100503323,0.0,0.0,0.0,0.0,0.0,0.0,0.0,0.0,0.0,0.0,0.0,0.0,0.0,0.0,
0.6613,2.736903943100735,2.736903943100735,2.736903943100735,0.0,0.0,0.0,2.736903943100735,0.0,0.0,0.0,0.0,0.0,0.0,0.0,0.0,0.0,0.0,0.0,0.0,0.0,0.0,
0.6748,2.737246937415173,2.737246937415173,2.737246937415173,0.0,0.0,0.0,2.7372469374151733,0.0,0.0,0.0,0.0,0.0,0.0,0.0,0.0,0.0,0.0,0.0,0.0,0.0,0.0,
0.6883,2.737597097532196,2.737597097532196,2.737597097532196,0.0,0.0,0.0,2.737597097532196,0.0,0.0,0.0,0.0,0.0,0.0,0.0,0.0,0.0,0.0,0.0,0.0,0.0,0.0,
0.7018,2.7379544378534213,2.7379544378534213,2.7379544378534213,0.0,0.0,0.0,2.7379544378534213,0.0,0.0,0.0,0.0,0.0,0.0,0.0,0.0,0.0,0.0,0.0,0.0,0.0,0.0,
0.7153,2.7383189730985915,2.7383189730985915,2.7383189730985915,0.0,0.0,0.0,2.7383189730985915,0.0,0.0,0.0,0.0,0.0,0.0,0.0,0.0,0.0,0.0,0.0,0.0,0.0,0.0,
0.7288,2.7386907183076,2.7386907183076,2.7386907183076,0.0,0.0,0.0,2.7386907183076,0.0,0.0,0.0,0.0,0.0,0.0,0.0,0.0,0.0,0.0,0.0,0.0,0.0,0.0,
0.7422,2.73906685505304,2.73906685505304,2.73906685505304,0.0,0.0,0.0,2.7390668550530406,0.0,0.0,0.0,0.0,0.0,0.0,0.0,0.0,0.0,0.0,0.0,0.0,0.0,0.0,
0.7557,2.7394530129047205,2.7394530129047205,2.7394530129047205,0.0,0.0,0.0,2.7394530129047205,0.0,0.0,0.0,0.0,0.0,0.0,0.0,0.0,0.0,0.0,0.0,0.0,0.0,0.0,
0.7692,2.7398464276618784,2.7398464276618784,2.7398464276618784,0.0,0.0,0.0,2.739846427661879,0.0,0.0,0.0,0.0,0.0,0.0,0.0,0.0,0.0,0.0,0.0,0.0,0.0,0.0,
0.7827,2.740247115663781,2.740247115663781,2.740247115663781,0.0,0.0,0.0,2.740247115663781,0.0,0.0,0.0,0.0,0.0,0.0,0.0,0.0,0.0,0.0,0.0,0.0,0.0,0.0,
0.7962,2.740655093580699,2.740655093580699,2.740655093580699,0.0,0.0,0.0,2.740655093580699,0.0,0.0,0.0,0.0,0.0,0.0,0.0,0.0,0.0,0.0,0.0,0.0,0.0,0.0,
0.8097,2.7410703784162607,2.7410703784162607,2.7410703784162607,0.0,0.0,0.0,2.7410703784162607,0.0,0.0,0.0,0.0,0.0,0.0,0.0,0.0,0.0,0.0,0.0,0.0,0.0,0.0,
0.8232,2.741492987509858,2.741492987509858,2.741492987509858,0.0,0.0,0.0,2.741492987509858,0.0,0.0,0.0,0.0,0.0,0.0,0.0,0.0,0.0,0.0,0.0,0.0,0.0,0.0,
0.8367,2.741922938539066,2.741922938539066,2.741922938539066,0.0,0.0,0.0,2.741922938539066,0.0,0.0,0.0,0.0,0.0,0.0,0.0,0.0,0.0,0.0,0.0,0.0,0.0,0.0,
0.8502,2.742360249522118,2.742360249522118,2.742360249522118,0.0,0.0,0.0,2.742360249522118,0.0,0.0,0.0,0.0,0.0,0.0,0.0,0.0,0.0,0.0,0.0,0.0,0.0,0.0,
0.8637,2.7428049388205293,2.7428049388205293,2.7428049388205293,0.0,0.0,0.0,2.742804938820529,0.0,0.0,0.0,0.0,0.0,0.0,0.0,0.0,0.0,0.0,0.0,0.0,0.0,0.0,
0.8772,2.743257025141637,2.743257025141637,2.743257025141637,0.0,0.0,0.0,2.7432570251416366,0.0,0.0,0.0,0.0,0.0,0.0,0.0,0.0,0.0,0.0,0.0,0.0,0.0,0.0,
0.8907,2.743716527541298,2.743716527541298,2.743716527541298,0.0,0.0,0.0,2.7437165275412974,0.0,0.0,0.0,0.0,0.0,0.0,0.0,0.0,0.0,0.0,0.0,0.0,0.0,0.0,
0.9042,2.7441834654266257,2.7441834654266257,2.7441834654266257,0.0,0.0,0.0,2.7441834654266253,0.0,0.0,0.0,0.0,0.0,0.0,0.0,0.0,0.0,0.0,0.0,0.0,0.0,0.0,
0.9177,2.7446578585587567,2.7446578585587567,2.7446578585587567,0.0,0.0,0.0,2.7446578585587567,0.0,0.0,0.0,0.0,0.0,0.0,0.0,0.0,0.0,0.0,0.0,0.0,0.0,0.0,
0.9312,2.7451397270557063,2.7451397270557063,2.7451397270557063,0.0,0.0,0.0,2.7451397270557063,0.0,0.0,0.0,0.0,0.0,0.0,0.0,0.0,0.0,0.0,0.0,0.0,0.0,0.0,
0.9447,2.745629091395239,2.745629091395239,2.745629091395239,0.0,0.0,0.0,2.745629091395239,0.0,0.0,0.0,0.0,0.0,0.0,0.0,0.0,0.0,0.0,0.0,0.0,0.0,0.0,
0.9582,2.7461259724179037,2.7461259724179037,2.7461259724179037,0.0,0.0,0.0,2.7461259724179037,0.0,0.0,0.0,0.0,0.0,0.0,0.0,0.0,0.0,0.0,0.0,0.0,0.0,0.0,
0.9717,2.746630391329984,2.746630391329984,2.746630391329984,0.0,0.0,0.0,2.7466303913299845,0.0,0.0,0.0,0.0,0.0,0.0,0.0,0.0,0.0,0.0,0.0,0.0,0.0,0.0,
0.9852,2.7471423697066744,2.7471423697066744,2.7471423697066744,0.0,0.0,0.0,2.7471423697066744,0.0,0.0,0.0,0.0,0.0,0.0,0.0,0.0,0.0,0.0,0.0,0.0,0.0,0.0,
0.9987,2.7476619294951377,2.7476619294951377,2.7476619294951377,0.0,0.0,0.0,2.7476619294951377,0.0,0.0,0.0,0.0,0.0,0.0,0.0,0.0,0.0,0.0,0.0,0.0,0.0,0.0,
1.0122,2.7481890930178103,2.7481890930178103,2.7481890930178103,0.0,0.0,0.0,2.7481890930178103,0.0,0.0,0.0,0.0,0.0,0.0,0.0,0.0,0.0,0.0,0.0,0.0,0.0,0.0,
1.0257,2.7487238829756704,2.7487238829756704,2.7487238829756704,0.0,0.0,0.0,2.74872388297567,0.0,0.0,0.0,0.0,0.0,0.0,0.0,0.0,0.0,0.0,0.0,0.0,0.0,0.0,
1.0391,2.7492622762026384,2.7492622762026384,2.7492622762026384,0.0,0.0,0.0,2.749262276202638,0.0,0.0,0.0,0.0,0.0,0.0,0.0,0.0,0.0,0.0,0.0,0.0,0.0,0.0,
1.0526,2.7498123317406344,2.7498123317406344,2.7498123317406344,0.0,0.0,0.0,2.749812331740634,0.0,0.0,0.0,0.0,0.0,0.0,0.0,0.0,0.0,0.0,0.0,0.0,0.0,0.0,
1.0661,2.750370083943677,2.750370083943677,2.750370083943677,0.0,0.0,0.0,2.750370083943677,0.0,0.0,0.0,0.0,0.0,0.0,0.0,0.0,0.0,0.0,0.0,0.0,0.0,0.0,
1.0796,2.750935557058237,2.750935557058237,2.750935557058237,0.0,0.0,0.0,2.7509355570582366,0.0,0.0,0.0,0.0,0.0,0.0,0.0,0.0,0.0,0.0,0.0,0.0,0.0,0.0,
1.0931,2.7515087757267445,2.7515087757267445,2.7515087757267445,0.0,0.0,0.0,2.7515087757267445,0.0,0.0,0.0,0.0,0.0,0.0,0.0,0.0,0.0,0.0,0.0,0.0,0.0,0.0,
1.1066,2.7520897649913794,2.7520897649913794,2.7520897649913794,0.0,0.0,0.0,2.75208976499138,0.0,0.0,0.0,0.0,0.0,0.0,0.0,0.0,0.0,0.0,0.0,0.0,0.0,0.0,
1.1201,2.7526785502977393,2.7526785502977393,2.7526785502977393,0.0,0.0,0.0,2.7526785502977393,0.0,0.0,0.0,0.0,0.0,0.0,0.0,0.0,0.0,0.0,0.0,0.0,0.0,0.0,
1.1336,2.753275157498812,2.753275157498812,2.753275157498812,0.0,0.0,0.0,2.753275157498812,0.0,0.0,0.0,0.0,0.0,0.0,0.0,0.0,0.0,0.0,0.0,0.0,0.0,0.0,
1.1471,2.753879612858908,2.753879612858908,2.753879612858908,0.0,0.0,0.0,2.753879612858908,0.0,0.0,0.0,0.0,0.0,0.0,0.0,0.0,0.0,0.0,0.0,0.0,0.0,0.0,
1.1606,2.754491943057595,2.754491943057595,2.754491943057595,0.0,0.0,0.0,2.754491943057595,0.0,0.0,0.0,0.0,0.0,0.0,0.0,0.0,0.0,0.0,0.0,0.0,0.0,0.0,
1.1741,2.7551121751938625,2.7551121751938625,2.7551121751938625,0.0,0.0,0.0,2.755112175193863,0.0,0.0,0.0,0.0,0.0,0.0,0.0,0.0,0.0,0.0,0.0,0.0,0.0,0.0,
1.1876,2.755740336790301,2.755740336790301,2.755740336790301,0.0,0.0,0.0,2.7557403367903013,0.0,0.0,0.0,0.0,0.0,0.0,0.0,0.0,0.0,0.0,0.0,0.0,0.0,0.0,
1.2011,2.756376455797351,2.756376455797351,2.756376455797351,0.0,0.0,0.0,2.756376455797351,0.0,0.0,0.0,0.0,0.0,0.0,0.0,0.0,0.0,0.0,0.0,0.0,0.0,0.0,
1.2146,2.7570205605976295,2.7570205605976295,2.7570205605976295,0.0,0.0,0.0,2.7570205605976295,0.0,0.0,0.0,0.0,0.0,0.0,0.0,0.0,0.0,0.0,0.0,0.0,0.0,0.0,
1.2281,2.7576726800104128,2.7576726800104128,2.7576726800104128,0.0,0.0,0.0,2.757672680010413,0.0,0.0,0.0,0.0,0.0,0.0,0.0,0.0,0.0,0.0,0.0,0.0,0.0,0.0,
1.2416,2.75833284329609,2.75833284329609,2.75833284329609,0.0,0.0,0.0,2.75833284329609,0.0,0.0,0.0,0.0,0.0,0.0,0.0,0.0,0.0,0.0,0.0,0.0,0.0,0.0,
1.2551,2.7590010801608305,2.7590010801608305,2.7590010801608305,0.0,0.0,0.0,2.7590010801608305,0.0,0.0,0.0,0.0,0.0,0.0,0.0,0.0,0.0,0.0,0.0,0.0,0.0,0.0,
1.2686,2.7596774207612516,2.7596774207612516,2.7596774207612516,0.0,0.0,0.0,2.7596774207612516,0.0,0.0,0.0,0.0,0.0,0.0,0.0,0.0,0.0,0.0,0.0,0.0,0.0,0.0,
1.2821,2.760361895709232,2.760361895709232,2.760361895709232,0.0,0.0,0.0,2.760361895709232,0.0,0.0,0.0,0.0,0.0,0.0,0.0,0.0,0.0,0.0,0.0,0.0,0.0,0.0,
1.2956,2.7610545360767826,2.7610545360767826,2.7610545360767826,0.0,0.0,0.0,2.7610545360767826,0.0,0.0,0.0,0.0,0.0,0.0,0.0,0.0,0.0,0.0,0.0,0.0,0.0,0.0,
1.3091,2.7617553734009954,2.7617553734009954,2.7617553734009954,0.0,0.0,0.0,2.761755373400996,0.0,0.0,0.0,0.0,0.0,0.0,0.0,0.0,0.0,0.0,0.0,0.0,0.0,0.0,
1.3226,2.762464439689213,2.762464439689213,2.762464439689213,0.0,0.0,0.0,2.762464439689213,0.0,0.0,0.0,0.0,0.0,0.0,0.0,0.0,0.0,0.0,0.0,0.0,0.0,0.0,
1.336,2.763176423433835,2.763176423433835,2.763176423433835,0.0,0.0,0.0,2.763176423433835,0.0,0.0,0.0,0.0,0.0,0.0,0.0,0.0,0.0,0.0,0.0,0.0,0.0,0.0,
1.3495,2.7639019840162886,2.7639019840162886,2.7639019840162886,0.0,0.0,0.0,2.763901984016288,0.0,0.0,0.0,0.0,0.0,0.0,0.0,0.0,0.0,0.0,0.0,0.0,0.0,0.0,
1.363,2.7646358722085553,2.7646358722085553,2.7646358722085553,0.0,0.0,0.0,2.764635872208556,0.0,0.0,0.0,0.0,0.0,0.0,0.0,0.0,0.0,0.0,0.0,0.0,0.0,0.0,
1.3765,2.7653781219478697,2.7653781219478697,2.7653781219478697,0.0,0.0,0.0,2.76537812194787,0.0,0.0,0.0,0.0,0.0,0.0,0.0,0.0,0.0,0.0,0.0,0.0,0.0,0.0,
1.39,2.7661287676685293,2.7661287676685293,2.7661287676685293,0.0,0.0,0.0,2.7661287676685293,0.0,0.0,0.0,0.0,0.0,0.0,0.0,0.0,0.0,0.0,0.0,0.0,0.0,0.0,
1.4035,2.766887844307639,2.766887844307639,2.766887844307639,0.0,0.0,0.0,2.766887844307639,0.0,0.0,0.0,0.0,0.0,0.0,0.0,0.0,0.0,0.0,0.0,0.0,0.0,0.0,
1.417,2.767655387310876,2.767655387310876,2.767655387310876,0.0,0.0,0.0,2.767655387310876,0.0,0.0,0.0,0.0,0.0,0.0,0.0,0.0,0.0,0.0,0.0,0.0,0.0,0.0,
1.4305,2.768431432638432,2.768431432638432,2.768431432638432,0.0,0.0,0.0,2.768431432638432,0.0,0.0,0.0,0.0,0.0,0.0,0.0,0.0,0.0,0.0,0.0,0.0,0.0,0.0,
1.444,2.7692160167710944,2.7692160167710944,2.7692160167710944,0.0,0.0,0.0,2.7692160167710944,0.0,0.0,0.0,0.0,0.0,0.0,0.0,0.0,0.0,0.0,0.0,0.0,0.0,0.0,
1.4575,2.7700091767163824,2.7700091767163824,2.7700091767163824,0.0,0.0,0.0,2.7700091767163824,0.0,0.0,0.0,0.0,0.0,0.0,0.0,0.0,0.0,0.0,0.0,0.0,0.0,0.0,
1.471,2.7708109500147815,2.7708109500147815,2.7708109500147815,0.0,0.0,0.0,2.770810950014782,0.0,0.0,0.0,0.0,0.0,0.0,0.0,0.0,0.0,0.0,0.0,0.0,0.0,0.0,
1.4845,2.7716213747462684,2.7716213747462684,2.7716213747462684,0.0,0.0,0.0,2.771621374746269,0.0,0.0,0.0,0.0,0.0,0.0,0.0,0.0,0.0,0.0,0.0,0.0,0.0,0.0,
1.498,2.772440489536719,2.772440489536719,2.772440489536719,0.0,0.0,0.0,2.7724404895367187,0.0,0.0,0.0,0.0,0.0,0.0,0.0,0.0,0.0,0.0,0.0,0.0,0.0,0.0,
1.5115,2.7732683335646557,2.7732683335646557,2.7732683335646557,0.0,0.0,0.0,2.773268333564656,0.0,0.0,0.0,0.0,0.0,0.0,0.0,0.0,0.0,0.0,0.0,0.0,0.0,0.0,
1.525,2.7741049465679977,2.7741049465679977,2.7741049465679977,0.0,0.0,0.0,2.774104946567997,0.0,0.0,0.0,0.0,0.0,0.0,0.0,0.0,0.0,0.0,0.0,0.0,0.0,0.0,
1.5385,2.7749503688509884,2.7749503688509884,2.7749503688509884,0.0,0.0,0.0,2.774950368850989,0.0,0.0,0.0,0.0,0.0,0.0,0.0,0.0,0.0,0.0,0.0,0.0,0.0,0.0,
1.552,2.7758046412912694,2.7758046412912694,2.7758046412912694,0.0,0.0,0.0,2.7758046412912694,0.0,0.0,0.0,0.0,0.0,0.0,0.0,0.0,0.0,0.0,0.0,0.0,0.0,0.0,
1.5655,2.776667805347058,2.776667805347058,2.776667805347058,0.0,0.0,0.0,2.776667805347058,0.0,0.0,0.0,0.0,0.0,0.0,0.0,0.0,0.0,0.0,0.0,0.0,0.0,0.0,
1.579,2.777539903064539,2.777539903064539,2.777539903064539,0.0,0.0,0.0,2.777539903064539,0.0,0.0,0.0,0.0,0.0,0.0,0.0,0.0,0.0,0.0,0.0,0.0,0.0,0.0,
1.5925,2.7784209770852852,2.7784209770852852,2.7784209770852852,0.0,0.0,0.0,2.778420977085285,0.0,0.0,0.0,0.0,0.0,0.0,0.0,0.0,0.0,0.0,0.0,0.0,0.0,0.0,
1.606,2.7793110706539403,2.7793110706539403,2.7793110706539403,0.0,0.0,0.0,2.779311070653941,0.0,0.0,0.0,0.0,0.0,0.0,0.0,0.0,0.0,0.0,0.0,0.0,0.0,0.0,
1.6195,2.780210227625983,2.780210227625983,2.780210227625983,0.0,0.0,0.0,2.780210227625983,0.0,0.0,0.0,0.0,0.0,0.0,0.0,0.0,0.0,0.0,0.0,0.0,0.0,0.0,
1.6329,2.7811117309951476,2.7811117309951476,2.7811117309951476,0.0,0.0,0.0,2.7811117309951476,0.0,0.0,0.0,0.0,0.0,0.0,0.0,0.0,0.0,0.0,0.0,0.0,0.0,0.0,
1.6464,2.7820290808564465,2.7820290808564465,2.7820290808564465,0.0,0.0,0.0,2.7820290808564465,0.0,0.0,0.0,0.0,0.0,0.0,0.0,0.0,0.0,0.0,0.0,0.0,0.0,0.0,
1.6599,2.782955629091671,2.782955629091671,2.782955629091671,0.0,0.0,0.0,2.782955629091671,0.0,0.0,0.0,0.0,0.0,0.0,0.0,0.0,0.0,0.0,0.0,0.0,0.0,0.0,
1.6734,2.783891422075879,2.783891422075879,2.783891422075879,0.0,0.0,0.0,2.783891422075879,0.0,0.0,0.0,0.0,0.0,0.0,0.0,0.0,0.0,0.0,0.0,0.0,0.0,0.0,
1.6869,2.784836506836208,2.784836506836208,2.784836506836208,0.0,0.0,0.0,2.7848365068362084,0.0,0.0,0.0,0.0,0.0,0.0,0.0,0.0,0.0,0.0,0.0,0.0,0.0,0.0,
1.7004,2.785790931060662,2.785790931060662,2.785790931060662,0.0,0.0,0.0,2.785790931060662,0.0,0.0,0.0,0.0,0.0,0.0,0.0,0.0,0.0,0.0,0.0,0.0,0.0,0.0,
1.7139,2.7867547431070276,2.7867547431070276,2.7867547431070276,0.0,0.0,0.0,2.786754743107027,0.0,0.0,0.0,0.0,0.0,0.0,0.0,0.0,0.0,0.0,0.0,0.0,0.0,0.0,
1.7274,2.7877279920120106,2.7877279920120106,2.7877279920120106,0.0,0.0,0.0,2.7877279920120106,0.0,0.0,0.0,0.0,0.0,0.0,0.0,0.0,0.0,0.0,0.0,0.0,0.0,0.0,
1.7409,2.7887107275005247,2.7887107275005247,2.7887107275005247,0.0,0.0,0.0,2.7887107275005243,0.0,0.0,0.0,0.0,0.0,0.0,0.0,0.0,0.0,0.0,0.0,0.0,0.0,0.0,
1.7544,2.789702999995205,2.789702999995205,2.789702999995205,0.0,0.0,0.0,2.789702999995205,0.0,0.0,0.0,0.0,0.0,0.0,0.0,0.0,0.0,0.0,0.0,0.0,0.0,0.0,
