energies(eV),real_xx,real_yy,real_zz,real_xy,real_yz,real_xz,real_ave,imag_xx,imag_yy,imag_zz,imag_xy,imag_yz,imag_xz,imag_ave,absorption_xx,absorption_yy,absorption_zz,absorption_xy,absorption_yz,absorption_xz,absorption_ave,band_gap
0.0,2.4442035010784355,2.4442035010784355,2.483271641936338,0.0,0.0,0.0,2.4572262146977364,0.0,0.0,0.0,0.0,0.0,0.0,0.0,0.0,0.0,0.0,0.0,0.0,0.0,0.0,4.0057
0.0141,2.4442065989775354,2.4442065989775354,2.483274833957579,0.0,0.0,0.0,2.457229343970883,0.0,0.0,0.0,0.0,0.0,0.0,0.0,0.0,0.0,0.0,0.0,0.0,0.0,0.0,
0.0283,2.444215980869961,2.444215980869961,2.4832845008935394,0.0,0.0,0.0,2.4572388208778206,0.0,0.0,0.0,0.0,0.0,0.0,0.0,0.0,0.0,0.0,0.0,0.0,0.0,0.0,
0.0424,2.4442315150795,2.4442315150795,2.4833005070599867,0.0,0.0,0.0,2.457254512406329,0.0,0.0,0.0,0.0,0.0,0.0,0.0,0.0,0.0,0.0,0.0,0.0,0.0,0.0,
0.0566,2.4442534227291737,2.4442534227291737,2.4833230802856967,0.0,0.0,0.0,2.457276641914681,0.0,0.0,0.0,0.0,0.0,0.0,0.0,0.0,0.0,0.0,0.0,0.0,0.0,0.0,
0.0707,2.4442813963422236,2.4442813963422236,2.4833519037351706,0.0,0.0,0.0,2.457304898806539,0.0,0.0,0.0,0.0,0.0,0.0,0.0,0.0,0.0,0.0,0.0,0.0,0.0,0.0,
0.0848,2.4443155696039414,2.4443155696039414,2.4833871151332674,0.0,0.0,0.0,2.4573394181137167,0.0,0.0,0.0,0.0,0.0,0.0,0.0,0.0,0.0,0.0,0.0,0.0,0.0,0.0,
0.099,2.4443562527000524,2.4443562527000524,2.4834290340610057,0.0,0.0,0.0,2.4573805131537036,0.0,0.0,0.0,0.0,0.0,0.0,0.0,0.0,0.0,0.0,0.0,0.0,0.0,0.0,
0.1131,2.4444028746392137,2.4444028746392137,2.483477072149994,0.0,0.0,0.0,2.457427607142807,0.0,0.0,0.0,0.0,0.0,0.0,0.0,0.0,0.0,0.0,0.0,0.0,0.0,0.0,
0.1272,2.4444557022361755,2.4444557022361755,2.4835315042834143,0.0,0.0,0.0,2.457480969585255,0.0,0.0,0.0,0.0,0.0,0.0,0.0,0.0,0.0,0.0,0.0,0.0,0.0,0.0,
0.1414,2.4445151789779898,2.4445151789779898,2.4835927873750197,0.0,0.0,0.0,2.4575410484436664,0.0,0.0,0.0,0.0,0.0,0.0,0.0,0.0,0.0,0.0,0.0,0.0,0.0,0.0,
0.1555,2.4445804701057385,2.4445804701057385,2.4836600612666784,0.0,0.0,0.0,2.4576070004927186,0.0,0.0,0.0,0.0,0.0,0.0,0.0,0.0,0.0,0.0,0.0,0.0,0.0,0.0,
0.1697,2.4446525050191683,2.4446525050191683,2.4837342835296354,0.0,0.0,0.0,2.4576797645226574,0.0,0.0,0.0,0.0,0.0,0.0,0.0,0.0,0.0,0.0,0.0,0.0,0.0,0.0,
0.1838,2.4447302727081732,2.4447302727081732,2.4838144123972166,0.0,0.0,0.0,2.457758319271188,0.0,0.0,0.0,0.0,0.0,0.0,0.0,0.0,0.0,0.0,0.0,0.0,0.0,0.0,
0.1979,2.4448142622762665,2.4448142622762665,2.483900951763526,0.0,0.0,0.0,2.4578431587720195,0.0,0.0,0.0,0.0,0.0,0.0,0.0,0.0,0.0,0.0,0.0,0.0,0.0,0.0,
0.2121,2.4449051399632618,2.4449051399632618,2.4839945880237932,0.0,0.0,0.0,2.457934955983439,0.0,0.0,0.0,0.0,0.0,0.0,0.0,0.0,0.0,0.0,0.0,0.0,0.0,0.0,
0.2262,2.4450016303085436,2.4450016303085436,2.4840940069286015,0.0,0.0,0.0,2.4580324225152297,0.0,0.0,0.0,0.0,0.0,0.0,0.0,0.0,0.0,0.0,0.0,0.0,0.0,0.0,
0.2403,2.4451043560064027,2.4451043560064027,2.4841998499980207,0.0,0.0,0.0,2.458136187336942,0.0,0.0,0.0,0.0,0.0,0.0,0.0,0.0,0.0,0.0,0.0,0.0,0.0,0.0,
0.2545,2.445214117272859,2.445214117272859,2.4843129416440686,0.0,0.0,0.0,2.458247058729929,0.0,0.0,0.0,0.0,0.0,0.0,0.0,0.0,0.0,0.0,0.0,0.0,0.0,0.0,
0.2686,2.445329373629506,2.445329373629506,2.484431694559053,0.0,0.0,0.0,2.4583634806060215,0.0,0.0,0.0,0.0,0.0,0.0,0.0,0.0,0.0,0.0,0.0,0.0,0.0,0.0,
0.2828,2.4454517657462915,2.4454517657462915,2.484557799091996,0.0,0.0,0.0,2.4584871101948598,0.0,0.0,0.0,0.0,0.0,0.0,0.0,0.0,0.0,0.0,0.0,0.0,0.0,0.0,
0.2969,2.4455795758833054,2.4455795758833054,2.484689485301547,0.0,0.0,0.0,2.4586162123560524,0.0,0.0,0.0,0.0,0.0,0.0,0.0,0.0,0.0,0.0,0.0,0.0,0.0,0.0,
0.311,2.445713650156394,2.445713650156394,2.484827624866709,0.0,0.0,0.0,2.458751641726499,0.0,0.0,0.0,0.0,0.0,0.0,0.0,0.0,0.0,0.0,0.0,0.0,0.0,0.0,
0.3252,2.445855013026478,2.445855013026478,2.484973273193354,0.0,0.0,0.0,2.458894433082103,0.0,0.0,0.0,0.0,0.0,0.0,0.0,0.0,0.0,0.0,0.0,0.0,0.0,0.0,
0.3393,2.446001680524196,2.446001680524196,2.4851243860524757,0.0,0.0,0.0,2.459042582366956,0.0,0.0,0.0,0.0,0.0,0.0,0.0,0.0,0.0,0.0,0.0,0.0,0.0,0.0,
0.3534,2.4461546332554045,2.4461546332554045,2.4852819736603,0.0,0.0,0.0,2.459197080057036,0.0,0.0,0.0,0.0,0.0,0.0,0.0,0.0,0.0,0.0,0.0,0.0,0.0,0.0,
0.3676,2.4463150307745907,2.4463150307745907,2.4854472305718374,0.0,0.0,0.0,2.4593590973736728,0.0,0.0,0.0,0.0,0.0,0.0,0.0,0.0,0.0,0.0,0.0,0.0,0.0,0.0,
0.3817,2.4464806219948314,2.4464806219948314,2.485617837369564,0.0,0.0,0.0,2.4595263604530757,0.0,0.0,0.0,0.0,0.0,0.0,0.0,0.0,0.0,0.0,0.0,0.0,0.0,0.0,
0.3959,2.446653764168636,2.446653764168636,2.4857962225657673,0.0,0.0,0.0,2.459701250301013,0.0,0.0,0.0,0.0,0.0,0.0,0.0,0.0,0.0,0.0,0.0,0.0,0.0,0.0,
0.41,2.4468320273658186,2.4468320273658186,2.485979882504765,0.0,0.0,0.0,2.459881312412134,0.0,0.0,0.0,0.0,0.0,0.0,0.0,0.0,0.0,0.0,0.0,0.0,0.0,0.0,
0.4241,2.447016617484853,2.447016617484853,2.4861700594576317,0.0,0.0,0.0,2.4600677648091125,0.0,0.0,0.0,0.0,0.0,0.0,0.0,0.0,0.0,0.0,0.0,0.0,0.0,0.0,
0.4383,2.4472089205655636,2.4472089205655636,2.4863681812431677,0.0,0.0,0.0,2.4602620074580983,0.0,0.0,0.0,0.0,0.0,0.0,0.0,0.0,0.0,0.0,0.0,0.0,0.0,0.0,
0.4524,2.447406237805515,2.447406237805515,2.486571467237513,0.0,0.0,0.0,2.4604613142828478,0.0,0.0,0.0,0.0,0.0,0.0,0.0,0.0,0.0,0.0,0.0,0.0,0.0,0.0,
0.4665,2.447609910941393,2.447609910941393,2.4867812996148393,0.0,0.0,0.0,2.4606670404992084,0.0,0.0,0.0,0.0,0.0,0.0,0.0,0.0,0.0,0.0,0.0,0.0,0.0,0.0,
0.4807,2.4478214626802286,2.4478214626802286,2.4869992469371547,0.0,0.0,0.0,2.4608807240992037,0.0,0.0,0.0,0.0,0.0,0.0,0.0,0.0,0.0,0.0,0.0,0.0,0.0,0.0,
0.4948,2.448037924127956,2.448037924127956,2.4872222503759085,0.0,0.0,0.0,2.461099366210607,0.0,0.0,0.0,0.0,0.0,0.0,0.0,0.0,0.0,0.0,0.0,0.0,0.0,0.0,
0.509,2.4482623768154284,2.4482623768154284,2.487453484405626,0.0,0.0,0.0,2.4613260793454943,0.0,0.0,0.0,0.0,0.0,0.0,0.0,0.0,0.0,0.0,0.0,0.0,0.0,0.0,
0.5231,2.448491670833494,2.448491670833494,2.487689703757279,0.0,0.0,0.0,2.4615576818080886,0.0,0.0,0.0,0.0,0.0,0.0,0.0,0.0,0.0,0.0,0.0,0.0,0.0,0.0,
0.5372,2.448727375844088,2.448727375844088,2.4879325253264266,0.0,0.0,0.0,2.461795759004868,0.0,0.0,0.0,0.0,0.0,0.0,0.0,0.0,0.0,0.0,0.0,0.0,0.0,0.0,
0.5514,2.448971244055901,2.448971244055901,2.488183753993747,0.0,0.0,0.0,2.4620420807018495,0.0,0.0,0.0,0.0,0.0,0.0,0.0,0.0,0.0,0.0,0.0,0.0,0.0,0.0,
0.5655,2.4492198531497764,2.4492198531497764,2.4884398639350955,0.0,0.0,0.0,2.462293190078216,0.0,0.0,0.0,0.0,0.0,0.0,0.0,0.0,0.0,0.0,0.0,0.0,0.0,0.0,
0.5796,2.4494749104397853,2.4494749104397853,2.4887026137860335,0.0,0.0,0.0,2.4625508115552015,0.0,0.0,0.0,0.0,0.0,0.0,0.0,0.0,0.0,0.0,0.0,0.0,0.0,0.0,
0.5938,2.449738306851403,2.449738306851403,2.488973951245603,0.0,0.0,0.0,2.462816854982803,0.0,0.0,0.0,0.0,0.0,0.0,0.0,0.0,0.0,0.0,0.0,0.0,0.0,0.0,
0.6079,2.4500063460901567,2.4500063460901567,2.4892500683480527,0.0,0.0,0.0,2.463087586842789,0.0,0.0,0.0,0.0,0.0,0.0,0.0,0.0,0.0,0.0,0.0,0.0,0.0,0.0,
0.6221,2.4502828441387665,2.4502828441387665,2.4895348958354804,0.0,0.0,0.0,2.4633668613710045,0.0,0.0,0.0,0.0,0.0,0.0,0.0,0.0,0.0,0.0,0.0,0.0,0.0,0.0,
0.6362,2.4505639208998113,2.4505639208998113,2.4898244364760274,0.0,0.0,0.0,2.463650759425217,0.0,0.0,0.0,0.0,0.0,0.0,0.0,0.0,0.0,0.0,0.0,0.0,0.0,0.0,
0.6503,2.4508515150397034,2.4508515150397034,2.4901206870962707,0.0,0.0,0.0,2.4639412390585593,0.0,0.0,0.0,0.0,0.0,0.0,0.0,0.0,0.0,0.0,0.0,0.0,0.0,0.0,
0.6645,2.451147750816167,2.451147750816167,2.4904258355910245,0.0,0.0,0.0,2.4642404457411193,0.0,0.0,0.0,0.0,0.0,0.0,0.0,0.0,0.0,0.0,0.0,0.0,0.0,0.0,
0.6786,2.4514484712462283,2.4514484712462283,2.4907355996380054,0.0,0.0,0.0,2.464544180710154,0.0,0.0,0.0,0.0,0.0,0.0,0.0,0.0,0.0,0.0,0.0,0.0,0.0,0.0,
0.6928,2.451757957745415,2.451757957745415,2.4910543891280446,0.0,0.0,0.0,2.4648567682062916,0.0,0.0,0.0,0.0,0.0,0.0,0.0,0.0,0.0,0.0,0.0,0.0,0.0,0.0,
0.7069,2.452071867457346,2.452071867457346,2.491377730375198,0.0,0.0,0.0,2.465173821763297,0.0,0.0,0.0,0.0,0.0,0.0,0.0,0.0,0.0,0.0,0.0,0.0,0.0,0.0,
0.721,2.4523923729658303,2.4523923729658303,2.4917078609925296,0.0,0.0,0.0,2.4654975356413966,0.0,0.0,0.0,0.0,0.0,0.0,0.0,0.0,0.0,0.0,0.0,0.0,0.0,0.0,
0.7352,2.452721834690352,2.452721834690352,2.4920472119330963,0.0,0.0,0.0,2.465830293771267,0.0,0.0,0.0,0.0,0.0,0.0,0.0,0.0,0.0,0.0,0.0,0.0,0.0,0.0,
0.7493,2.4530556295911556,2.4530556295911556,2.492391021080251,0.0,0.0,0.0,2.4661674267541875,0.0,0.0,0.0,0.0,0.0,0.0,0.0,0.0,0.0,0.0,0.0,0.0,0.0,0.0,
0.7634,2.45339607190768,2.45339607190768,2.492741671837968,0.0,0.0,0.0,2.4665112718844426,0.0,0.0,0.0,0.0,0.0,0.0,0.0,0.0,0.0,0.0,0.0,0.0,0.0,0.0,
0.7776,2.4537456651925647,2.4537456651925647,2.4931017424451936,0.0,0.0,0.0,2.4668643576101075,0.0,0.0,0.0,0.0,0.0,0.0,0.0,0.0,0.0,0.0,0.0,0.0,0.0,0.0,
0.7917,2.4540995040523175,2.4540995040523175,2.4934661801570717,0.0,0.0,0.0,2.4672217294205687,0.0,0.0,0.0,0.0,0.0,0.0,0.0,0.0,0.0,0.0,0.0,0.0,0.0,0.0,
0.8059,2.4544626265164116,2.4544626265164116,2.4938401735627362,0.0,0.0,0.0,2.467588475531853,0.0,0.0,0.0,0.0,0.0,0.0,0.0,0.0,0.0,0.0,0.0,0.0,0.0,0.0,
0.82,2.45482993745218,2.45482993745218,2.4942184746396423,0.0,0.0,0.0,2.4679594498480006,0.0,0.0,0.0,0.0,0.0,0.0,0.0,0.0,0.0,0.0,0.0,0.0,0.0,0.0,
0.8341,2.4552039898340614,2.4552039898340614,2.494603712450139,0.0,0.0,0.0,2.468337230706087,0.0,0.0,0.0,0.0,0.0,0.0,0.0,0.0,0.0,0.0,0.0,0.0,0.0,0.0,
0.8483,2.4555875286415736,2.4555875286415736,2.4949987136140934,0.0,0.0,0.0,2.46872459029908,0.0,0.0,0.0,0.0,0.0,0.0,0.0,0.0,0.0,0.0,0.0,0.0,0.0,0.0,
0.8624,2.455975172435714,2.455975172435714,2.4953979354802387,0.0,0.0,0.0,2.469116093450556,0.0,0.0,0.0,0.0,0.0,0.0,0.0,0.0,0.0,0.0,0.0,0.0,0.0,0.0,
0.8765,2.4563696190108266,2.4563696190108266,2.495804156100458,0.0,0.0,0.0,2.46951446470737,0.0,0.0,0.0,0.0,0.0,0.0,0.0,0.0,0.0,0.0,0.0,0.0,0.0,0.0,
0.8907,2.45677375992248,2.45677375992248,2.496220352859451,0.0,0.0,0.0,2.469922624234804,0.0,0.0,0.0,0.0,0.0,0.0,0.0,0.0,0.0,0.0,0.0,0.0,0.0,0.0,
0.9048,2.45718192484771,2.45718192484771,2.49664068586954,0.0,0.0,0.0,2.47033484518832,0.0,0.0,0.0,0.0,0.0,0.0,0.0,0.0,0.0,0.0,0.0,0.0,0.0,0.0,
0.919,2.4575999258115706,2.4575999258115706,2.497071139992854,0.0,0.0,0.0,2.470756997205332,0.0,0.0,0.0,0.0,0.0,0.0,0.0,0.0,0.0,0.0,0.0,0.0,0.0,0.0,
0.9331,2.4580218981608484,2.4580218981608484,2.4975056754193616,0.0,0.0,0.0,2.4711831572470193,0.0,0.0,0.0,0.0,0.0,0.0,0.0,0.0,0.0,0.0,0.0,0.0,0.0,0.0,
0.9472,2.4584507841794454,2.4584507841794454,2.497947321673596,0.0,0.0,0.0,2.4716162966774955,0.0,0.0,0.0,0.0,0.0,0.0,0.0,0.0,0.0,0.0,0.0,0.0,0.0,0.0,
0.9614,2.4588897230878475,2.4588897230878475,2.498399310821398,0.0,0.0,0.0,2.4720595856656975,0.0,0.0,0.0,0.0,0.0,0.0,0.0,0.0,0.0,0.0,0.0,0.0,0.0,0.0,
0.9755,2.459332556690226,2.459332556690226,2.49885530110536,0.0,0.0,0.0,2.4725068048286043,0.0,0.0,0.0,0.0,0.0,0.0,0.0,0.0,0.0,0.0,0.0,0.0,0.0,0.0,
0.9896,2.459782375839304,2.459782375839304,2.4993184748254804,0.0,0.0,0.0,2.4729610755013627,0.0,0.0,0.0,0.0,0.0,0.0,0.0,0.0,0.0,0.0,0.0,0.0,0.0,0.0,
1.0038,2.4602424703828962,2.4602424703828962,2.4997922189019697,0.0,0.0,0.0,2.473425719889254,0.0,0.0,0.0,0.0,0.0,0.0,0.0,0.0,0.0,0.0,0.0,0.0,0.0,0.0,
1.0179,2.460706385563806,2.460706385563806,2.5002698865788924,0.0,0.0,0.0,2.4738942192355013,0.0,0.0,0.0,0.0,0.0,0.0,0.0,0.0,0.0,0.0,0.0,0.0,0.0,0.0,
1.0321,2.461180727912378,2.461180727912378,2.5007582797089816,0.0,0.0,0.0,2.4743732451779126,0.0,0.0,0.0,0.0,0.0,0.0,0.0,0.0,0.0,0.0,0.0,0.0,0.0,0.0,
1.0462,2.461658842964109,2.461658842964109,2.5012505461792953,0.0,0.0,0.0,2.474856077369171,0.0,0.0,0.0,0.0,0.0,0.0,0.0,0.0,0.0,0.0,0.0,0.0,0.0,0.0,
1.0603,2.462144072832798,2.462144072832798,2.5017501265972397,0.0,0.0,0.0,2.4753460907542784,0.0,0.0,0.0,0.0,0.0,0.0,0.0,0.0,0.0,0.0,0.0,0.0,0.0,0.0,
1.0745,2.4626399623304023,2.4626399623304023,2.50226066992785,0.0,0.0,0.0,2.4758468648628846,0.0,0.0,0.0,0.0,0.0,0.0,0.0,0.0,0.0,0.0,0.0,0.0,0.0,0.0,
1.0886,2.463139555003566,2.463139555003566,2.502775013577005,0.0,0.0,0.0,2.4763513745280457,0.0,0.0,0.0,0.0,0.0,0.0,0.0,0.0,0.0,0.0,0.0,0.0,0.0,0.0,
1.1027,2.463646345921589,2.463646345921589,2.503296755352527,0.0,0.0,0.0,2.476863149065235,0.0,0.0,0.0,0.0,0.0,0.0,0.0,0.0,0.0,0.0,0.0,0.0,0.0,0.0,
1.1169,2.4641640352420864,2.4641640352420864,2.503829703830913,0.0,0.0,0.0,2.477385924771695,0.0,0.0,0.0,0.0,0.0,0.0,0.0,0.0,0.0,0.0,0.0,0.0,0.0,0.0,
1.131,2.4646853610214743,2.4646853610214743,2.504366382401818,0.0,0.0,0.0,2.4779123681482553,0.0,0.0,0.0,0.0,0.0,0.0,0.0,0.0,0.0,0.0,0.0,0.0,0.0,0.0,
1.1452,2.465217748221483,2.465217748221483,2.5049144340498777,0.0,0.0,0.0,2.478449976830948,0.0,0.0,0.0,0.0,0.0,0.0,0.0,0.0,0.0,0.0,0.0,0.0,0.0,0.0,
1.1593,2.4657537289544296,2.4657537289544296,2.5054661705111148,0.0,0.0,0.0,2.4789912094733246,0.0,0.0,0.0,0.0,0.0,0.0,0.0,0.0,0.0,0.0,0.0,0.0,0.0,0.0,
1.1734,2.466297057437539,2.466297057437539,2.5060254558513897,0.0,0.0,0.0,2.4795398569088225,0.0,0.0,0.0,0.0,0.0,0.0,0.0,0.0,0.0,0.0,0.0,0.0,0.0,0.0,
1.1876,2.4668516972605685,2.4668516972605685,2.5065963692238507,0.0,0.0,0.0,2.4800999212483292,0.0,0.0,0.0,0.0,0.0,0.0,0.0,0.0,0.0,0.0,0.0,0.0,0.0,0.0,
1.2017,2.467409868773455,2.467409868773455,2.5071709020198183,0.0,0.0,0.0,2.480663546522243,0.0,0.0,0.0,0.0,0.0,0.0,0.0,0.0,0.0,0.0,0.0,0.0,0.0,0.0,
1.2159,2.46797952235858,2.46797952235858,2.5077572369436236,0.0,0.0,0.0,2.4812387605535946,0.0,0.0,0.0,0.0,0.0,0.0,0.0,0.0,0.0,0.0,0.0,0.0,0.0,0.0,
1.23,2.4685526680473293,2.4685526680473293,2.508347149321084,0.0,0.0,0.0,2.4818174951385807,0.0,0.0,0.0,0.0,0.0,0.0,0.0,0.0,0.0,0.0,0.0,0.0,0.0,0.0,
1.2441,2.469133324753702,2.469133324753702,2.5089447750635734,0.0,0.0,0.0,2.4824038081903255,0.0,0.0,0.0,0.0,0.0,0.0,0.0,0.0,0.0,0.0,0.0,0.0,0.0,0.0,
1.2583,2.4697257254440217,2.4697257254440217,2.509554469882926,0.0,0.0,0.0,2.4830019735903233,0.0,0.0,0.0,0.0,0.0,0.0,0.0,0.0,0.0,0.0,0.0,0.0,0.0,0.0,
1.2724,2.470321561541564,2.470321561541564,2.510167681858762,0.0,0.0,0.0,2.4836036016472964,0.0,0.0,0.0,0.0,0.0,0.0,0.0,0.0,0.0,0.0,0.0,0.0,0.0,0.0,
1.2865,2.4709250135782455,2.4709250135782455,2.5107887128253017,0.0,0.0,0.0,2.4842129133272643,0.0,0.0,0.0,0.0,0.0,0.0,0.0,0.0,0.0,0.0,0.0,0.0,0.0,0.0,
1.3007,2.4715404791464652,2.4715404791464652,2.5114220874444295,0.0,0.0,0.0,2.48483434857912,0.0,0.0,0.0,0.0,0.0,0.0,0.0,0.0,0.0,0.0,0.0,0.0,0.0,0.0,
1.3148,2.4721593266640784,2.4721593266640784,2.512058922119694,0.0,0.0,0.0,2.4854591918159503,0.0,0.0,0.0,0.0,0.0,0.0,0.0,0.0,0.0,0.0,0.0,0.0,0.0,0.0,
1.329,2.4727903720494213,2.4727903720494213,2.5127082881304075,0.0,0.0,0.0,2.4860963440764166,0.0,0.0,0.0,0.0,0.0,0.0,0.0,0.0,0.0,0.0,0.0,0.0,0.0,0.0,
1.3431,2.4734247655689687,2.4734247655689687,2.513361077923713,0.0,0.0,0.0,2.486736869687217,0.0,0.0,0.0,0.0,0.0,0.0,0.0,0.0,0.0,0.0,0.0,0.0,0.0,0.0,
1.3572,2.4740669624174405,2.4740669624174405,2.514021875201912,0.0,0.0,0.0,2.487385266678931,0.0,0.0,0.0,0.0,0.0,0.0,0.0,0.0,0.0,0.0,0.0,0.0,0.0,0.0,
1.3714,2.4747216402238594,2.4747216402238594,2.514695491898526,0.0,0.0,0.0,2.4880462574487483,0.0,0.0,0.0,0.0,0.0,0.0,0.0,0.0,0.0,0.0,0.0,0.0,0.0,0.0,
1.3855,2.4753796183998484,2.4753796183998484,2.51537248088297,0.0,0.0,0.0,2.488710572560889,0.0,0.0,0.0,0.0,0.0,0.0,0.0,0.0,0.0,0.0,0.0,0.0,0.0,0.0,
1.3996,2.4760455201662337,2.4760455201662337,2.5160575982194153,0.0,0.0,0.0,2.489382879517294,0.0,0.0,0.0,0.0,0.0,0.0,0.0,0.0,0.0,0.0,0.0,0.0,0.0,0.0,
1.4138,2.476724194627891,2.476724194627891,2.516755831669024,0.0,0.0,0.0,2.490068073641602,0.0,0.0,0.0,0.0,0.0,0.0,0.0,0.0,0.0,0.0,0.0,0.0,0.0,0.0,
1.4279,2.4774061253067545,2.4774061253067545,2.517457389459258,0.0,0.0,0.0,2.4907565466909225,0.0,0.0,0.0,0.0,0.0,0.0,0.0,0.0,0.0,0.0,0.0,0.0,0.0,0.0,
1.4421,2.4781010284233855,2.4781010284233855,2.5181722663883646,0.0,0.0,0.0,2.491458107745045,0.0,0.0,0.0,0.0,0.0,0.0,0.0,0.0,0.0,0.0,0.0,0.0,0.0,0.0,
1.4562,2.4787991603795794,2.4787991603795794,2.5188904377065384,0.0,0.0,0.0,2.4921629194885657,0.0,0.0,0.0,0.0,0.0,0.0,0.0,0.0,0.0,0.0,0.0,0.0,0.0,0.0,
1.4703,2.47950543051285,2.47950543051285,2.5196169528444994,0.0,0.0,0.0,2.492875937956733,0.0,0.0,0.0,0.0,0.0,0.0,0.0,0.0,0.0,0.0,0.0,0.0,0.0,0.0,
1.4845,2.480224980202027,2.480224980202027,2.520357099109953,0.0,0.0,0.0,2.4936023531713354,0.0,0.0,0.0,0.0,0.0,0.0,0.0,0.0,0.0,0.0,0.0,0.0,0.0,0.0,
1.4986,2.4809477209807707,2.4809477209807707,2.5211004980882983,0.0,0.0,0.0,2.494331980016613,0.0,0.0,0.0,0.0,0.0,0.0,0.0,0.0,0.0,0.0,0.0,0.0,0.0,0.0,
1.5127,2.4816787375703857,2.4816787375703857,2.5218523789512393,0.0,0.0,0.0,2.4950699513640036,0.0,0.0,0.0,0.0,0.0,0.0,0.0,0.0,0.0,0.0,0.0,0.0,0.0,0.0,
1.5269,2.4824233506839253,2.4824233506839253,2.5226182127085144,0.0,0.0,0.0,2.495821638025455,0.0,0.0,0.0,0.0,0.0,0.0,0.0,0.0,0.0,0.0,0.0,0.0,0.0,0.0,
1.541,2.483171121231903,2.483171121231903,2.523387261502508,0.0,0.0,0.0,2.496576501322105,0.0,0.0,0.0,0.0,0.0,0.0,0.0,0.0,0.0,0.0,0.0,0.0,0.0,0.0,
1.5552,2.483932705596725,2.483932705596725,2.524170483638585,0.0,0.0,0.0,2.4973452982773447,0.0,0.0,0.0,0.0,0.0,0.0,0.0,0.0,0.0,0.0,0.0,0.0,0.0,0.0,
1.5693,2.484697427316739,2.484697427316739,2.5249568979887744,0.0,0.0,0.0,2.4981172508740843,0.0,0.0,0.0,0.0,0.0,0.0,0.0,0.0,0.0,0.0,0.0,0.0,0.0,0.0,
1.5834,2.485470670373382,2.485470670373382,2.525752040259133,0.0,0.0,0.0,2.4988977936686325,0.0,0.0,0.0,0.0,0.0,0.0,0.0,0.0,0.0,0.0,0.0,0.0,0.0,0.0,
1.5976,2.4862580617894934,2.4862580617894934,2.526561695054761,0.0,0.0,0.0,2.4996926062112492,0.0,0.0,0.0,0.0,0.0,0.0,0.0,0.0,0.0,0.0,0.0,0.0,0.0,0.0,
1.6117,2.487048564221002,2.487048564221002,2.5273745115142576,0.0,0.0,0.0,2.5004905466520873,0.0,0.0,0.0,0.0,0.0,0.0,0.0,0.0,0.0,0.0,0.0,0.0,0.0,0.0,
1.6258,2.4878477454740606,2.4878477454740606,2.528196213531862,0.0,0.0,0.0,2.501297234826661,0.0,0.0,0.0,0.0,0.0,0.0,0.0,0.0,0.0,0.0,0.0,0.0,0.0,0.0,
1.64,2.488661420919636,2.488661420919636,2.529032778426379,0.0,0.0,0.0,2.5021185400885506,0.0,0.0,0.0,0.0,0.0,0.0,0.0,0.0,0.0,0.0,0.0,0.0,0.0,0.0,
1.6541,2.4894781857555968,2.4894781857555968,2.5298724790143163,0.0,0.0,0.0,2.50294295017517,0.0,0.0,0.0,0.0,0.0,0.0,0.0,0.0,0.0,0.0,0.0,0.0,0.0,0.0,
1.6683,2.490309682195698,2.490309682195698,2.530727282827363,0.0,0.0,0.0,2.5037822157395864,0.0,0.0,0.0,0.0,0.0,0.0,0.0,0.0,0.0,0.0,0.0,0.0,0.0,0.0,
1.6824,2.4911442563512445,2.4911442563512445,2.5315852076743655,0.0,0.0,0.0,2.5046245734589516,0.0,0.0,0.0,0.0,0.0,0.0,0.0,0.0,0.0,0.0,0.0,0.0,0.0,0.0,
1.6965,2.4919877903689986,2.4919877903689986,2.5324522990572698,0.0,0.0,0.0,2.5054759599317555,0.0,0.0,0.0,0.0,0.0,0.0,0.0,0.0,0.0,0.0,0.0,0.0,0.0,0.0,
1.7107,2.492846422036032,2.492846422036032,2.533334863972027,0.0,0.0,0.0,2.50634256934803,0.0,0.0,0.0,0.0,0.0,0.0,0.0,0.0,0.0,0.0,0.0,0.0,0.0,0.0,
1.7248,2.493708118280505,2.493708118280505,2.534220532170127,0.0,0.0,0.0,2.5072122562437125,0.0,0.0,0.0,0.0,0.0,0.0,0.0,0.0,0.0,0.0,0.0,0.0,0.0,0.0,
1.7389,2.494578954762775,2.494578954762775,2.535115547013744,0.0,0.0,0.0,2.5080911521797646,0.0,0.0,0.0,0.0,0.0,0.0,0.0,0.0,0.0,0.0,0.0,0.0,0.0,0.0,
1.7531,2.4954652679686458,2.4954652679686458,2.536026418533579,0.0,0.0,0.0,2.50898565149029,0.0,0.0,0.0,0.0,0.0,0.0,0.0,0.0,0.0,0.0,0.0,0.0,0.0,0.0,
1.7672,2.496354638124255,2.496354638124255,2.536940380907338,0.0,0.0,0.0,2.5098832190519493,0.0,0.0,0.0,0.0,0.0,0.0,0.0,0.0,0.0,0.0,0.0,0.0,0.0,0.0,
1.7814,2.497259745633992,2.497259745633992,2.537870463181882,0.0,0.0,0.0,2.5107966514832887,0.0,0.0,0.0,0.0,0.0,0.0,0.0,0.0,0.0,0.0,0.0,0.0,0.0,0.0,
1.7955,2.498167908242189,2.498167908242189,2.538803631136644,0.0,0.0,0.0,2.5117131492070075,0.0,0.0,0.0,0.0,0.0,0.0,0.0,0.0,0.0,0.0,0.0,0.0,0.0,0.0,
1.8096,2.4990855332726922,2.4990855332726922,2.539746467010442,0.0,0.0,0.0,2.512639177851942,0.0,0.0,0.0,0.0,0.0,0.0,0.0,0.0,0.0,0.0,0.0,0.0,0.0,0.0,
1.8238,2.500019298140719,2.500019298140719,2.540705828944742,0.0,0.0,0.0,2.5135814750753935,0.0,0.0,0.0,0.0,0.0,0.0,0.0,0.0,0.0,0.0,0.0,0.0,0.0,0.0,
1.8379,2.5009561204711486,2.5009561204711486,2.541668273748977,0.0,0.0,0.0,2.5145268382304247,0.0,0.0,0.0,0.0,0.0,0.0,0.0,0.0,0.0,0.0,0.0,0.0,0.0,0.0,
