energies(eV),real_xx,real_yy,real_zz,real_xy,real_yz,real_xz,real_ave,imag_xx,imag_yy,imag_zz,imag_xy,imag_yz,imag_xz,imag_ave,absorption_xx,absorption_yy,absorption_zz,absorption_xy,absorption_yz,absorption_xz,absorption_ave,band_gap
0.0,3.038102316711375,3.038102316711375,2.9356000690394524,0.0,0.0,0.0,3.0039349008207346,0.0,0.0,0.0,0.0,0.0,0.0,0.0,0.0,0.0,0.0,0.0,0.0,0.0,0.0,6.0142
0.0149,3.0381061366963493,3.0381061366963493,2.9356033519284157,0.0,0.0,0.0,3.003938541773705,0.0,0.0,0.0,0.0,0.0,0.0,0.0,0.0,0.0,0.0,0.0,0.0,0.0,0.0,
0.0298,3.0381175967705696,3.0381175967705696,2.9356132006914883,0.0,0.0,0.0,3.0039494647442093,0.0,0.0,0.0,0.0,0.0,0.0,0.0,0.0,0.0,0.0,0.0,0.0,0.0,0.0,
0.0447,3.038136697292051,3.038136697292051,2.935629615617162,0.0,0.0,0.0,3.003967670067088,0.0,0.0,0.0,0.0,0.0,0.0,0.0,0.0,0.0,0.0,0.0,0.0,0.0,0.0,
0.0597,3.038163644145976,3.038163644145976,2.935652773610048,0.0,0.0,0.0,3.0039933539673336,0.0,0.0,0.0,0.0,0.0,0.0,0.0,0.0,0.0,0.0,0.0,0.0,0.0,0.0,
0.0746,3.0381980788818894,3.0381980788818894,2.935682366574622,0.0,0.0,0.0,3.004026174779467,0.0,0.0,0.0,0.0,0.0,0.0,0.0,0.0,0.0,0.0,0.0,0.0,0.0,0.0,
0.0895,3.038240156579431,3.038240156579431,2.9357185277281737,0.0,0.0,0.0,3.004066280295678,0.0,0.0,0.0,0.0,0.0,0.0,0.0,0.0,0.0,0.0,0.0,0.0,0.0,0.0,
0.1044,3.038289878553404,3.038289878553404,2.9357612581302996,0.0,0.0,0.0,3.004113671745703,0.0,0.0,0.0,0.0,0.0,0.0,0.0,0.0,0.0,0.0,0.0,0.0,0.0,0.0,
0.1193,3.038347246357626,3.038347246357626,2.935810559033221,0.0,0.0,0.0,3.0041683505828245,0.0,0.0,0.0,0.0,0.0,0.0,0.0,0.0,0.0,0.0,0.0,0.0,0.0,0.0,
0.1342,3.0384122617851093,3.0384122617851093,2.9358664318819487,0.0,0.0,0.0,3.004230318484056,0.0,0.0,0.0,0.0,0.0,0.0,0.0,0.0,0.0,0.0,0.0,0.0,0.0,0.0,
0.1491,3.038484926868253,3.038484926868253,2.93592887831437,0.0,0.0,0.0,3.004299577350292,0.0,0.0,0.0,0.0,0.0,0.0,0.0,0.0,0.0,0.0,0.0,0.0,0.0,0.0,
0.164,3.0385652438789372,3.0385652438789372,2.9359979001613827,0.0,0.0,0.0,3.004376129306419,0.0,0.0,0.0,0.0,0.0,0.0,0.0,0.0,0.0,0.0,0.0,0.0,0.0,0.0,
0.179,3.038653831605767,3.038653831605767,2.9360740290498484,0.0,0.0,0.0,3.0044605640871276,0.0,0.0,0.0,0.0,0.0,0.0,0.0,0.0,0.0,0.0,0.0,0.0,0.0,0.0,
0.1939,3.0387495116468823,3.0387495116468823,2.936156252158487,0.0,0.0,0.0,3.0045517584840837,0.0,0.0,0.0,0.0,0.0,0.0,0.0,0.0,0.0,0.0,0.0,0.0,0.0,0.0,
0.2088,3.038852851891599,3.038852851891599,2.9362450573512664,0.0,0.0,0.0,3.0046502537114876,0.0,0.0,0.0,0.0,0.0,0.0,0.0,0.0,0.0,0.0,0.0,0.0,0.0,0.0,
0.2237,3.038963855573863,3.038963855573863,2.936340447234355,0.0,0.0,0.0,3.004756052794027,0.0,0.0,0.0,0.0,0.0,0.0,0.0,0.0,0.0,0.0,0.0,0.0,0.0,0.0,
0.2386,3.039082526168485,3.039082526168485,2.9364424246079786,0.0,0.0,0.0,3.00486915898165,0.0,0.0,0.0,0.0,0.0,0.0,0.0,0.0,0.0,0.0,0.0,0.0,0.0,0.0,
0.2535,3.0392088673913595,3.0392088673913595,2.936550992466657,0.0,0.0,0.0,3.0049895757497915,0.0,0.0,0.0,0.0,0.0,0.0,0.0,0.0,0.0,0.0,0.0,0.0,0.0,0.0,
0.2684,3.0393428831998333,3.0393428831998333,2.9366661539994396,0.0,0.0,0.0,3.005117306799702,0.0,0.0,0.0,0.0,0.0,0.0,0.0,0.0,0.0,0.0,0.0,0.0,0.0,0.0,
0.2833,3.0394845777931083,3.0394845777931083,2.936787912590243,0.0,0.0,0.0,3.00525235605882,0.0,0.0,0.0,0.0,0.0,0.0,0.0,0.0,0.0,0.0,0.0,0.0,0.0,0.0,
0.2983,3.0396349841143904,3.0396349841143904,2.936917155596344,0.0,0.0,0.0,3.0053957079417084,0.0,0.0,0.0,0.0,0.0,0.0,0.0,0.0,0.0,0.0,0.0,0.0,0.0,0.0,
0.3132,3.0397921014571585,3.0397921014571585,2.937052163574016,0.0,0.0,0.0,3.005545455496111,0.0,0.0,0.0,0.0,0.0,0.0,0.0,0.0,0.0,0.0,0.0,0.0,0.0,0.0,
0.3281,3.039956911671098,3.039956911671098,2.937193779960993,0.0,0.0,0.0,3.005702534434396,0.0,0.0,0.0,0.0,0.0,0.0,0.0,0.0,0.0,0.0,0.0,0.0,0.0,0.0,
0.343,3.0401294199284243,3.0401294199284243,2.937342008925187,0.0,0.0,0.0,3.0058669495940116,0.0,0.0,0.0,0.0,0.0,0.0,0.0,0.0,0.0,0.0,0.0,0.0,0.0,0.0,
0.3579,3.0403096316453335,3.0403096316453335,2.9374968548309957,0.0,0.0,0.0,3.0060387060405542,0.0,0.0,0.0,0.0,0.0,0.0,0.0,0.0,0.0,0.0,0.0,0.0,0.0,0.0,
0.3728,3.0404975524825053,3.0404975524825053,2.9376583222398125,0.0,0.0,0.0,3.0062178090682745,0.0,0.0,0.0,0.0,0.0,0.0,0.0,0.0,0.0,0.0,0.0,0.0,0.0,0.0,
0.3877,3.040693188345642,3.040693188345642,2.9378264159104006,0.0,0.0,0.0,3.0064042642005617,0.0,0.0,0.0,0.0,0.0,0.0,0.0,0.0,0.0,0.0,0.0,0.0,0.0,0.0,
0.4027,3.0408979362965254,3.0408979362965254,2.938002335862868,0.0,0.0,0.0,3.00659940281864,0.0,0.0,0.0,0.0,0.0,0.0,0.0,0.0,0.0,0.0,0.0,0.0,0.0,0.0,
0.4176,3.0411090727964862,3.0411090727964862,2.9381837416821965,0.0,0.0,0.0,3.006800629091723,0.0,0.0,0.0,0.0,0.0,0.0,0.0,0.0,0.0,0.0,0.0,0.0,0.0,0.0,
0.4325,3.0413279435605225,3.0413279435605225,2.938371789264818,0.0,0.0,0.0,3.0070092254619545,0.0,0.0,0.0,0.0,0.0,0.0,0.0,0.0,0.0,0.0,0.0,0.0,0.0,0.0,
0.4474,3.0415545554816896,3.0415545554816896,2.938566484164794,0.0,0.0,0.0,3.0072251983760574,0.0,0.0,0.0,0.0,0.0,0.0,0.0,0.0,0.0,0.0,0.0,0.0,0.0,0.0,
0.4623,3.04178891570101,3.04178891570101,2.9387678321359587,0.0,0.0,0.0,3.00744855451266,0.0,0.0,0.0,0.0,0.0,0.0,0.0,0.0,0.0,0.0,0.0,0.0,0.0,0.0,
0.4772,3.0420310316081816,3.0420310316081816,2.938975839132387,0.0,0.0,0.0,3.007679300782917,0.0,0.0,0.0,0.0,0.0,0.0,0.0,0.0,0.0,0.0,0.0,0.0,0.0,0.0,
0.4921,3.042280910842197,3.042280910842197,2.939190511308894,0.0,0.0,0.0,3.007917444331096,0.0,0.0,0.0,0.0,0.0,0.0,0.0,0.0,0.0,0.0,0.0,0.0,0.0,0.0,
0.507,3.0425385612920626,3.0425385612920626,2.939411855021715,0.0,0.0,0.0,3.0081629925352797,0.0,0.0,0.0,0.0,0.0,0.0,0.0,0.0,0.0,0.0,0.0,0.0,0.0,0.0,
0.522,3.0428057988049106,3.0428057988049106,2.9396414297519593,0.0,0.0,0.0,3.0084176757872605,0.0,0.0,0.0,0.0,0.0,0.0,0.0,0.0,0.0,0.0,0.0,0.0,0.0,0.0,
0.5369,3.0430790686530775,3.0430790686530775,2.9398761813024548,0.0,0.0,0.0,3.00867810620287,0.0,0.0,0.0,0.0,0.0,0.0,0.0,0.0,0.0,0.0,0.0,0.0,0.0,0.0,
0.5518,3.043360134950691,3.043360134950691,2.9401176247193503,0.0,0.0,0.0,3.0089459648735772,0.0,0.0,0.0,0.0,0.0,0.0,0.0,0.0,0.0,0.0,0.0,0.0,0.0,0.0,
0.5667,3.0436490065961754,3.0436490065961754,2.940365767171671,0.0,0.0,0.0,3.009221260121341,0.0,0.0,0.0,0.0,0.0,0.0,0.0,0.0,0.0,0.0,0.0,0.0,0.0,0.0,
0.5816,3.043945692741932,3.043945692741932,2.940620616032896,0.0,0.0,0.0,3.0095040005055864,0.0,0.0,0.0,0.0,0.0,0.0,0.0,0.0,0.0,0.0,0.0,0.0,0.0,0.0,
0.5965,3.0442502027951455,3.0442502027951455,2.9408821788816364,0.0,0.0,0.0,3.0097941948239755,0.0,0.0,0.0,0.0,0.0,0.0,0.0,0.0,0.0,0.0,0.0,0.0,0.0,0.0,
0.6114,3.0445625464186756,3.0445625464186756,2.9411504635023924,0.0,0.0,0.0,3.010091852113248,0.0,0.0,0.0,0.0,0.0,0.0,0.0,0.0,0.0,0.0,0.0,0.0,0.0,0.0,
0.6263,3.0448827335320328,3.0448827335320328,2.941425477886141,0.0,0.0,0.0,3.0103969816500693,0.0,0.0,0.0,0.0,0.0,0.0,0.0,0.0,0.0,0.0,0.0,0.0,0.0,0.0,
0.6413,3.0452130024830524,3.0452130024830524,2.9417091439678393,0.0,0.0,0.0,3.010711716311315,0.0,0.0,0.0,0.0,0.0,0.0,0.0,0.0,0.0,0.0,0.0,0.0,0.0,0.0,
0.6562,3.045548960180539,3.045548960180539,2.9419976879872225,0.0,0.0,0.0,3.011031869449434,0.0,0.0,0.0,0.0,0.0,0.0,0.0,0.0,0.0,0.0,0.0,0.0,0.0,0.0,
0.6711,3.045892792747909,3.045892792747909,2.94229298704812,0.0,0.0,0.0,3.0113595241813123,0.0,0.0,0.0,0.0,0.0,0.0,0.0,0.0,0.0,0.0,0.0,0.0,0.0,0.0,
0.686,3.04624451114234,3.04624451114234,2.94259504997683,0.0,0.0,0.0,3.0116946907538367,0.0,0.0,0.0,0.0,0.0,0.0,0.0,0.0,0.0,0.0,0.0,0.0,0.0,0.0,
0.7009,3.0466041265825403,3.0466041265825403,2.9429038858101095,0.0,0.0,0.0,3.0120373796583966,0.0,0.0,0.0,0.0,0.0,0.0,0.0,0.0,0.0,0.0,0.0,0.0,0.0,0.0,
0.7158,3.0469716505497475,3.0469716505497475,2.9432195037960334,0.0,0.0,0.0,3.012387601631843,0.0,0.0,0.0,0.0,0.0,0.0,0.0,0.0,0.0,0.0,0.0,0.0,0.0,0.0,
0.7307,3.047347094788922,3.047347094788922,2.943541913394853,0.0,0.0,0.0,3.0127453676575655,0.0,0.0,0.0,0.0,0.0,0.0,0.0,0.0,0.0,0.0,0.0,0.0,0.0,0.0,
0.7457,3.0477330711311694,3.0477330711311694,2.943873356747397,0.0,0.0,0.0,3.0131131663365784,0.0,0.0,0.0,0.0,0.0,0.0,0.0,0.0,0.0,0.0,0.0,0.0,0.0,0.0,
0.7606,3.0481244455705663,3.0481244455705663,2.9442094245523527,0.0,0.0,0.0,3.0134861052311614,0.0,0.0,0.0,0.0,0.0,0.0,0.0,0.0,0.0,0.0,0.0,0.0,0.0,0.0,
0.7755,3.0485237771950624,3.0485237771950624,2.9445523137014753,0.0,0.0,0.0,3.0138666226972,0.0,0.0,0.0,0.0,0.0,0.0,0.0,0.0,0.0,0.0,0.0,0.0,0.0,0.0,
0.7904,3.0489310788174935,3.0489310788174935,2.944902034514232,0.0,0.0,0.0,3.0142547307164063,0.0,0.0,0.0,0.0,0.0,0.0,0.0,0.0,0.0,0.0,0.0,0.0,0.0,0.0,
0.8053,3.04934636352016,3.04934636352016,2.945258597526924,0.0,0.0,0.0,3.0146504415224147,0.0,0.0,0.0,0.0,0.0,0.0,0.0,0.0,0.0,0.0,0.0,0.0,0.0,0.0,
0.8202,3.0497696446561657,3.0497696446561657,2.945622013493625,0.0,0.0,0.0,3.0150537676019855,0.0,0.0,0.0,0.0,0.0,0.0,0.0,0.0,0.0,0.0,0.0,0.0,0.0,0.0,
0.8351,3.0502009358506625,3.0502009358506625,2.9459922933872833,0.0,0.0,0.0,3.015464721696203,0.0,0.0,0.0,0.0,0.0,0.0,0.0,0.0,0.0,0.0,0.0,0.0,0.0,0.0,
0.85,3.0506402510021227,3.0506402510021227,2.946369448400691,0.0,0.0,0.0,3.0158833168016455,0.0,0.0,0.0,0.0,0.0,0.0,0.0,0.0,0.0,0.0,0.0,0.0,0.0,0.0,
0.865,3.051090633841871,3.051090633841871,2.9467560906980688,0.0,0.0,0.0,3.0163124527939367,0.0,0.0,0.0,0.0,0.0,0.0,0.0,0.0,0.0,0.0,0.0,0.0,0.0,0.0,
0.8799,3.051546093796474,3.051546093796474,2.94714707675043,0.0,0.0,0.0,3.016746421447793,0.0,0.0,0.0,0.0,0.0,0.0,0.0,0.0,0.0,0.0,0.0,0.0,0.0,0.0,
0.8948,3.052009621156917,3.052009621156917,2.947544972911257,0.0,0.0,0.0,3.0171880717416975,0.0,0.0,0.0,0.0,0.0,0.0,0.0,0.0,0.0,0.0,0.0,0.0,0.0,0.0,
0.9097,3.052481230930644,3.052481230930644,2.9479497912651498,0.0,0.0,0.0,3.0176374177088126,0.0,0.0,0.0,0.0,0.0,0.0,0.0,0.0,0.0,0.0,0.0,0.0,0.0,0.0,
0.9246,3.052960938405414,3.052960938405414,2.94836154412217,0.0,0.0,0.0,3.0180944736443327,0.0,0.0,0.0,0.0,0.0,0.0,0.0,0.0,0.0,0.0,0.0,0.0,0.0,0.0,
0.9395,3.0534487591508106,3.0534487591508106,2.948780244018965,0.0,0.0,0.0,3.018559254106862,0.0,0.0,0.0,0.0,0.0,0.0,0.0,0.0,0.0,0.0,0.0,0.0,0.0,0.0,
0.9544,3.053944709019754,3.053944709019754,2.9492059037199647,0.0,0.0,0.0,3.0190317739198242,0.0,0.0,0.0,0.0,0.0,0.0,0.0,0.0,0.0,0.0,0.0,0.0,0.0,0.0,
0.9693,3.0544488041500104,3.0544488041500104,2.9496385362186666,0.0,0.0,0.0,3.0195120481728956,0.0,0.0,0.0,0.0,0.0,0.0,0.0,0.0,0.0,0.0,0.0,0.0,0.0,0.0,
0.9843,3.0549645265406715,3.0549645265406715,2.950081128829291,0.0,0.0,0.0,3.0200033939702116,0.0,0.0,0.0,0.0,0.0,0.0,0.0,0.0,0.0,0.0,0.0,0.0,0.0,0.0,
0.9992,3.055485016700048,3.055485016700048,2.950527793848485,0.0,0.0,0.0,3.020499275749527,0.0,0.0,0.0,0.0,0.0,0.0,0.0,0.0,0.0,0.0,0.0,0.0,0.0,0.0,
1.0141,3.0560137023743636,3.0560137023743636,2.950981472125237,0.0,0.0,0.0,3.0210029589579883,0.0,0.0,0.0,0.0,0.0,0.0,0.0,0.0,0.0,0.0,0.0,0.0,0.0,0.0,
1.029,3.0565506008589405,3.0565506008589405,2.951442177583461,0.0,0.0,0.0,3.0215144597671135,0.0,0.0,0.0,0.0,0.0,0.0,0.0,0.0,0.0,0.0,0.0,0.0,0.0,0.0,
1.0439,3.057095729742155,3.057095729742155,2.951909924382638,0.0,0.0,0.0,3.0220337946223164,0.0,0.0,0.0,0.0,0.0,0.0,0.0,0.0,0.0,0.0,0.0,0.0,0.0,0.0,
1.0588,3.05764910690723,3.05764910690723,2.9523847269191696,0.0,0.0,0.0,3.0225609802445432,0.0,0.0,0.0,0.0,0.0,0.0,0.0,0.0,0.0,0.0,0.0,0.0,0.0,0.0,
1.0737,3.0582107505339367,3.0582107505339367,2.952866599827793,0.0,0.0,0.0,3.0230960336318886,0.0,0.0,0.0,0.0,0.0,0.0,0.0,0.0,0.0,0.0,0.0,0.0,0.0,0.0,
1.0887,3.0587845321550624,3.0587845321550624,2.953358863550965,0.0,0.0,0.0,3.0236426426203633,0.0,0.0,0.0,0.0,0.0,0.0,0.0,0.0,0.0,0.0,0.0,0.0,0.0,0.0,
1.1036,3.059362820233525,3.059362820233525,2.953854969773582,0.0,0.0,0.0,3.024193536746877,0.0,0.0,0.0,0.0,0.0,0.0,0.0,0.0,0.0,0.0,0.0,0.0,0.0,0.0,
1.1185,3.059949431239745,3.059949431239745,2.9543581918208823,0.0,0.0,0.0,3.0247523514334573,0.0,0.0,0.0,0.0,0.0,0.0,0.0,0.0,0.0,0.0,0.0,0.0,0.0,0.0,
1.1334,3.0605443845601945,3.0605443845601945,2.9548685452971872,0.0,0.0,0.0,3.0253191048058583,0.0,0.0,0.0,0.0,0.0,0.0,0.0,0.0,0.0,0.0,0.0,0.0,0.0,0.0,
1.1483,3.0611476998873455,3.0611476998873455,2.955386046052639,0.0,0.0,0.0,3.025893815275777,0.0,0.0,0.0,0.0,0.0,0.0,0.0,0.0,0.0,0.0,0.0,0.0,0.0,0.0,
1.1632,3.0617593972215316,3.0617593972215316,2.95591071018467,0.0,0.0,0.0,3.0264765015425774,0.0,0.0,0.0,0.0,0.0,0.0,0.0,0.0,0.0,0.0,0.0,0.0,0.0,0.0,
1.1781,3.0623794968730436,3.0623794968730436,2.9564425540397172,0.0,0.0,0.0,3.027067182595268,0.0,0.0,0.0,0.0,0.0,0.0,0.0,0.0,0.0,0.0,0.0,0.0,0.0,0.0,
1.193,3.063008019464146,3.063008019464146,2.9569815942148043,0.0,0.0,0.0,3.0276658777143655,0.0,0.0,0.0,0.0,0.0,0.0,0.0,0.0,0.0,0.0,0.0,0.0,0.0,0.0,
1.208,3.063649289447035,3.063649289447035,2.9575315380952136,0.0,0.0,0.0,3.0282767056630946,0.0,0.0,0.0,0.0,0.0,0.0,0.0,0.0,0.0,0.0,0.0,0.0,0.0,0.0,
1.2229,3.064294777927835,3.064294777927835,2.95808507029572,0.0,0.0,0.0,3.028891542050463,0.0,0.0,0.0,0.0,0.0,0.0,0.0,0.0,0.0,0.0,0.0,0.0,0.0,0.0,
1.2378,3.0649487532536535,3.0649487532536535,2.9586458502449062,0.0,0.0,0.0,3.0295144522507376,0.0,0.0,0.0,0.0,0.0,0.0,0.0,0.0,0.0,0.0,0.0,0.0,0.0,0.0,
1.2527,3.0656112373179605,3.0656112373179605,2.959213895560728,0.0,0.0,0.0,3.030145456732216,0.0,0.0,0.0,0.0,0.0,0.0,0.0,0.0,0.0,0.0,0.0,0.0,0.0,0.0,
1.2676,3.066282252337043,3.066282252337043,2.959789224120353,0.0,0.0,0.0,3.030784576264813,0.0,0.0,0.0,0.0,0.0,0.0,0.0,0.0,0.0,0.0,0.0,0.0,0.0,0.0,
1.2825,3.0669618208521894,3.0669618208521894,2.9603718540619584,0.0,0.0,0.0,3.0314318319221125,0.0,0.0,0.0,0.0,0.0,0.0,0.0,0.0,0.0,0.0,0.0,0.0,0.0,0.0,
1.2974,3.0676499657320546,3.0676499657320546,2.960961803786536,0.0,0.0,0.0,3.0320872450835488,0.0,0.0,0.0,0.0,0.0,0.0,0.0,0.0,0.0,0.0,0.0,0.0,0.0,0.0,
1.3123,3.068346710174982,3.068346710174982,2.9615590919598183,0.0,0.0,0.0,3.0327508374365943,0.0,0.0,0.0,0.0,0.0,0.0,0.0,0.0,0.0,0.0,0.0,0.0,0.0,0.0,
1.3273,3.0690568409062875,3.0690568409062875,2.9621678204361537,0.0,0.0,0.0,3.0334271674162427,0.0,0.0,0.0,0.0,0.0,0.0,0.0,0.0,0.0,0.0,0.0,0.0,0.0,0.0,
1.3422,3.069770913516006,3.069770913516006,2.9627798921452357,0.0,0.0,0.0,3.034107239725749,0.0,0.0,0.0,0.0,0.0,0.0,0.0,0.0,0.0,0.0,0.0,0.0,0.0,0.0,
1.3571,3.0704936574498456,3.0704936574498456,2.96339936003936,0.0,0.0,0.0,3.0347955583130166,0.0,0.0,0.0,0.0,0.0,0.0,0.0,0.0,0.0,0.0,0.0,0.0,0.0,0.0,
1.372,3.0712250972516353,3.0712250972516353,2.9640262438644056,0.0,0.0,0.0,3.0354921461225586,0.0,0.0,0.0,0.0,0.0,0.0,0.0,0.0,0.0,0.0,0.0,0.0,0.0,0.0,
1.3869,3.071965257807313,3.071965257807313,2.9646605636408223,0.0,0.0,0.0,3.0361970264184825,0.0,0.0,0.0,0.0,0.0,0.0,0.0,0.0,0.0,0.0,0.0,0.0,0.0,0.0,
1.4018,3.0727141643474756,3.0727141643474756,2.965302339665752,0.0,0.0,0.0,3.0369102227869007,0.0,0.0,0.0,0.0,0.0,0.0,0.0,0.0,0.0,0.0,0.0,0.0,0.0,0.0,
1.4167,3.0734718424501355,3.0734718424501355,2.9659515925151236,0.0,0.0,0.0,3.0376317591384647,0.0,0.0,0.0,0.0,0.0,0.0,0.0,0.0,0.0,0.0,0.0,0.0,0.0,0.0,
1.4317,3.074243491953887,3.074243491953887,2.966612776144015,0.0,0.0,0.0,3.03836658668393,0.0,0.0,0.0,0.0,0.0,0.0,0.0,0.0,0.0,0.0,0.0,0.0,0.0,0.0,
1.4466,3.0750188506278726,3.0750188506278726,2.967277096030032,0.0,0.0,0.0,3.0391049324285926,0.0,0.0,0.0,0.0,0.0,0.0,0.0,0.0,0.0,0.0,0.0,0.0,0.0,0.0,
1.4615,3.0758030598895085,3.0758030598895085,2.9679489563075334,0.0,0.0,0.0,3.0398516920288503,0.0,0.0,0.0,0.0,0.0,0.0,0.0,0.0,0.0,0.0,0.0,0.0,0.0,0.0,
1.4764,3.0765961467359477,3.0765961467359477,2.9686283786914274,0.0,0.0,0.0,3.040606890721108,0.0,0.0,0.0,0.0,0.0,0.0,0.0,0.0,0.0,0.0,0.0,0.0,0.0,0.0,
1.4913,3.0773981385256484,3.0773981385256484,2.9693153851865484,0.0,0.0,0.0,3.0413705540792813,0.0,0.0,0.0,0.0,0.0,0.0,0.0,0.0,0.0,0.0,0.0,0.0,0.0,0.0,
1.5062,3.078209062981256,3.078209062981256,2.97000999808997,0.0,0.0,0.0,3.0421427080174936,0.0,0.0,0.0,0.0,0.0,0.0,0.0,0.0,0.0,0.0,0.0,0.0,0.0,0.0,
1.5211,3.079028948192608,3.079028948192608,2.9707122399934347,0.0,0.0,0.0,3.0429233787928838,0.0,0.0,0.0,0.0,0.0,0.0,0.0,0.0,0.0,0.0,0.0,0.0,0.0,0.0,
1.536,3.0798578226197226,3.0798578226197226,2.9714221337856945,0.0,0.0,0.0,3.04371259300838,0.0,0.0,0.0,0.0,0.0,0.0,0.0,0.0,0.0,0.0,0.0,0.0,0.0,0.0,
1.551,3.080701369066148,3.080701369066148,2.9721445445345247,0.0,0.0,0.0,3.0445157608889404,0.0,0.0,0.0,0.0,0.0,0.0,0.0,0.0,0.0,0.0,0.0,0.0,0.0,0.0,
1.5659,3.0815483696204593,3.0815483696204593,2.972869863719441,0.0,0.0,0.0,3.0453222009867864,0.0,0.0,0.0,0.0,0.0,0.0,0.0,0.0,0.0,0.0,0.0,0.0,0.0,0.0,
1.5808,3.082404447222631,3.082404447222631,2.9736029054271946,0.0,0.0,0.0,3.046137266624152,0.0,0.0,0.0,0.0,0.0,0.0,0.0,0.0,0.0,0.0,0.0,0.0,0.0,0.0,
1.5957,3.083269631847259,3.083269631847259,2.974343693761753,0.0,0.0,0.0,3.0469609858187567,0.0,0.0,0.0,0.0,0.0,0.0,0.0,0.0,0.0,0.0,0.0,0.0,0.0,0.0,
1.6106,3.0841439538550146,3.0841439538550146,2.9750922531368293,0.0,0.0,0.0,3.047793386948953,0.0,0.0,0.0,0.0,0.0,0.0,0.0,0.0,0.0,0.0,0.0,0.0,0.0,0.0,
1.6255,3.0850274439959864,3.0850274439959864,2.975848608278543,0.0,0.0,0.0,3.048634498756839,0.0,0.0,0.0,0.0,0.0,0.0,0.0,0.0,0.0,0.0,0.0,0.0,0.0,0.0,
1.6404,3.0859201334130484,3.0859201334130484,2.976612784228146,0.0,0.0,0.0,3.0494843503514146,0.0,0.0,0.0,0.0,0.0,0.0,0.0,0.0,0.0,0.0,0.0,0.0,0.0,0.0,
1.6553,3.0868220536452835,3.0868220536452835,2.9773848063447446,0.0,0.0,0.0,3.0503429712117707,0.0,0.0,0.0,0.0,0.0,0.0,0.0,0.0,0.0,0.0,0.0,0.0,0.0,0.0,
1.6703,3.0877393833181155,3.0877393833181155,2.978169961147259,0.0,0.0,0.0,3.051216242594497,0.0,0.0,0.0,0.0,0.0,0.0,0.0,0.0,0.0,0.0,0.0,0.0,0.0,0.0,
1.6852,3.0886599238938315,3.0886599238938315,2.9789578060550053,0.0,0.0,0.0,3.0520925512808894,0.0,0.0,0.0,0.0,0.0,0.0,0.0,0.0,0.0,0.0,0.0,0.0,0.0,0.0,
1.7001,3.089589792535804,3.089589792535804,2.979753575320367,0.0,0.0,0.0,3.052977720130658,0.0,0.0,0.0,0.0,0.0,0.0,0.0,0.0,0.0,0.0,0.0,0.0,0.0,0.0,
1.715,3.0905290224063213,3.0905290224063213,2.980557295604603,0.0,0.0,0.0,3.053871780139082,0.0,0.0,0.0,0.0,0.0,0.0,0.0,0.0,0.0,0.0,0.0,0.0,0.0,0.0,
1.7299,3.0914776470819687,3.0914776470819687,2.981368993901332,0.0,0.0,0.0,3.054774762688423,0.0,0.0,0.0,0.0,0.0,0.0,0.0,0.0,0.0,0.0,0.0,0.0,0.0,0.0,
1.7448,3.0924357005574317,3.0924357005574317,2.982188697539572,0.0,0.0,0.0,3.055686699551478,0.0,0.0,0.0,0.0,0.0,0.0,0.0,0.0,0.0,0.0,0.0,0.0,0.0,0.0,
1.7597,3.0934032172493326,3.0934032172493326,2.983016434186785,0.0,0.0,0.0,3.05660762289515,0.0,0.0,0.0,0.0,0.0,0.0,0.0,0.0,0.0,0.0,0.0,0.0,0.0,0.0,
1.7747,3.0943868213121353,3.0943868213121353,2.983857868528202,0.0,0.0,0.0,3.057543837050824,0.0,0.0,0.0,0.0,0.0,0.0,0.0,0.0,0.0,0.0,0.0,0.0,0.0,0.0,
1.7896,3.0953734334962686,3.0953734334962686,2.984701809953096,0.0,0.0,0.0,3.058482892315211,0.0,0.0,0.0,0.0,0.0,0.0,0.0,0.0,0.0,0.0,0.0,0.0,0.0,0.0,
1.8045,3.0963696149587943,3.0963696149587943,2.98555386964568,0.0,0.0,0.0,3.059431033187756,0.0,0.0,0.0,0.0,0.0,0.0,0.0,0.0,0.0,0.0,0.0,0.0,0.0,0.0,
1.8194,3.0973754018467288,3.0973754018467288,2.9864140766615717,0.0,0.0,0.0,3.0603882934516764,0.0,0.0,0.0,0.0,0.0,0.0,0.0,0.0,0.0,0.0,0.0,0.0,0.0,0.0,
1.8343,3.098390830749245,3.098390830749245,2.987282460411077,0.0,0.0,0.0,3.0613547073031895,0.0,0.0,0.0,0.0,0.0,0.0,0.0,0.0,0.0,0.0,0.0,0.0,0.0,0.0,
1.8492,3.099415938701946,3.099415938701946,2.988159050662638,0.0,0.0,0.0,3.06233030935551,0.0,0.0,0.0,0.0,0.0,0.0,0.0,0.0,0.0,0.0,0.0,0.0,0.0,0.0,
1.8641,3.1004507631910476,3.1004507631910476,2.9890438775462016,0.0,0.0,0.0,3.0633151346427656,0.0,0.0,0.0,0.0,0.0,0.0,0.0,0.0,0.0,0.0,0.0,0.0,0.0,0.0,
1.879,3.101495342157897,3.101495342157897,2.9899369715568476,0.0,0.0,0.0,3.0643092186242136,0.0,0.0,0.0,0.0,0.0,0.0,0.0,0.0,0.0,0.0,0.0,0.0,0.0,0.0,
1.894,3.102556823494548,3.102556823494548,2.990844441271873,0.0,0.0,0.0,3.0653193627536566,0.0,0.0,0.0,0.0,0.0,0.0,0.0,0.0,0.0,0.0,0.0,0.0,0.0,0.0,
1.9089,3.103621093200601,3.103621093200601,2.9917542185072463,0.0,0.0,0.0,3.066332134969483,0.0,0.0,0.0,0.0,0.0,0.0,0.0,0.0,0.0,0.0,0.0,0.0,0.0,0.0,
1.9238,3.1046952342491387,3.1046952342491387,2.9926723567947593,0.0,0.0,0.0,3.067354275097679,0.0,0.0,0.0,0.0,0.0,0.0,0.0,0.0,0.0,0.0,0.0,0.0,0.0,0.0,
1.9387,3.105779286450077,3.105779286450077,2.9935988881286146,0.0,0.0,0.0,3.068385820342923,0.0,0.0,0.0,0.0,0.0,0.0,0.0,0.0,0.0,0.0,0.0,0.0,0.0,0.0,
