energies(eV),real_xx,real_yy,real_zz,real_xy,real_yz,real_xz,real_ave,imag_xx,imag_yy,imag_zz,imag_xy,imag_yz,imag_xz,imag_ave,absorption_xx,absorption_yy,absorption_zz,absorption_xy,absorption_yz,absorption_xz,absorption_ave,band_gap
0.0,3.0730831656564983,3.0730831656564983,3.146947598586872,0.0,0.0,0.0,3.097704643299956,0.0,0.0,0.0,0.0,0.0,0.0,0.0,0.0,0.0,0.0,0.0,0.0,0.0,0.0,6.282100000000001
0.0187,3.0730884917544525,3.0730884917544525,3.1469532776918667,0.0,0.0,0.0,3.097710087066924,0.0,0.0,0.0,0.0,0.0,0.0,0.0,0.0,0.0,0.0,0.0,0.0,0.0,0.0,
0.0374,3.0731044702733334,3.0731044702733334,3.1469703152517465,0.0,0.0,0.0,3.0977264185994713,0.0,0.0,0.0,0.0,0.0,0.0,0.0,0.0,0.0,0.0,0.0,0.0,0.0,0.0,
0.0562,3.073131272941386,3.073131272941386,3.1469988943921465,0.0,0.0,0.0,3.0977538134249727,0.0,0.0,0.0,0.0,0.0,0.0,0.0,0.0,0.0,0.0,0.0,0.0,0.0,0.0,
0.0749,3.073168615755011,3.073168615755011,3.1470387123111263,0.0,0.0,0.0,3.097791981273716,0.0,0.0,0.0,0.0,0.0,0.0,0.0,0.0,0.0,0.0,0.0,0.0,0.0,0.0,
0.0936,3.0732166143740813,3.0732166143740813,3.147089892369771,0.0,0.0,0.0,3.0978410403726446,0.0,0.0,0.0,0.0,0.0,0.0,0.0,0.0,0.0,0.0,0.0,0.0,0.0,0.0,
0.1123,3.0732752708264113,3.0732752708264113,3.1471524367758734,0.0,0.0,0.0,3.0979009928095653,0.0,0.0,0.0,0.0,0.0,0.0,0.0,0.0,0.0,0.0,0.0,0.0,0.0,0.0,
0.1311,3.0733449869294,3.0733449869294,3.1472267740373843,0.0,0.0,0.0,3.097972249298728,0.0,0.0,0.0,0.0,0.0,0.0,0.0,0.0,0.0,0.0,0.0,0.0,0.0,0.0,
0.1498,3.073425023966057,3.073425023966057,3.1473121165372673,0.0,0.0,0.0,3.098054054823127,0.0,0.0,0.0,0.0,0.0,0.0,0.0,0.0,0.0,0.0,0.0,0.0,0.0,0.0,
0.1685,3.0735157276439256,3.0735157276439256,3.1474088329739818,0.0,0.0,0.0,3.098146762753944,0.0,0.0,0.0,0.0,0.0,0.0,0.0,0.0,0.0,0.0,0.0,0.0,0.0,0.0,
0.1872,3.073617101797888,3.073617101797888,3.147516927522717,0.0,0.0,0.0,3.098250377039497,0.0,0.0,0.0,0.0,0.0,0.0,0.0,0.0,0.0,0.0,0.0,0.0,0.0,0.0,
0.206,3.0737297786102125,3.0737297786102125,3.1476370743742335,0.0,0.0,0.0,3.0983655438648863,0.0,0.0,0.0,0.0,0.0,0.0,0.0,0.0,0.0,0.0,0.0,0.0,0.0,0.0,
0.2247,3.0738525641536274,3.0738525641536274,3.1477680005554056,0.0,0.0,0.0,3.0984910429542203,0.0,0.0,0.0,0.0,0.0,0.0,0.0,0.0,0.0,0.0,0.0,0.0,0.0,0.0,
0.2434,3.0739860344223606,3.0739860344223606,3.147910320362375,0.0,0.0,0.0,3.098627463069032,0.0,0.0,0.0,0.0,0.0,0.0,0.0,0.0,0.0,0.0,0.0,0.0,0.0,0.0,
0.2621,3.074130195066083,3.074130195066083,3.1480640399463433,0.0,0.0,0.0,3.09877481002617,0.0,0.0,0.0,0.0,0.0,0.0,0.0,0.0,0.0,0.0,0.0,0.0,0.0,0.0,
0.2809,3.07428590906695,3.07428590906695,3.148230079654606,0.0,0.0,0.0,3.098933965929502,0.0,0.0,0.0,0.0,0.0,0.0,0.0,0.0,0.0,0.0,0.0,0.0,0.0,0.0,
0.2996,3.0744515264835153,3.0744515264835153,3.148406680282855,0.0,0.0,0.0,3.0991032444166287,0.0,0.0,0.0,0.0,0.0,0.0,0.0,0.0,0.0,0.0,0.0,0.0,0.0,0.0,
0.3183,3.074627853994569,3.074627853994569,3.1485947021583556,0.0,0.0,0.0,3.0992834700491643,0.0,0.0,0.0,0.0,0.0,0.0,0.0,0.0,0.0,0.0,0.0,0.0,0.0,0.0,
0.337,3.0748148990761357,3.0748148990761357,3.1487941534210377,0.0,0.0,0.0,3.0994746505244364,0.0,0.0,0.0,0.0,0.0,0.0,0.0,0.0,0.0,0.0,0.0,0.0,0.0,0.0,
0.3558,3.0750137561052386,3.0750137561052386,3.149006201222738,0.0,0.0,0.0,3.0996779044777383,0.0,0.0,0.0,0.0,0.0,0.0,0.0,0.0,0.0,0.0,0.0,0.0,0.0,0.0,
0.3745,3.0752223180136675,3.0752223180136675,3.1492285989169337,0.0,0.0,0.0,3.0998910783147564,0.0,0.0,0.0,0.0,0.0,0.0,0.0,0.0,0.0,0.0,0.0,0.0,0.0,0.0,
0.3932,3.075441622722628,3.075441622722628,3.1494624534694884,0.0,0.0,0.0,3.1001152329715818,0.0,0.0,0.0,0.0,0.0,0.0,0.0,0.0,0.0,0.0,0.0,0.0,0.0,0.0,
0.4119,3.0756716795497065,3.0756716795497065,3.1497077750259694,0.0,0.0,0.0,3.100350378041794,0.0,0.0,0.0,0.0,0.0,0.0,0.0,0.0,0.0,0.0,0.0,0.0,0.0,0.0,
0.4307,3.0759138150230494,3.0759138150230494,3.14996597836645,0.0,0.0,0.0,3.1005978694708496,0.0,0.0,0.0,0.0,0.0,0.0,0.0,0.0,0.0,0.0,0.0,0.0,0.0,0.0,
0.4494,3.0761654635243727,3.0761654635243727,3.150234327852699,0.0,0.0,0.0,3.1008550849671486,0.0,0.0,0.0,0.0,0.0,0.0,0.0,0.0,0.0,0.0,0.0,0.0,0.0,0.0,
0.4681,3.0764278949359487,3.0764278949359487,3.1505141778720454,0.0,0.0,0.0,3.1011233225813144,0.0,0.0,0.0,0.0,0.0,0.0,0.0,0.0,0.0,0.0,0.0,0.0,0.0,0.0,
0.4868,3.0767011204361014,3.0767011204361014,3.150805540596817,0.0,0.0,0.0,3.101402593823007,0.0,0.0,0.0,0.0,0.0,0.0,0.0,0.0,0.0,0.0,0.0,0.0,0.0,0.0,
0.5056,3.076986699623102,3.076986699623102,3.1511100794364415,0.0,0.0,0.0,3.101694492894215,0.0,0.0,0.0,0.0,0.0,0.0,0.0,0.0,0.0,0.0,0.0,0.0,0.0,0.0,
0.5243,3.0772816065916224,3.0772816065916224,3.151424567869871,0.0,0.0,0.0,3.1019959270177053,0.0,0.0,0.0,0.0,0.0,0.0,0.0,0.0,0.0,0.0,0.0,0.0,0.0,0.0,
0.543,3.0775873440661843,3.0775873440661843,3.1517506086658287,0.0,0.0,0.0,3.102308432266066,0.0,0.0,0.0,0.0,0.0,0.0,0.0,0.0,0.0,0.0,0.0,0.0,0.0,0.0,
0.5617,3.07790392510878,3.07790392510878,3.152088216048807,0.0,0.0,0.0,3.102632022088789,0.0,0.0,0.0,0.0,0.0,0.0,0.0,0.0,0.0,0.0,0.0,0.0,0.0,0.0,
0.5805,3.078233143471812,3.078233143471812,3.152439303238362,0.0,0.0,0.0,3.102968530060662,0.0,0.0,0.0,0.0,0.0,0.0,0.0,0.0,0.0,0.0,0.0,0.0,0.0,0.0,
0.5992,3.0785715109085294,3.0785715109085294,3.1528001505939756,0.0,0.0,0.0,3.1033143908036784,0.0,0.0,0.0,0.0,0.0,0.0,0.0,0.0,0.0,0.0,0.0,0.0,0.0,0.0,
0.6179,3.0789207640312624,3.0789207640312624,3.153172610404766,0.0,0.0,0.0,3.103671379489097,0.0,0.0,0.0,0.0,0.0,0.0,0.0,0.0,0.0,0.0,0.0,0.0,0.0,0.0,
0.6366,3.079280917812741,3.079280917812741,3.1535566989772836,0.0,0.0,0.0,3.104039511534255,0.0,0.0,0.0,0.0,0.0,0.0,0.0,0.0,0.0,0.0,0.0,0.0,0.0,0.0,
0.6553,3.0796519877074195,3.0796519877074195,3.1539524331430924,0.0,0.0,0.0,3.104418802852644,0.0,0.0,0.0,0.0,0.0,0.0,0.0,0.0,0.0,0.0,0.0,0.0,0.0,0.0,
0.6741,3.0800360618603535,3.0800360618603535,3.1543620402382557,0.0,0.0,0.0,3.1048113879863206,0.0,0.0,0.0,0.0,0.0,0.0,0.0,0.0,0.0,0.0,0.0,0.0,0.0,0.0,
0.6928,3.080429070874906,3.080429070874906,3.1547811807100485,0.0,0.0,0.0,3.10521310748662,0.0,0.0,0.0,0.0,0.0,0.0,0.0,0.0,0.0,0.0,0.0,0.0,0.0,0.0,
0.7115,3.0808330453686374,3.0808330453686374,3.1552120205424736,0.0,0.0,0.0,3.10562603709325,0.0,0.0,0.0,0.0,0.0,0.0,0.0,0.0,0.0,0.0,0.0,0.0,0.0,0.0,
0.7302,3.0812480027463094,3.0812480027463094,3.1556545786929555,0.0,0.0,0.0,3.1060501947285246,0.0,0.0,0.0,0.0,0.0,0.0,0.0,0.0,0.0,0.0,0.0,0.0,0.0,0.0,
0.749,3.0816762683602126,3.0816762683602126,3.15611133563406,0.0,0.0,0.0,3.1064879574514954,0.0,0.0,0.0,0.0,0.0,0.0,0.0,0.0,0.0,0.0,0.0,0.0,0.0,0.0,
0.7677,3.082113304668571,3.082113304668571,3.156577452373982,0.0,0.0,0.0,3.1069346872370414,0.0,0.0,0.0,0.0,0.0,0.0,0.0,0.0,0.0,0.0,0.0,0.0,0.0,0.0,
0.7864,3.082561379141678,3.082561379141678,3.157055347647394,0.0,0.0,0.0,3.1073927019769165,0.0,0.0,0.0,0.0,0.0,0.0,0.0,0.0,0.0,0.0,0.0,0.0,0.0,0.0,
0.8051,3.083020511171062,3.083020511171062,3.1575450425779694,0.0,0.0,0.0,3.107862021640031,0.0,0.0,0.0,0.0,0.0,0.0,0.0,0.0,0.0,0.0,0.0,0.0,0.0,0.0,
0.8239,3.0834932649534457,3.0834932649534457,3.158049272558772,0.0,0.0,0.0,3.1083452674885543,0.0,0.0,0.0,0.0,0.0,0.0,0.0,0.0,0.0,0.0,0.0,0.0,0.0,0.0,
0.8426,3.0839746316843404,3.0839746316843404,3.1585626957637007,0.0,0.0,0.0,3.108837319710794,0.0,0.0,0.0,0.0,0.0,0.0,0.0,0.0,0.0,0.0,0.0,0.0,0.0,0.0,
0.8613,3.084467117283507,3.084467117283507,3.159087985418099,0.0,0.0,0.0,3.1093407399950377,0.0,0.0,0.0,0.0,0.0,0.0,0.0,0.0,0.0,0.0,0.0,0.0,0.0,0.0,
0.88,3.0849707431703286,3.0849707431703286,3.1596251648572675,0.0,0.0,0.0,3.1098555503993084,0.0,0.0,0.0,0.0,0.0,0.0,0.0,0.0,0.0,0.0,0.0,0.0,0.0,0.0,
0.8988,3.085488314200155,3.085488314200155,3.1601772263719208,0.0,0.0,0.0,3.11038461825741,0.0,0.0,0.0,0.0,0.0,0.0,0.0,0.0,0.0,0.0,0.0,0.0,0.0,0.0,
0.9175,3.0860143468484194,3.0860143468484194,3.160738321536032,0.0,0.0,0.0,3.110922338410957,0.0,0.0,0.0,0.0,0.0,0.0,0.0,0.0,0.0,0.0,0.0,0.0,0.0,0.0,
0.9362,3.086551587257595,3.086551587257595,3.1613113799980583,0.0,0.0,0.0,3.111471518171083,0.0,0.0,0.0,0.0,0.0,0.0,0.0,0.0,0.0,0.0,0.0,0.0,0.0,0.0,
0.9549,3.087100058920462,3.087100058920462,3.161896427355379,0.0,0.0,0.0,3.1120321817321006,0.0,0.0,0.0,0.0,0.0,0.0,0.0,0.0,0.0,0.0,0.0,0.0,0.0,0.0,
0.9737,3.0876628093464342,3.0876628093464342,3.1624967149712515,0.0,0.0,0.0,3.1126074445547065,0.0,0.0,0.0,0.0,0.0,0.0,0.0,0.0,0.0,0.0,0.0,0.0,0.0,0.0,
0.9924,3.088233876486467,3.088233876486467,3.1631058836755934,0.0,0.0,0.0,3.113191212216176,0.0,0.0,0.0,0.0,0.0,0.0,0.0,0.0,0.0,0.0,0.0,0.0,0.0,0.0,
1.0111,3.088816248659141,3.088816248659141,3.1637271216690706,0.0,0.0,0.0,3.113786539662451,0.0,0.0,0.0,0.0,0.0,0.0,0.0,0.0,0.0,0.0,0.0,0.0,0.0,0.0,
1.0298,3.089409951481123,3.089409951481123,3.1643604568670503,0.0,0.0,0.0,3.1143934532764326,0.0,0.0,0.0,0.0,0.0,0.0,0.0,0.0,0.0,0.0,0.0,0.0,0.0,0.0,
1.0486,3.0900182772967537,3.0900182772967537,3.1650094020826773,0.0,0.0,0.0,3.1150153188920613,0.0,0.0,0.0,0.0,0.0,0.0,0.0,0.0,0.0,0.0,0.0,0.0,0.0,0.0,
1.0673,3.09063478137307,3.09063478137307,3.165667082870364,0.0,0.0,0.0,3.1156455485388346,0.0,0.0,0.0,0.0,0.0,0.0,0.0,0.0,0.0,0.0,0.0,0.0,0.0,0.0,
1.086,3.091262696342675,3.091262696342675,3.1663369483134924,0.0,0.0,0.0,3.116287446999614,0.0,0.0,0.0,0.0,0.0,0.0,0.0,0.0,0.0,0.0,0.0,0.0,0.0,0.0,
1.1047,3.0919020500017647,3.0919020500017647,3.1670190287070343,0.0,0.0,0.0,3.1169410429035214,0.0,0.0,0.0,0.0,0.0,0.0,0.0,0.0,0.0,0.0,0.0,0.0,0.0,0.0,
1.1235,3.092556381900777,3.092556381900777,3.1677171008992246,0.0,0.0,0.0,3.1176099549002596,0.0,0.0,0.0,0.0,0.0,0.0,0.0,0.0,0.0,0.0,0.0,0.0,0.0,0.0,
1.1422,3.0932187600995036,3.0932187600995036,3.168423770240381,0.0,0.0,0.0,3.118287096813129,0.0,0.0,0.0,0.0,0.0,0.0,0.0,0.0,0.0,0.0,0.0,0.0,0.0,0.0,
1.1609,3.093892663871755,3.093892663871755,3.16914274923388,0.0,0.0,0.0,3.11897602565913,0.0,0.0,0.0,0.0,0.0,0.0,0.0,0.0,0.0,0.0,0.0,0.0,0.0,0.0,
1.1796,3.0945781232542147,3.0945781232542147,3.16987407062174,0.0,0.0,0.0,3.119676772376723,0.0,0.0,0.0,0.0,0.0,0.0,0.0,0.0,0.0,0.0,0.0,0.0,0.0,0.0,
1.1984,3.0952789275703183,3.0952789275703183,3.1706217780863435,0.0,0.0,0.0,3.12039321107566,0.0,0.0,0.0,0.0,0.0,0.0,0.0,0.0,0.0,0.0,0.0,0.0,0.0,0.0,
1.2171,3.095987652775617,3.095987652775617,3.171377951437438,0.0,0.0,0.0,3.1211177523295572,0.0,0.0,0.0,0.0,0.0,0.0,0.0,0.0,0.0,0.0,0.0,0.0,0.0,0.0,
1.2358,3.0967080273068603,3.0967080273068603,3.172146569348119,0.0,0.0,0.0,3.1218542079872798,0.0,0.0,0.0,0.0,0.0,0.0,0.0,0.0,0.0,0.0,0.0,0.0,0.0,0.0,
1.2545,3.0974400835078177,3.0974400835078177,3.172927667081294,0.0,0.0,0.0,3.122602611365643,0.0,0.0,0.0,0.0,0.0,0.0,0.0,0.0,0.0,0.0,0.0,0.0,0.0,0.0,
1.2732,3.0981838543093723,3.0981838543093723,3.1737212805415806,0.0,0.0,0.0,3.1233629963867755,0.0,0.0,0.0,0.0,0.0,0.0,0.0,0.0,0.0,0.0,0.0,0.0,0.0,0.0,
1.292,3.0989434450833735,3.0989434450833735,3.174531791135389,0.0,0.0,0.0,3.1241395604340454,0.0,0.0,0.0,0.0,0.0,0.0,0.0,0.0,0.0,0.0,0.0,0.0,0.0,0.0,
1.3107,3.0997108093496757,3.0997108093496757,3.175350613780718,0.0,0.0,0.0,3.124924077493356,0.0,0.0,0.0,0.0,0.0,0.0,0.0,0.0,0.0,0.0,0.0,0.0,0.0,0.0,
1.3294,3.1004899907656855,3.1004899907656855,3.1761820639729743,0.0,0.0,0.0,3.125720681834782,0.0,0.0,0.0,0.0,0.0,0.0,0.0,0.0,0.0,0.0,0.0,0.0,0.0,0.0,
1.3481,3.1012810246610196,3.1012810246610196,3.1770261802392907,0.0,0.0,0.0,3.126529409853777,0.0,0.0,0.0,0.0,0.0,0.0,0.0,0.0,0.0,0.0,0.0,0.0,0.0,0.0,
1.3669,3.1020882727014114,3.1020882727014114,3.1778876179328535,0.0,0.0,0.0,3.1273547211118924,0.0,0.0,0.0,0.0,0.0,0.0,0.0,0.0,0.0,0.0,0.0,0.0,0.0,0.0,
1.3856,3.10290318386366,3.10290318386366,3.178757252872199,0.0,0.0,0.0,3.128187873533173,0.0,0.0,0.0,0.0,0.0,0.0,0.0,0.0,0.0,0.0,0.0,0.0,0.0,0.0,
1.4043,3.1037300573825406,3.1037300573825406,3.1796396737189534,0.0,0.0,0.0,3.1290332628280115,0.0,0.0,0.0,0.0,0.0,0.0,0.0,0.0,0.0,0.0,0.0,0.0,0.0,0.0,
1.423,3.1045689310670506,3.1045689310670506,3.180534921712086,0.0,0.0,0.0,3.129890927948729,0.0,0.0,0.0,0.0,0.0,0.0,0.0,0.0,0.0,0.0,0.0,0.0,0.0,0.0,
1.4418,3.105424426122541,3.105424426122541,3.1814479296931037,0.0,0.0,0.0,3.1307655939793952,0.0,0.0,0.0,0.0,0.0,0.0,0.0,0.0,0.0,0.0,0.0,0.0,0.0,0.0,
1.4605,3.10628748079318,3.10628748079318,3.182369027632094,0.0,0.0,0.0,3.1316479964061514,0.0,0.0,0.0,0.0,0.0,0.0,0.0,0.0,0.0,0.0,0.0,0.0,0.0,0.0,
1.4792,3.1071626530871996,3.1071626530871996,3.1833030808441296,0.0,0.0,0.0,3.1325427956728427,0.0,0.0,0.0,0.0,0.0,0.0,0.0,0.0,0.0,0.0,0.0,0.0,0.0,0.0,
1.4979,3.10804998338041,3.10804998338041,3.1842501333770223,0.0,0.0,0.0,3.133450033379281,0.0,0.0,0.0,0.0,0.0,0.0,0.0,0.0,0.0,0.0,0.0,0.0,0.0,0.0,
1.5167,3.1089543558879127,3.1089543558879127,3.1852153993475607,0.0,0.0,0.0,3.1343747037077954,0.0,0.0,0.0,0.0,0.0,0.0,0.0,0.0,0.0,0.0,0.0,0.0,0.0,0.0,
1.5354,3.1098661915057972,3.1098661915057972,3.186188655662867,0.0,0.0,0.0,3.1353070128914875,0.0,0.0,0.0,0.0,0.0,0.0,0.0,0.0,0.0,0.0,0.0,0.0,0.0,0.0,
1.5541,3.110790310434609,3.110790310434609,3.187175048022389,0.0,0.0,0.0,3.1362518896305356,0.0,0.0,0.0,0.0,0.0,0.0,0.0,0.0,0.0,0.0,0.0,0.0,0.0,0.0,
1.5728,3.111726755711606,3.111726755711606,3.1881746233878068,0.0,0.0,0.0,3.13720937827034,0.0,0.0,0.0,0.0,0.0,0.0,0.0,0.0,0.0,0.0,0.0,0.0,0.0,0.0,
1.5916,3.112680678264446,3.112680678264446,3.1891928811931627,0.0,0.0,0.0,3.1381847459073513,0.0,0.0,0.0,0.0,0.0,0.0,0.0,0.0,0.0,0.0,0.0,0.0,0.0,0.0,
1.6103,3.1136419745848687,3.1136419745848687,3.190219037585531,0.0,0.0,0.0,3.139167662251756,0.0,0.0,0.0,0.0,0.0,0.0,0.0,0.0,0.0,0.0,0.0,0.0,0.0,0.0,
1.629,3.1146157307153692,3.1146157307153692,3.1912585226325265,0.0,0.0,0.0,3.1401633280210883,0.0,0.0,0.0,0.0,0.0,0.0,0.0,0.0,0.0,0.0,0.0,0.0,0.0,0.0,
1.6477,3.1156019924571914,3.1156019924571914,3.1923113863234973,0.0,0.0,0.0,3.1411717904126264,0.0,0.0,0.0,0.0,0.0,0.0,0.0,0.0,0.0,0.0,0.0,0.0,0.0,0.0,
1.6665,3.1166061813949586,3.1166061813949586,3.1933834177164413,0.0,0.0,0.0,3.1421985935021195,0.0,0.0,0.0,0.0,0.0,0.0,0.0,0.0,0.0,0.0,0.0,0.0,0.0,0.0,
1.6852,3.1176176621025586,3.1176176621025586,3.194463264000747,0.0,0.0,0.0,3.1432328627352883,0.0,0.0,0.0,0.0,0.0,0.0,0.0,0.0,0.0,0.0,0.0,0.0,0.0,0.0,
1.7039,3.1186417903538537,3.1186417903538537,3.195556643858806,0.0,0.0,0.0,3.1442800748555046,0.0,0.0,0.0,0.0,0.0,0.0,0.0,0.0,0.0,0.0,0.0,0.0,0.0,0.0,
1.7226,3.119678614824868,3.119678614824868,3.1966636104306554,0.0,0.0,0.0,3.1453402800267973,0.0,0.0,0.0,0.0,0.0,0.0,0.0,0.0,0.0,0.0,0.0,0.0,0.0,0.0,
1.7414,3.120733831953271,3.120733831953271,3.1977902469808126,0.0,0.0,0.0,3.146419303629118,0.0,0.0,0.0,0.0,0.0,0.0,0.0,0.0,0.0,0.0,0.0,0.0,0.0,0.0,
1.7601,3.1217962664064167,3.1217962664064167,3.1989246230229855,0.0,0.0,0.0,3.14750571861194,0.0,0.0,0.0,0.0,0.0,0.0,0.0,0.0,0.0,0.0,0.0,0.0,0.0,0.0,
1.7788,3.1228715478285074,3.1228715478285074,3.2000727503744053,0.0,0.0,0.0,3.1486052820104735,0.0,0.0,0.0,0.0,0.0,0.0,0.0,0.0,0.0,0.0,0.0,0.0,0.0,0.0,
1.7975,3.1239597278900675,3.1239597278900675,3.201234685458862,0.0,0.0,0.0,3.149718047079666,0.0,0.0,0.0,0.0,0.0,0.0,0.0,0.0,0.0,0.0,0.0,0.0,0.0,0.0,
1.8163,3.1250667823399505,3.1250667823399505,3.202416810617472,0.0,0.0,0.0,3.1508501250991245,0.0,0.0,0.0,0.0,0.0,0.0,0.0,0.0,0.0,0.0,0.0,0.0,0.0,0.0,
1.835,3.1261809874562725,3.1261809874562725,3.203606608428837,0.0,0.0,0.0,3.15198952778046,0.0,0.0,0.0,0.0,0.0,0.0,0.0,0.0,0.0,0.0,0.0,0.0,0.0,0.0,
1.8537,3.1273082511522836,3.1273082511522836,3.2048103886501074,0.0,0.0,0.0,3.1531422969848912,0.0,0.0,0.0,0.0,0.0,0.0,0.0,0.0,0.0,0.0,0.0,0.0,0.0,0.0,
1.8724,3.1284486282225097,3.1284486282225097,3.2060282111326615,0.0,0.0,0.0,3.15430848919256,0.0,0.0,0.0,0.0,0.0,0.0,0.0,0.0,0.0,0.0,0.0,0.0,0.0,0.0,
1.8911,3.1296021742627733,3.1296021742627733,3.2072601366073608,0.0,0.0,0.0,3.1554881617109687,0.0,0.0,0.0,0.0,0.0,0.0,0.0,0.0,0.0,0.0,0.0,0.0,0.0,0.0,
1.9099,3.1307752207519255,3.1307752207519255,3.2085129284655545,0.0,0.0,0.0,3.156687789989802,0.0,0.0,0.0,0.0,0.0,0.0,0.0,0.0,0.0,0.0,0.0,0.0,0.0,0.0,
1.9286,3.1319553459548026,3.1319553459548026,3.2097733219353595,0.0,0.0,0.0,3.157894671281655,0.0,0.0,0.0,0.0,0.0,0.0,0.0,0.0,0.0,0.0,0.0,0.0,0.0,0.0,
1.9473,3.1331488121254156,3.1331488121254156,3.21104800630831,0.0,0.0,0.0,3.1591152101863806,0.0,0.0,0.0,0.0,0.0,0.0,0.0,0.0,0.0,0.0,0.0,0.0,0.0,0.0,
1.966,3.134355678159868,3.134355678159868,3.212337045938955,0.0,0.0,0.0,3.160349467419564,0.0,0.0,0.0,0.0,0.0,0.0,0.0,0.0,0.0,0.0,0.0,0.0,0.0,0.0,
1.9848,3.135582565896566,3.135582565896566,3.2136475153703,0.0,0.0,0.0,3.161604215721144,0.0,0.0,0.0,0.0,0.0,0.0,0.0,0.0,0.0,0.0,0.0,0.0,0.0,0.0,
2.0035,3.136816484211819,3.136816484211819,3.214965539963366,0.0,0.0,0.0,3.1628661694623346,0.0,0.0,0.0,0.0,0.0,0.0,0.0,0.0,0.0,0.0,0.0,0.0,0.0,0.0,
2.0222,3.1380639845345857,3.1380639845345857,3.2162981188685276,0.0,0.0,0.0,3.164142029312566,0.0,0.0,0.0,0.0,0.0,0.0,0.0,0.0,0.0,0.0,0.0,0.0,0.0,0.0,
2.0409,3.1393251292150857,3.1393251292150857,3.2176453202351007,0.0,0.0,0.0,3.1654318595550905,0.0,0.0,0.0,0.0,0.0,0.0,0.0,0.0,0.0,0.0,0.0,0.0,0.0,0.0,
2.0597,3.1406068358453325,3.1406068358453325,3.219014535656135,0.0,0.0,0.0,3.166742735782267,0.0,0.0,0.0,0.0,0.0,0.0,0.0,0.0,0.0,0.0,0.0,0.0,0.0,0.0,
2.0784,3.1418955336733805,3.1418955336733805,3.2203912694381183,0.0,0.0,0.0,3.168060778928293,0.0,0.0,0.0,0.0,0.0,0.0,0.0,0.0,0.0,0.0,0.0,0.0,0.0,0.0,
2.0971,3.1431980686293155,3.1431980686293155,3.221782836414186,0.0,0.0,0.0,3.169392991224272,0.0,0.0,0.0,0.0,0.0,0.0,0.0,0.0,0.0,0.0,0.0,0.0,0.0,0.0,
2.1158,3.1445145066837026,3.1445145066837026,3.2231893087134824,0.0,0.0,0.0,3.170739440693629,0.0,0.0,0.0,0.0,0.0,0.0,0.0,0.0,0.0,0.0,0.0,0.0,0.0,0.0,
2.1346,3.145852066894132,3.145852066894132,3.22461840122686,0.0,0.0,0.0,3.172107511671708,0.0,0.0,0.0,0.0,0.0,0.0,0.0,0.0,0.0,0.0,0.0,0.0,0.0,0.0,
2.1533,3.147196588046462,3.147196588046462,3.2260549853665097,0.0,0.0,0.0,3.173482720486478,0.0,0.0,0.0,0.0,0.0,0.0,0.0,0.0,0.0,0.0,0.0,0.0,0.0,0.0,
2.172,3.148555216213103,3.148555216213103,3.227506697818407,0.0,0.0,0.0,3.1748723767482043,0.0,0.0,0.0,0.0,0.0,0.0,0.0,0.0,0.0,0.0,0.0,0.0,0.0,0.0,
2.1907,3.149928021164402,3.149928021164402,3.228973614891516,0.0,0.0,0.0,3.176276552406773,0.0,0.0,0.0,0.0,0.0,0.0,0.0,0.0,0.0,0.0,0.0,0.0,0.0,0.0,
2.2095,3.151322529469253,3.151322529469253,3.2304637813896857,0.0,0.0,0.0,3.177702946776064,0.0,0.0,0.0,0.0,0.0,0.0,0.0,0.0,0.0,0.0,0.0,0.0,0.0,0.0,
2.2282,3.152723977995044,3.152723977995044,3.231961423306846,0.0,0.0,0.0,3.1791364597656444,0.0,0.0,0.0,0.0,0.0,0.0,0.0,0.0,0.0,0.0,0.0,0.0,0.0,0.0,
2.2469,3.154139818928079,3.154139818928079,3.2334745057156282,0.0,0.0,0.0,3.180584714523929,0.0,0.0,0.0,0.0,0.0,0.0,0.0,0.0,0.0,0.0,0.0,0.0,0.0,0.0,
2.2656,3.1555701260325573,3.1555701260325573,3.2350031093210605,0.0,0.0,0.0,3.182047787128725,0.0,0.0,0.0,0.0,0.0,0.0,0.0,0.0,0.0,0.0,0.0,0.0,0.0,0.0,
2.2844,3.157022739785536,3.157022739785536,3.2365556158420596,0.0,0.0,0.0,3.183533698471044,0.0,0.0,0.0,0.0,0.0,0.0,0.0,0.0,0.0,0.0,0.0,0.0,0.0,0.0,
2.3031,3.1584822830263355,3.1584822830263355,3.238115592611683,0.0,0.0,0.0,3.1850267195547843,0.0,0.0,0.0,0.0,0.0,0.0,0.0,0.0,0.0,0.0,0.0,0.0,0.0,0.0,
2.3218,3.1599565203743443,3.1599565203743443,3.23969134000596,0.0,0.0,0.0,3.186534793584883,0.0,0.0,0.0,0.0,0.0,0.0,0.0,0.0,0.0,0.0,0.0,0.0,0.0,0.0,
2.3405,3.1614455297974873,3.1614455297974873,3.241282943360029,0.0,0.0,0.0,3.188058000985001,0.0,0.0,0.0,0.0,0.0,0.0,0.0,0.0,0.0,0.0,0.0,0.0,0.0,0.0,
2.3593,3.1629574724477796,3.1629574724477796,3.242899128717561,0.0,0.0,0.0,3.1896046912043734,0.0,0.0,0.0,0.0,0.0,0.0,0.0,0.0,0.0,0.0,0.0,0.0,0.0,0.0,
2.378,3.164476344340361,3.164476344340361,3.244522790752677,0.0,0.0,0.0,3.1911584931444668,0.0,0.0,0.0,0.0,0.0,0.0,0.0,0.0,0.0,0.0,0.0,0.0,0.0,0.0,
2.3967,3.166010229213013,3.166010229213013,3.2461625724650065,0.0,0.0,0.0,3.1927276769636777,0.0,0.0,0.0,0.0,0.0,0.0,0.0,0.0,0.0,0.0,0.0,0.0,0.0,0.0,
2.4154,3.167559209464476,3.167559209464476,3.247818564073142,0.0,0.0,0.0,3.194312327667365,0.0,0.0,0.0,0.0,0.0,0.0,0.0,0.0,0.0,0.0,0.0,0.0,0.0,0.0,
2.4342,3.1691317740788993,3.1691317740788993,3.249499843785843,0.0,0.0,0.0,3.1959211306478807,0.0,0.0,0.0,0.0,0.0,0.0,0.0,0.0,0.0,0.0,0.0,0.0,0.0,0.0,
