energies(eV),real_xx,real_yy,real_zz,real_xy,real_yz,real_xz,real_ave,imag_xx,imag_yy,imag_zz,imag_xy,imag_yz,imag_xz,imag_ave,absorption_xx,absorption_yy,absorption_zz,absorption_xy,absorption_yz,absorption_xz,absorption_ave,band_gap
0.0,3.686952326986685,3.6357288929045133,3.6455910427269416,0.0,0.0,0.008630326146177708,3.6560907542060463,0.0,0.0,0.0,0.0,0.0,0.0,0.0,0.0,0.0,0.0,0.0,0.0,0.0,0.0,5.344399999999999
0.0192,3.686964137851748,3.6357405450766422,3.645602633651342,0.0,0.0,0.008630400534851375,3.656102438859911,0.0,0.0,0.0,0.0,0.0,0.0,0.0,0.0,0.0,0.0,0.0,0.0,0.0,0.0,
0.0384,3.686999571377939,3.6357755025262497,3.6456374073425217,0.0,0.0,0.008630623708392326,3.6561374937489037,0.0,0.0,0.0,0.0,0.0,0.0,0.0,0.0,0.0,0.0,0.0,0.0,0.0,0.0,
0.0576,3.687058630358571,3.6358337680532653,3.6456953665546474,0.0,0.0,0.008630995689363116,3.656195921655495,0.0,0.0,0.0,0.0,0.0,0.0,0.0,0.0,0.0,0.0,0.0,0.0,0.0,0.0,
0.0768,3.6871413194498235,3.635915346324941,3.645776515878767,0.0,0.0,0.008631516515374252,3.656277727217844,0.0,0.0,0.0,0.0,0.0,0.0,0.0,0.0,0.0,0.0,0.0,0.0,0.0,0.0,
0.0959,3.687247030145341,3.636019637110913,3.6458802581693344,0.0,0.0,0.008632182365105165,3.6563823084751963,0.0,0.0,0.0,0.0,0.0,0.0,0.0,0.0,0.0,0.0,0.0,0.0,0.0,0.0,
0.1151,3.6873768777078997,3.6361477408257357,3.646007687960782,0.0,0.0,0.008633000278212484,3.6565107688314726,0.0,0.0,0.0,0.0,0.0,0.0,0.0,0.0,0.0,0.0,0.0,0.0,0.0,0.0,
0.1343,3.687530380481972,3.6362991824460686,3.6461583326139237,0.0,0.0,0.008633967239130477,3.6566626318473214,0.0,0.0,0.0,0.0,0.0,0.0,0.0,0.0,0.0,0.0,0.0,0.0,0.0,0.0,
0.1535,3.6877075505808548,3.636473974114297,3.646332204072648,0.0,0.0,0.008635083345723415,3.656837909589266,0.0,0.0,0.0,0.0,0.0,0.0,0.0,0.0,0.0,0.0,0.0,0.0,0.0,0.0,
0.1727,3.6879084019905943,3.636672129850238,3.6465293161274523,0.0,0.0,0.008636348710993518,3.657036615989428,0.0,0.0,0.0,0.0,0.0,0.0,0.0,0.0,0.0,0.0,0.0,0.0,0.0,0.0,
0.1919,3.6881329505731006,3.636893665554298,3.64674968441856,0.0,0.0,0.008637763463110914,3.6572587668486527,0.0,0.0,0.0,0.0,0.0,0.0,0.0,0.0,0.0,0.0,0.0,0.0,0.0,0.0,
0.2111,3.688381214070007,3.6371385990114202,3.6469933264397247,0.0,0.0,0.008639327745447433,3.6575043798403843,0.0,0.0,0.0,0.0,0.0,0.0,0.0,0.0,0.0,0.0,0.0,0.0,0.0,0.0,
0.2303,3.6886532121067397,3.637406949895179,3.6472602615423413,0.0,0.0,0.008641041716615045,3.6577734745147534,0.0,0.0,0.0,0.0,0.0,0.0,0.0,0.0,0.0,0.0,0.0,0.0,0.0,0.0,
0.2495,3.688948966197137,3.6376987397726093,3.6475505109398942,0.0,0.0,0.008642905550508017,3.6580660723032135,0.0,0.0,0.0,0.0,0.0,0.0,0.0,0.0,0.0,0.0,0.0,0.0,0.0,0.0,
0.2686,3.6892667738652873,3.6380122893451947,3.6478624039486163,0.0,0.0,0.008644908558289128,3.6583804890530325,0.0,0.0,0.0,0.0,0.0,0.0,0.0,0.0,0.0,0.0,0.0,0.0,0.0,0.0,
0.2878,3.689609988131745,3.63835090710935,3.6481992313041625,0.0,0.0,0.008647071917536466,3.658720042181752,0.0,0.0,0.0,0.0,0.0,0.0,0.0,0.0,0.0,0.0,0.0,0.0,0.0,0.0,
0.307,3.6899770342297704,3.638713039835372,3.6485594476759875,0.0,0.0,0.008649385752181927,3.6590831739137095,0.0,0.0,0.0,0.0,0.0,0.0,0.0,0.0,0.0,0.0,0.0,0.0,0.0,0.0,
0.3262,3.690367941271721,3.6390987167100124,3.6489430817710455,0.0,0.0,0.008651850297672042,3.6594699132509265,0.0,0.0,0.0,0.0,0.0,0.0,0.0,0.0,0.0,0.0,0.0,0.0,0.0,0.0,
0.3454,3.6907827402881033,3.6395079688437737,3.649350164187941,0.0,0.0,0.008654465805007958,3.659880291106606,0.0,0.0,0.0,0.0,0.0,0.0,0.0,0.0,0.0,0.0,0.0,0.0,0.0,0.0,
0.3646,3.691221464234779,3.639940829278339,3.6497807274242455,0.0,0.0,0.008657232540813072,3.6603143403124547,0.0,0.0,0.0,0.0,0.0,0.0,0.0,0.0,0.0,0.0,0.0,0.0,0.0,0.0,
0.3838,3.6916841480007943,3.6403973329946107,3.650234805884205,0.0,0.0,0.008660150787404335,3.660772095626536,0.0,0.0,0.0,0.0,0.0,0.0,0.0,0.0,0.0,0.0,0.0,0.0,0.0,0.0,
0.403,3.69217082841665,3.6408775169210794,3.6507124358869225,0.0,0.0,0.008663220842868143,3.661253593741551,0.0,0.0,0.0,0.0,0.0,0.0,0.0,0.0,0.0,0.0,0.0,0.0,0.0,0.0,
0.4222,3.6926815442629257,3.6413814199427184,3.651213655675005,0.0,0.0,0.008666443021140476,3.66175887329355,0.0,0.0,0.0,0.0,0.0,0.0,0.0,0.0,0.0,0.0,0.0,0.0,0.0,0.0,
0.4413,3.693213488459977,3.6419062730403367,3.651735710543715,0.0,0.0,0.008669799680355313,3.6622851573480095,0.0,0.0,0.0,0.0,0.0,0.0,0.0,0.0,0.0,0.0,0.0,0.0,0.0,0.0,
0.4605,3.6937722736227308,3.642457614693741,3.6522841089660907,0.0,0.0,0.008673326313128742,3.662837999094188,0.0,0.0,0.0,0.0,0.0,0.0,0.0,0.0,0.0,0.0,0.0,0.0,0.0,0.0,
0.4797,3.694355222115013,3.6430328036943047,3.652856223301963,0.0,0.0,0.008677006104557015,3.6634147497037604,0.0,0.0,0.0,0.0,0.0,0.0,0.0,0.0,0.0,0.0,0.0,0.0,0.0,0.0,
0.4989,3.6949623806043164,3.6436318868415762,3.653452099573957,0.0,0.0,0.008680839432780446,3.664015455673283,0.0,0.0,0.0,0.0,0.0,0.0,0.0,0.0,0.0,0.0,0.0,0.0,0.0,0.0,
0.5181,3.6955937977590474,3.6442549129435533,3.6540717857786795,0.0,0.0,0.008684826692256403,3.66464016549376,0.0,0.0,0.0,0.0,0.0,0.0,0.0,0.0,0.0,0.0,0.0,0.0,0.0,0.0,
0.5373,3.6962495242601157,3.6449019328285437,3.654715331898237,0.0,0.0,0.008688968293866358,3.665288929662299,0.0,0.0,0.0,0.0,0.0,0.0,0.0,0.0,0.0,0.0,0.0,0.0,0.0,0.0,
0.5565,3.6969296128131695,3.645572999357621,3.6553827899124265,0.0,0.0,0.008693264665028332,3.6659618006944057,0.0,0.0,0.0,0.0,0.0,0.0,0.0,0.0,0.0,0.0,0.0,0.0,0.0,0.0,
0.5757,3.6976341181611234,3.646268167437607,3.6560742138112032,0.0,0.0,0.008697716249813293,3.6666588331366445,0.0,0.0,0.0,0.0,0.0,0.0,0.0,0.0,0.0,0.0,0.0,0.0,0.0,0.0,
0.5948,3.6983592368303153,3.6469836848558495,3.6567858709972993,0.0,0.0,0.008702299108818676,3.6673762642278214,0.0,0.0,0.0,0.0,0.0,0.0,0.0,0.0,0.0,0.0,0.0,0.0,0.0,0.0,
0.614,3.6991126202835,3.6477271027191653,3.657525271171678,0.0,0.0,0.008707061705728514,3.668121664724781,0.0,0.0,0.0,0.0,0.0,0.0,0.0,0.0,0.0,0.0,0.0,0.0,0.0,0.0,
0.6332,3.699890596796109,3.648494798941809,3.6582888110770257,0.0,0.0,0.008711980947012615,3.6688914022716475,0.0,0.0,0.0,0.0,0.0,0.0,0.0,0.0,0.0,0.0,0.0,0.0,0.0,0.0,
0.6524,3.7006932293865638,3.649286836742685,3.659076552869661,0.0,0.0,0.008717057344530484,3.6696855396663026,0.0,0.0,0.0,0.0,0.0,0.0,0.0,0.0,0.0,0.0,0.0,0.0,0.0,0.0,
0.6716,3.7015205831817597,3.650103281459275,3.6598885607867624,0.0,0.0,0.008722291427451566,3.6705041418092654,0.0,0.0,0.0,0.0,0.0,0.0,0.0,0.0,0.0,0.0,0.0,0.0,0.0,0.0,
0.6908,3.7023727254329595,3.6509442005637878,3.660724901162294,0.0,0.0,0.008727683742402669,3.6713472757196803,0.0,0.0,0.0,0.0,0.0,0.0,0.0,0.0,0.0,0.0,0.0,0.0,0.0,0.0,
0.71,3.703249725532182,3.651809663680077,3.661585642443237,0.0,0.0,0.008733234853619458,3.6722150105518323,0.0,0.0,0.0,0.0,0.0,0.0,0.0,0.0,0.0,0.0,0.0,0.0,0.0,0.0,
0.7292,3.7041516550292286,3.652699742600958,3.662470855206535,0.0,0.0,0.008738945343104525,3.673107417612241,0.0,0.0,0.0,0.0,0.0,0.0,0.0,0.0,0.0,0.0,0.0,0.0,0.0,0.0,
0.7484,3.705078587649255,3.6536145113063014,3.6633806121766277,0.0,0.0,0.008744815810789704,3.6740245703773944,0.0,0.0,0.0,0.0,0.0,0.0,0.0,0.0,0.0,0.0,0.0,0.0,0.0,0.0,
0.7675,3.7060255758134435,3.654549088278903,3.664310057791336,0.0,0.0,0.00875081504578451,3.674961573961228,0.0,0.0,0.0,0.0,0.0,0.0,0.0,0.0,0.0,0.0,0.0,0.0,0.0,0.0,
0.7867,3.7070026134146974,3.6555133377296456,3.665269001199771,0.0,0.0,0.008757006500798902,3.675928317448038,0.0,0.0,0.0,0.0,0.0,0.0,0.0,0.0,0.0,0.0,0.0,0.0,0.0,0.0,
0.8059,3.7080048881269665,3.6565025117898116,3.666252719638127,0.0,0.0,0.008763359839640793,3.6769200398516353,0.0,0.0,0.0,0.0,0.0,0.0,0.0,0.0,0.0,0.0,0.0,0.0,0.0,0.0,
0.8251,3.709032482552812,3.6575166933677865,3.6672612945957526,0.0,0.0,0.008769875735603725,3.67793682350545,0.0,0.0,0.0,0.0,0.0,0.0,0.0,0.0,0.0,0.0,0.0,0.0,0.0,0.0,
0.8443,3.7100854815670052,3.658555967658165,3.668294809805774,0.0,0.0,0.008776554880809563,3.678978753010315,0.0,0.0,0.0,0.0,0.0,0.0,0.0,0.0,0.0,0.0,0.0,0.0,0.0,0.0,
0.8635,3.711163972337694,3.6596204221635418,3.669353351266261,0.0,0.0,0.008783397986405496,3.6800459152558322,0.0,0.0,0.0,0.0,0.0,0.0,0.0,0.0,0.0,0.0,0.0,0.0,0.0,0.0,
0.8827,3.712268044348408,3.6607101467169763,3.6704370072619192,0.0,0.0,0.008790405782768018,3.681138399442434,0.0,0.0,0.0,0.0,0.0,0.0,0.0,0.0,0.0,0.0,0.0,0.0,0.0,0.0,
0.9019,3.7133977894205077,3.6618252335050947,3.67154586838665,0.0,0.0,0.008797579019713094,3.682256297104084,0.0,0.0,0.0,0.0,0.0,0.0,0.0,0.0,0.0,0.0,0.0,0.0,0.0,0.0,
0.9211,3.714553301736505,3.6629657770918738,3.6726800275666127,0.0,0.0,0.008804918466712459,3.683399702131664,0.0,0.0,0.0,0.0,0.0,0.0,0.0,0.0,0.0,0.0,0.0,0.0,0.0,0.0,
0.9402,3.715728457690971,3.6641257346497635,3.673833474796743,0.0,0.0,0.008812385383026507,3.6845625557124926,0.0,0.0,0.0,0.0,0.0,0.0,0.0,0.0,0.0,0.0,0.0,0.0,0.0,0.0,
0.9594,3.71693566112359,3.6653173512870074,3.6750183852915965,0.0,0.0,0.008820058762156902,3.685757132567398,0.0,0.0,0.0,0.0,0.0,0.0,0.0,0.0,0.0,0.0,0.0,0.0,0.0,0.0,
0.9786,3.718168928222457,3.6665347223913884,3.6762288863277477,0.0,0.0,0.008827900775578464,3.6869775123138644,0.0,0.0,0.0,0.0,0.0,0.0,0.0,0.0,0.0,0.0,0.0,0.0,0.0,0.0,
0.9978,3.71942836284782,3.6677779522760643,3.6774650803927096,0.0,0.0,0.008835912273574293,3.6882237985055313,0.0,0.0,0.0,0.0,0.0,0.0,0.0,0.0,0.0,0.0,0.0,0.0,0.0,0.0,
1.017,3.720714071347628,3.669047147761384,3.6787270724321557,0.0,0.0,0.008844094127264312,3.6894960971803896,0.0,0.0,0.0,0.0,0.0,0.0,0.0,0.0,0.0,0.0,0.0,0.0,0.0,0.0,
1.0362,3.722026162584962,3.6703424182031843,3.680014969877438,0.0,0.0,0.00885244722886291,3.6907945168885283,0.0,0.0,0.0,0.0,0.0,0.0,0.0,0.0,0.0,0.0,0.0,0.0,0.0,0.0,
1.0554,3.7233647479664302,3.6716638755218147,3.6813288826736317,0.0,0.0,0.00886097249194395,3.6921191687206254,0.0,0.0,0.0,0.0,0.0,0.0,0.0,0.0,0.0,0.0,0.0,0.0,0.0,0.0,
1.0746,3.724729941471144,3.6730116342320147,3.6826689233086363,0.0,0.0,0.008869670851712771,3.693470166337265,0.0,0.0,0.0,0.0,0.0,0.0,0.0,0.0,0.0,0.0,0.0,0.0,0.0,0.0,
1.0938,3.726121859680664,3.674385811473526,3.6840352068427515,0.0,0.0,0.008878543265286741,3.6948476259989804,0.0,0.0,0.0,0.0,0.0,0.0,0.0,0.0,0.0,0.0,0.0,0.0,0.0,0.0,
1.1129,3.7275331626728647,3.6757791626890843,3.685420529088887,0.0,0.0,0.008887543134707677,3.6962442848169452,0.0,0.0,0.0,0.0,0.0,0.0,0.0,0.0,0.0,0.0,0.0,0.0,0.0,0.0,
1.1321,3.728978749833458,3.677206399890996,3.6868395158085057,0.0,0.0,0.008896765696856481,3.6976748885109867,0.0,0.0,0.0,0.0,0.0,0.0,0.0,0.0,0.0,0.0,0.0,0.0,0.0,0.0,
1.1513,3.7304514267132913,3.678660422454299,3.688285105705614,0.0,0.0,0.00890616531315774,3.6991323182910683,0.0,0.0,0.0,0.0,0.0,0.0,0.0,0.0,0.0,0.0,0.0,0.0,0.0,0.0,
1.1705,3.731951320604636,3.6801413583285014,3.6897574244303866,0.0,0.0,0.008915743031216295,3.700616701121175,0.0,0.0,0.0,0.0,0.0,0.0,0.0,0.0,0.0,0.0,0.0,0.0,0.0,0.0,
1.1897,3.7334785615639237,3.681649338254402,3.6912566003665903,0.0,0.0,0.008925499922069398,3.7021281667283055,0.0,0.0,0.0,0.0,0.0,0.0,0.0,0.0,0.0,0.0,0.0,0.0,0.0,0.0,
1.2089,3.735033282446821,3.6831844958000817,3.692782764666527,0.0,0.0,0.00893543708051644,3.7036668476378103,0.0,0.0,0.0,0.0,0.0,0.0,0.0,0.0,0.0,0.0,0.0,0.0,0.0,0.0,
1.2281,3.736615618944106,3.6847469673978996,3.694336051286779,0.0,0.0,0.008945555625458408,3.705232879209595,0.0,0.0,0.0,0.0,0.0,0.0,0.0,0.0,0.0,0.0,0.0,0.0,0.0,0.0,
1.2473,3.73822570961864,3.6863368923823985,3.6959165970250596,0.0,0.0,0.008955856700245944,3.706826399675366,0.0,0.0,0.0,0.0,0.0,0.0,0.0,0.0,0.0,0.0,0.0,0.0,0.0,0.0,
1.2665,3.7398636959431633,3.687954413029323,3.6975245415578484,0.0,0.0,0.008966341473037058,3.7084475501767784,0.0,0.0,0.0,0.0,0.0,0.0,0.0,0.0,0.0,0.0,0.0,0.0,0.0,0.0,
1.2856,3.7415209722250515,3.689591033405015,3.6991514377250967,0.0,0.0,0.008976955084928719,3.7100878144517204,0.0,0.0,0.0,0.0,0.0,0.0,0.0,0.0,0.0,0.0,0.0,0.0,0.0,0.0,
1.3048,3.7432150389058054,3.6912640385238533,3.7008144660012534,0.0,0.0,0.008987809886751517,3.7117645144769704,0.0,0.0,0.0,0.0,0.0,0.0,0.0,0.0,0.0,0.0,0.0,0.0,0.0,0.0,
1.324,3.744937442716329,3.6929650833879997,3.702505328985031,0.0,0.0,0.008998852037068896,3.713469285029787,0.0,0.0,0.0,0.0,0.0,0.0,0.0,0.0,0.0,0.0,0.0,0.0,0.0,0.0,
1.3432,3.7466883371515953,3.6946943224319266,3.7042241782496546,0.0,0.0,0.009010082806904773,3.7152022792777255,0.0,0.0,0.0,0.0,0.0,0.0,0.0,0.0,0.0,0.0,0.0,0.0,0.0,0.0,
1.3624,3.7484678788208066,3.6964519132416647,3.7059711684508985,0.0,0.0,0.009021503494026918,3.716963653504456,0.0,0.0,0.0,0.0,0.0,0.0,0.0,0.0,0.0,0.0,0.0,0.0,0.0,0.0,
1.3816,3.7502762274916166,3.6982380166002757,3.707746457371117,0.0,0.0,0.009033115423366515,3.718753567154337,0.0,0.0,0.0,0.0,0.0,0.0,0.0,0.0,0.0,0.0,0.0,0.0,0.0,0.0,
1.4008,3.752113546135342,3.7000527965345267,3.7095502059643053,0.0,0.0,0.009044919947448713,3.7205721828780582,0.0,0.0,0.0,0.0,0.0,0.0,0.0,0.0,0.0,0.0,0.0,0.0,0.0,0.0,
1.42,3.753980000973395,3.7018964203627553,3.7113825784025707,0.0,0.0,0.0090569184468352,3.7224196665795737,0.0,0.0,0.0,0.0,0.0,0.0,0.0,0.0,0.0,0.0,0.0,0.0,0.0,0.0,
1.4392,3.7558757615249703,3.7037690587439567,3.713243742123523,0.0,0.0,0.009069112330577824,3.7242961874641503,0.0,0.0,0.0,0.0,0.0,0.0,0.0,0.0,0.0,0.0,0.0,0.0,0.0,0.0,
1.4583,3.7577908966992988,3.7056609044589996,3.715123948146455,0.0,0.0,0.009081437989353847,3.7261919164349173,0.0,0.0,0.0,0.0,0.0,0.0,0.0,0.0,0.0,0.0,0.0,0.0,0.0,0.0,
1.4775,3.7597456357571835,3.7075919441249092,3.7170430578450033,0.0,0.0,0.009094025948656836,3.7281268792423656,0.0,0.0,0.0,0.0,0.0,0.0,0.0,0.0,0.0,0.0,0.0,0.0,0.0,0.0,
1.4967,3.7617302084224855,3.70955252992346,3.718991480292465,0.0,0.0,0.009106813687260991,3.7300914062128037,0.0,0.0,0.0,0.0,0.0,0.0,0.0,0.0,0.0,0.0,0.0,0.0,0.0,0.0,
1.5159,3.7637447978882177,3.7115428463747957,3.7209693964705,0.0,0.0,0.009119802732807495,3.7320856802445044,0.0,0.0,0.0,0.0,0.0,0.0,0.0,0.0,0.0,0.0,0.0,0.0,0.0,0.0,
1.5351,3.7657895909019734,3.7135630816046707,3.7229769908826116,0.0,0.0,0.009132994643884111,3.734109887796419,0.0,0.0,0.0,0.0,0.0,0.0,0.0,0.0,0.0,0.0,0.0,0.0,0.0,0.0,
1.5543,3.7678647778213388,3.7156134274017774,3.725014451609465,0.0,0.0,0.009146391010556676,3.7361642189441944,0.0,0.0,0.0,0.0,0.0,0.0,0.0,0.0,0.0,0.0,0.0,0.0,0.0,0.0,
1.5735,3.769970552670723,3.7176940792764444,3.7270819703655738,0.0,0.0,0.00915999345491501,3.73824886743758,0.0,0.0,0.0,0.0,0.0,0.0,0.0,0.0,0.0,0.0,0.0,0.0,0.0,0.0,
1.5927,3.7721071131996946,3.7198052365208123,3.7291797425575974,0.0,0.0,0.009173803631633753,3.740364030759368,0.0,0.0,0.0,0.0,0.0,0.0,0.0,0.0,0.0,0.0,0.0,0.0,0.0,0.0,
1.6118,3.774263291003896,3.7219358668114495,3.731296803601367,0.0,0.0,0.009187749664338624,3.742498653805571,0.0,0.0,0.0,0.0,0.0,0.0,0.0,0.0,0.0,0.0,0.0,0.0,0.0,0.0,
1.631,3.7764618683415283,3.7241084865481646,3.733455523756854,0.0,0.0,0.009201979298819055,3.744675292882182,0.0,0.0,0.0,0.0,0.0,0.0,0.0,0.0,0.0,0.0,0.0,0.0,0.0,0.0,
1.6502,3.7786918464635697,3.72631223173882,3.7356451052382535,0.0,0.0,0.009216421821790534,3.7468830611468813,0.0,0.0,0.0,0.0,0.0,0.0,0.0,0.0,0.0,0.0,0.0,0.0,0.0,0.0,
1.6694,3.780953438612696,3.7285473174160852,3.737865758812639,0.0,0.0,0.009231079023995803,3.749122171613807,0.0,0.0,0.0,0.0,0.0,0.0,0.0,0.0,0.0,0.0,0.0,0.0,0.0,0.0,
1.6886,3.7832468620710826,3.7308139627194814,3.7401176992532443,0.0,0.0,0.00924595273179587,3.7513928413479363,0.0,0.0,0.0,0.0,0.0,0.0,0.0,0.0,0.0,0.0,0.0,0.0,0.0,0.0,
1.7078,3.7855723382282376,3.733112390965768,3.7424011454072286,0.0,0.0,0.009261044807827508,3.7536952915337447,0.0,0.0,0.0,0.0,0.0,0.0,0.0,0.0,0.0,0.0,0.0,0.0,0.0,0.0,
1.727,3.787930092650637,3.7354428297209554,3.7447163202652107,0.0,0.0,0.009276357151678178,3.756029747545601,0.0,0.0,0.0,0.0,0.0,0.0,0.0,0.0,0.0,0.0,0.0,0.0,0.0,0.0,
1.7462,3.7903203551531526,3.737805510874301,3.7470634510327714,0.0,0.0,0.009291891700579176,3.758396439020075,0.0,0.0,0.0,0.0,0.0,0.0,0.0,0.0,0.0,0.0,0.0,0.0,0.0,0.0,
1.7654,3.792743359872251,3.7402006707141204,3.749442769203542,0.0,0.0,0.009307650430118249,3.760795599929971,0.0,0.0,0.0,0.0,0.0,0.0,0.0,0.0,0.0,0.0,0.0,0.0,0.0,0.0,
1.7845,3.7951864678935507,3.742615819617467,3.7518418650734033,0.0,0.0,0.009323551510649803,3.76321471752814,0.0,0.0,0.0,0.0,0.0,0.0,0.0,0.0,0.0,0.0,0.0,0.0,0.0,0.0,
1.8037,3.7976755034417686,3.745076491348321,3.7542860993088536,0.0,0.0,0.00933976349113689,3.7656793646996474,0.0,0.0,0.0,0.0,0.0,0.0,0.0,0.0,0.0,0.0,0.0,0.0,0.0,0.0,
1.8229,3.800198009005821,3.7475703765006116,3.756763240631655,0.0,0.0,0.009356205805558921,3.768177208712696,0.0,0.0,0.0,0.0,0.0,0.0,0.0,0.0,0.0,0.0,0.0,0.0,0.0,0.0,
1.8421,3.80275423675567,3.7500977297340095,3.759273538435146,0.0,0.0,0.009372880590228385,3.7707085016416086,0.0,0.0,0.0,0.0,0.0,0.0,0.0,0.0,0.0,0.0,0.0,0.0,0.0,0.0,
1.8613,3.805344443578276,3.752658810517363,3.761817246796253,0.0,0.0,0.009389790023672965,3.773273500297297,0.0,0.0,0.0,0.0,0.0,0.0,0.0,0.0,0.0,0.0,0.0,0.0,0.0,0.0,
1.8805,3.8079688911631107,3.7552538832174016,3.76439462456101,0.0,0.0,0.009406936327472736,3.7758724663138405,0.0,0.0,0.0,0.0,0.0,0.0,0.0,0.0,0.0,0.0,0.0,0.0,0.0,0.0,
1.8997,3.8106278460898073,3.7578832171898253,3.767005935432338,0.0,0.0,0.009424321767121066,3.7785056662373235,0.0,0.0,0.0,0.0,0.0,0.0,0.0,0.0,0.0,0.0,0.0,0.0,0.0,0.0,
1.9189,3.813321579918159,3.7605470868728346,3.769651448060165,0.0,0.0,0.009441948652908592,3.7811733716170526,0.0,0.0,0.0,0.0,0.0,0.0,0.0,0.0,0.0,0.0,0.0,0.0,0.0,0.0,
1.9381,3.8160503692806027,3.7632457718830983,3.772331436133819,0.0,0.0,0.009459819340832488,3.7838758590991737,0.0,0.0,0.0,0.0,0.0,0.0,0.0,0.0,0.0,0.0,0.0,0.0,0.0,0.0,
1.9572,3.8188000074465362,3.765965227221206,3.775031948672607,0.0,0.0,0.0094778412326957,3.7865990611134497,0.0,0.0,0.0,0.0,0.0,0.0,0.0,0.0,0.0,0.0,0.0,0.0,0.0,0.0,
1.9764,3.8215995722447498,3.7687342178587233,3.777781546105132,0.0,0.0,0.009496205478898267,3.789371778736202,0.0,0.0,0.0,0.0,0.0,0.0,0.0,0.0,0.0,0.0,0.0,0.0,0.0,0.0,
1.9956,3.8244350523335755,3.7715388931889473,3.7805664697296955,0.0,0.0,0.009514820865800027,3.792180138417406,0.0,0.0,0.0,0.0,0.0,0.0,0.0,0.0,0.0,0.0,0.0,0.0,0.0,0.0,
2.0148,3.8273067455808913,3.7743795545259475,3.78338701434037,0.0,0.0,0.009533689941572386,3.795024438149069,0.0,0.0,0.0,0.0,0.0,0.0,0.0,0.0,0.0,0.0,0.0,0.0,0.0,0.0,
2.034,3.830214955426636,3.777256508882061,3.786243480271075,0.0,0.0,0.009552815305029138,3.7979049815265906,0.0,0.0,0.0,0.0,0.0,0.0,0.0,0.0,0.0,0.0,0.0,0.0,0.0,0.0,
2.0532,3.8331599909911063,3.7801700690804494,3.789136173504059,0.0,0.0,0.009572199606700702,3.800822077858539,0.0,0.0,0.0,0.0,0.0,0.0,0.0,0.0,0.0,0.0,0.0,0.0,0.0,0.0,
2.0724,3.8361421671859612,3.7831205538709787,3.7920654057811256,0.0,0.0,0.00959184554993781,3.8037760422793547,0.0,0.0,0.0,0.0,0.0,0.0,0.0,0.0,0.0,0.0,0.0,0.0,0.0,0.0,
2.0916,3.839161804828358,3.7861082880491015,3.7950314947181885,0.0,0.0,0.009611755892047637,3.806767195865216,0.0,0.0,0.0,0.0,0.0,0.0,0.0,0.0,0.0,0.0,0.0,0.0,0.0,0.0,
2.1108,3.8422192307581566,3.7891336025780347,3.7980347639226926,0.0,0.0,0.009631933445461888,3.8097958657529616,0.0,0.0,0.0,0.0,0.0,0.0,0.0,0.0,0.0,0.0,0.0,0.0,0.0,0.0,
2.1299,3.8452985559779123,3.792180781561736,3.8010596079733143,0.0,0.0,0.009652273876162088,3.812846315170988,0.0,0.0,0.0,0.0,0.0,0.0,0.0,0.0,0.0,0.0,0.0,0.0,0.0,0.0,
2.1491,3.848432362493119,3.7952820748057388,3.8041380351128975,0.0,0.0,0.009672993086434089,3.8159508241372517,0.0,0.0,0.0,0.0,0.0,0.0,0.0,0.0,0.0,0.0,0.0,0.0,0.0,0.0,
2.1683,3.8516049733549877,3.7984219777294466,3.8072546487163454,0.0,0.0,0.009693988272547194,3.81909386660026,0.0,0.0,0.0,0.0,0.0,0.0,0.0,0.0,0.0,0.0,0.0,0.0,0.0,0.0,
2.1875,3.854816740697306,3.801600847223651,3.810409797564515,0.0,0.0,0.00971526247948964,3.8222757951618243,0.0,0.0,0.0,0.0,0.0,0.0,0.0,0.0,0.0,0.0,0.0,0.0,0.0,0.0,
2.2067,3.8580680233117457,3.804819047010287,3.8136038370673044,0.0,0.0,0.009736818813737341,3.825496969129779,0.0,0.0,0.0,0.0,0.0,0.0,0.0,0.0,0.0,0.0,0.0,0.0,0.0,0.0,
2.2259,3.861359186785904,3.8080769477865926,3.8168371294020216,0.0,0.0,0.009758660444641827,3.8287577546581724,0.0,0.0,0.0,0.0,0.0,0.0,0.0,0.0,0.0,0.0,0.0,0.0,0.0,0.0,
2.2451,3.864690603645047,3.8113749273733917,3.8201100436557875,0.0,0.0,0.00978079060585935,3.8320585248914085,0.0,0.0,0.0,0.0,0.0,0.0,0.0,0.0,0.0,0.0,0.0,0.0,0.0,0.0,
