energies(eV),real_xx,real_yy,real_zz,real_xy,real_yz,real_xz,real_ave,imag_xx,imag_yy,imag_zz,imag_xy,imag_yz,imag_xz,imag_ave,absorption_xx,absorption_yy,absorption_zz,absorption_xy,absorption_yz,absorption_xz,absorption_ave,band_gap
0.0,3.7500755291225447,3.320167487766135,3.505121382448323,0.0,0.0,-0.020891565767628205,3.525121466445668,0.0,0.0,0.0,0.0,0.0,0.0,0.0,0.0,0.0,0.0,0.0,0.0,0.0,0.0,5.7077
0.0163,3.7500843680690576,3.3201740018953423,3.5051288719006335,0.0,0.0,-0.02089141129013856,3.525129080621678,0.0,0.0,0.0,0.0,0.0,0.0,0.0,0.0,0.0,0.0,0.0,0.0,238.78938627896062,0.0,
0.0327,3.75011110263464,3.3201937047185726,3.5051515247196754,0.0,0.0,-0.020890944030921142,3.5251521106909625,0.0,0.0,0.0,0.0,0.0,0.0,0.0,0.0,0.0,0.0,0.0,0.0,479.0383809199094,0.0,
0.049,3.7501554082377737,3.3202263569538815,3.5051890658132763,0.0,0.0,-0.0208901695986659,3.5251902770016437,0.0,0.0,0.0,0.0,0.0,0.0,0.0,0.0,0.0,0.0,0.0,0.0,717.8117916946112,0.0,
0.0653,3.7502173960701892,3.3202720404278434,3.505241589286215,0.0,0.0,-0.020889085943448033,3.525243675261416,0.0,0.0,0.0,0.0,0.0,0.0,0.0,0.0,0.0,0.0,0.0,0.0,956.5692701153615,0.0,
0.0816,3.750297069497333,3.3203307574534513,3.505309097835244,0.0,0.0,-0.020887692857243872,3.5253123082620093,0.0,0.0,0.0,0.0,0.0,0.0,0.0,0.0,0.0,0.0,0.0,0.0,1195.305507379946,0.0,
0.098,3.750395084773562,3.3204029914517004,3.5053921473117104,0.0,0.0,-0.020885978669598116,3.525396741178991,0.0,0.0,0.0,0.0,0.0,0.0,0.0,0.0,0.0,0.0,0.0,0.0,1435.4795707145956,0.0,
0.1143,3.750510251908342,3.320487865174895,3.5054897291782234,0.0,0.0,-0.0208839639564171,3.52549594875382,0.0,0.0,0.0,0.0,0.0,0.0,0.0,0.0,0.0,0.0,0.0,0.0,1674.1571549632895,0.0,
0.1306,3.7506431205431867,3.320585783380962,3.5056023088657358,0.0,0.0,-0.020881638828710556,3.525610404263295,0.0,0.0,0.0,0.0,0.0,0.0,0.0,0.0,0.0,0.0,0.0,0.0,1912.7974857608085,0.0,
0.147,3.7507946763556594,3.3206974721002886,3.5057307211972613,0.0,0.0,-0.02087898570770129,3.52574095655107,0.0,0.0,0.0,0.0,0.0,0.0,0.0,0.0,0.0,0.0,0.0,0.0,2152.858859642084,0.0,
0.1633,3.7509630793325446,3.3208215749303336,3.5058734067620105,0.0,0.0,-0.020876036439270215,3.525886020341629,0.0,0.0,0.0,0.0,0.0,0.0,0.0,0.0,0.0,0.0,0.0,0.0,2391.4083054861285,0.0,
0.1796,3.7511492084207365,3.3209587391572732,3.506031109867979,0.0,0.0,-0.020872775233081762,3.526046352481996,0.0,0.0,0.0,0.0,0.0,0.0,0.0,0.0,0.0,0.0,0.0,0.0,2629.904365252718,0.0,
0.1959,3.751353073742565,3.3211089717375355,3.5062038386256673,0.0,0.0,-0.02086920146217052,3.5262219613685892,0.0,0.0,0.0,0.0,0.0,0.0,0.0,0.0,0.0,0.0,0.0,0.0,2868.3416367030077,0.0,
0.2123,3.751576100773908,3.3212733225593176,3.506392800264362,0.0,0.0,-0.020865289624183946,3.526414074532529,0.0,0.0,0.0,0.0,0.0,0.0,0.0,0.0,0.0,0.0,0.0,0.0,3108.176898559491,0.0,
0.2286,3.7518155817992516,3.321449795677655,3.506595700089616,0.0,0.0,-0.020861086672652088,3.526620359188841,0.0,0.0,0.0,0.0,0.0,0.0,0.0,0.0,0.0,0.0,0.0,0.0,3346.4798563197314,0.0,
0.2449,3.7520728353276733,3.3216393620741056,3.506813654626252,0.0,0.0,-0.020856568907647425,3.5268419506760105,0.0,0.0,0.0,0.0,0.0,0.0,0.0,0.0,0.0,0.0,0.0,0.0,3584.7076513020606,0.0,
0.2613,3.7523496176607662,3.3218433152095477,3.5070481511981724,0.0,0.0,-0.02085170483007736,3.5270803613561625,0.0,0.0,0.0,0.0,0.0,0.0,0.0,0.0,0.0,0.0,0.0,0.0,3824.315550164901,0.0,
0.2776,3.752642568474907,3.3220591782067914,3.507296342165131,0.0,0.0,-0.02084655282195149,3.527332696282277,0.0,0.0,0.0,0.0,0.0,0.0,0.0,0.0,0.0,0.0,0.0,0.0,4062.375949657491,0.0,
0.2939,3.7529533368682193,3.3222881654572425,3.507559623956632,0.0,0.0,-0.02084108320064619,3.527600375427364,0.0,0.0,0.0,0.0,0.0,0.0,0.0,0.0,0.0,0.0,0.0,0.0,4300.344568212801,0.0,
0.3103,3.753284010846373,3.322531814597725,3.5078397646944675,0.0,0.0,-0.020835258414754837,3.5278851967128553,0.0,0.0,0.0,0.0,0.0,0.0,0.0,0.0,0.0,0.0,0.0,0.0,4539.674835044829,0.0,
0.3266,3.7536305758363406,3.3227871666906266,3.5081333624770834,0.0,0.0,-0.020829148375639796,3.528183701668017,0.0,0.0,0.0,0.0,0.0,0.0,0.0,0.0,0.0,0.0,0.0,0.0,4777.442432941231,0.0,
0.3429,3.753995012352327,3.3230556801050906,3.508442094300732,0.0,0.0,-0.02082271736548735,3.5284975955860496,0.0,0.0,0.0,0.0,0.0,0.0,0.0,0.0,0.0,0.0,0.0,0.0,5015.101333449757,0.0,
0.3592,3.754377340319069,3.32333736853126,3.508765976126005,0.0,0.0,-0.020815964142130265,3.528826894992111,0.0,0.0,0.0,0.0,0.0,0.0,0.0,0.0,0.0,0.0,0.0,0.0,5252.645833538723,0.0,
0.3756,3.7547800914443212,3.323634096144792,3.5091071516061727,0.0,0.0,-0.020808842983474397,3.529173779731762,0.0,0.0,0.0,0.0,0.0,0.0,0.0,0.0,0.0,0.0,0.0,0.0,5491.526397297783,0.0,
0.3919,3.7551983761586714,3.3239422594518353,3.5094614777101563,0.0,0.0,-0.020801439357046064,3.5295340377735545,0.0,0.0,0.0,0.0,0.0,0.0,0.0,0.0,0.0,0.0,0.0,0.0,5728.824029621592,0.0,
0.4082,3.75563461821404,3.324263643040804,3.509831006593056,0.0,0.0,-0.020793709402026454,3.5299097559493,0.0,0.0,0.0,0.0,0.0,0.0,0.0,0.0,0.0,0.0,0.0,0.0,5965.989860247267,0.0,
0.4246,3.756091683727301,3.3246003571207288,3.5102181648712083,0.0,0.0,-0.020785601172082287,3.5303034019064126,0.0,0.0,0.0,0.0,0.0,0.0,0.0,0.0,0.0,0.0,0.0,0.0,6204.471731129023,0.0,
0.4409,3.7565640237910753,3.3249483126399166,3.510618251174461,0.0,0.0,-0.020777211978064054,3.5307101958684846,0.0,0.0,0.0,0.0,0.0,0.0,0.0,0.0,0.0,0.0,0.0,0.0,6441.355365003917,0.0,
0.4572,3.7570543961567715,3.3253095399384165,3.5110336002923606,0.0,0.0,-0.02076849175939707,3.531132512129183,0.0,0.0,0.0,0.0,0.0,0.0,0.0,0.0,0.0,0.0,0.0,0.0,6678.089364351569,0.0,
0.4735,3.7575628277891204,3.325684057539473,3.511464233818974,0.0,0.0,-0.020759438823156104,3.5315703730491896,0.0,0.0,0.0,0.0,0.0,0.0,0.0,0.0,0.0,0.0,0.0,0.0,6914.667691036288,0.0,
0.4899,3.758092632731982,3.3260743050917254,3.5119129572834558,0.0,0.0,-0.020749992782813666,3.532026631702388,0.0,0.0,0.0,0.0,0.0,0.0,0.0,0.0,0.0,0.0,0.0,0.0,7152.534146638462,0.0,
0.5062,3.7586373791099925,3.326475543508871,3.512374321798806,0.0,0.0,-0.02074026699883366,3.532495748139223,0.0,0.0,0.0,0.0,0.0,0.0,0.0,0.0,0.0,0.0,0.0,0.0,7388.781735215683,0.0,
0.5225,3.759200271973468,3.326890132138443,3.512851040563469,0.0,0.0,-0.020730203008135266,3.5329804815584596,0.0,0.0,0.0,0.0,0.0,0.0,0.0,0.0,0.0,0.0,0.0,0.0,7624.855149003142,0.0,
0.5389,3.759784963416819,3.327320759162472,3.513346204983633,0.0,0.0,-0.020719733966710754,3.533483975854308,0.0,0.0,0.0,0.0,0.0,0.0,0.0,0.0,0.0,0.0,0.0,0.0,7862.194734814241,0.0,
0.5552,3.760384355341028,3.3277621952051724,3.5138538023167554,0.0,0.0,-0.020708985506155773,3.534000117620985,0.0,0.0,0.0,0.0,0.0,0.0,0.0,0.0,0.0,0.0,0.0,0.0,8097.899729377918,0.0,
0.5715,3.761001990312887,3.3282170477801416,3.51437683120997,0.0,0.0,-0.020697892738075544,3.5345319564343334,0.0,0.0,0.0,0.0,0.0,0.0,0.0,0.0,0.0,0.0,0.0,0.0,8333.411470977297,0.0,
0.5878,3.761637902548959,3.328685340385604,3.5149153190552305,0.0,0.0,-0.020686453494723,3.5350795206632646,0.0,0.0,0.0,0.0,0.0,0.0,0.0,0.0,0.0,0.0,0.0,0.0,8568.723474161488,0.0,
0.6042,3.7622961975619447,3.329170094412554,3.5154727405649204,0.0,0.0,-0.02067459213855739,3.5356463441798063,0.0,0.0,0.0,0.0,0.0,0.0,0.0,0.0,0.0,0.0,0.0,0.0,8805.270895839249,0.0,
0.6205,3.762968883885161,3.3296654233051792,3.5160423271493446,0.0,0.0,-0.02066245099966365,3.5362255447798945,0.0,0.0,0.0,0.0,0.0,0.0,0.0,0.0,0.0,0.0,0.0,0.0,9040.162341976818,0.0,
0.6368,3.763659956706991,3.3301742672382013,3.5166274601230185,0.0,0.0,-0.02064995644430853,3.53682056135607,0.0,0.0,0.0,0.0,0.0,0.0,0.0,0.0,0.0,0.0,0.0,0.0,9274.834100135737,0.0,
0.6532,3.764373864198369,3.3306998992982253,3.517231903760988,0.0,0.0,-0.020637026079505915,3.537435222419194,0.0,0.0,0.0,0.0,0.0,0.0,0.0,0.0,0.0,0.0,0.0,0.0,9510.716975919055,0.0,
0.6695,3.765101939932494,3.331235936638343,3.517848318621438,0.0,0.0,-0.020623815054105942,3.5380620650640915,0.0,0.0,0.0,0.0,0.0,0.0,0.0,0.0,0.0,0.0,0.0,0.0,9744.927433505467,0.0,
0.6858,3.7658485210933796,3.3317855706732873,3.518480375050275,0.0,0.0,-0.02061024301920912,3.538704822272314,0.0,0.0,0.0,0.0,0.0,0.0,0.0,0.0,0.0,0.0,0.0,0.0,9978.897517652635,0.0,
0.7021,3.7666136494211715,3.332348830058388,3.5191281064482838,0.0,0.0,-0.020596307301045145,3.5393635286426144,0.0,0.0,0.0,0.0,0.0,0.0,0.0,0.0,0.0,0.0,0.0,0.0,10212.620171455424,0.0,
0.7185,3.767402233307317,3.33292932575686,3.5197956658367913,0.0,0.0,-0.020581916270726523,3.540042408300323,0.0,0.0,0.0,0.0,0.0,0.0,0.0,0.0,0.0,0.0,0.0,0.0,10447.519764401497,0.0,
0.7348,3.7682047000482077,3.3335200088751256,3.5204749475904356,0.0,0.0,-0.020567242589035303,3.540733218837923,0.0,0.0,0.0,0.0,0.0,0.0,0.0,0.0,0.0,0.0,0.0,0.0,10680.724385195226,0.0,
0.7511,3.769025846077314,3.334124408036977,3.521170010023077,0.0,0.0,-0.020552196730519272,3.5414400880457895,0.0,0.0,0.0,0.0,0.0,0.0,0.0,0.0,0.0,0.0,0.0,0.0,10913.659793155874,0.0,
0.7675,3.769870928055141,3.334746389750812,3.52188530020505,0.0,0.0,-0.02053667994374357,3.542167539337001,0.0,0.0,0.0,0.0,0.0,0.0,0.0,0.0,0.0,0.0,0.0,0.0,11147.745028246112,0.0,
0.7838,3.7707296876627647,3.3353784015145327,3.522612133128944,0.0,0.0,-0.020520878383477638,3.5429067407687476,0.0,0.0,0.0,0.0,0.0,0.0,0.0,0.0,0.0,0.0,0.0,0.0,11380.117804174382,0.0,
0.8001,3.771607268806645,3.336024226949934,3.523354860519666,0.0,0.0,-0.020504695450656602,3.543662118758748,0.0,0.0,0.0,0.0,0.0,0.0,0.0,0.0,0.0,0.0,0.0,0.0,11612.198668846107,0.0,
0.8164,3.7725037210869075,3.336683900094627,3.524113522047693,0.0,0.0,-0.020488127926410783,3.544433714409743,0.0,0.0,0.0,0.0,0.0,0.0,0.0,0.0,0.0,0.0,0.0,0.0,11843.979854077006,0.0,
0.8328,3.7734247695535608,3.3373616309370586,3.5248929600596717,0.0,0.0,-0.020471067285404012,3.5452264535167637,0.0,0.0,0.0,0.0,0.0,0.0,0.0,0.0,0.0,0.0,0.0,0.0,12076.872595648985,0.0,
0.8491,3.7743592340906735,3.3380491902721987,3.5256837109433374,0.0,0.0,-0.020453718183956523,3.5460307117687364,0.0,0.0,0.0,0.0,0.0,0.0,0.0,0.0,0.0,0.0,0.0,0.0,12308.028697489377,0.0,
0.8654,3.775312725841396,3.338750704409658,3.526490520776228,0.0,0.0,-0.02043597432041342,3.5468513170090943,0.0,0.0,0.0,0.0,0.0,0.0,0.0,0.0,0.0,0.0,0.0,0.0,12538.861068195021,0.0,
0.8818,3.7762913247857886,3.3394706434511083,3.527318531277161,0.0,0.0,-0.020417719605125558,3.547693499838019,0.0,0.0,0.0,0.0,0.0,0.0,0.0,0.0,0.0,0.0,0.0,0.0,12770.774533963388,0.0,
0.8981,3.7772831525334816,3.3402002658929577,3.5281576893228674,0.0,0.0,-0.02039917300092468,3.5485470359164353,0.0,0.0,0.0,0.0,0.0,0.0,0.0,0.0,0.0,0.0,0.0,0.0,13000.93246604233,0.0,
0.9144,3.7782941742219873,3.3409439575152113,3.529013039613661,0.0,0.0,-0.020380220700103473,3.549417057116953,0.0,0.0,0.0,0.0,0.0,0.0,0.0,0.0,0.0,0.0,0.0,0.0,13230.741493307325,0.0,
0.9308,3.779330827952038,3.3417064507200305,3.5298900257892147,0.0,0.0,-0.02036073883481902,3.550309101487094,0.0,0.0,0.0,0.0,0.0,0.0,0.0,0.0,0.0,0.0,0.0,0.0,13461.599532531109,0.0,
0.9471,3.7803805309935963,3.342478487543193,3.530778000364318,0.0,0.0,-0.020340961067652392,3.5512123396337025,0.0,0.0,0.0,0.0,0.0,0.0,0.0,0.0,0.0,0.0,0.0,0.0,13690.682418185006,0.0,
0.9634,3.781449605607161,3.34326471537991,3.5316823091612415,0.0,0.0,-0.02032076587520187,3.5521322100494372,0.0,0.0,0.0,0.0,0.0,0.0,0.0,0.0,0.0,0.0,0.0,0.0,13919.39000534318,0.0,
0.9797,3.782538113345719,3.344065176441914,3.532603001369216,0.0,0.0,-0.020300149174290374,3.5530687637189495,0.0,0.0,0.0,0.0,0.0,0.0,0.0,0.0,0.0,0.0,0.0,0.0,14147.713225799998,0.0,
0.9961,3.78365297487976,3.3448849563329452,3.5335459272317498,0.0,0.0,-0.020278976372041714,3.554027952814818,0.0,0.0,0.0,0.0,0.0,0.0,0.0,0.0,0.0,0.0,0.0,0.0,14377.039968113642,0.0,
1.0124,3.7847806587268185,3.3457141018879746,3.5344996390998027,0.0,0.0,-0.020257501381221062,3.5549981332381986,0.0,0.0,0.0,0.0,0.0,0.0,0.0,0.0,0.0,0.0,0.0,0.0,14604.564142764451,0.0,
1.0287,3.785927968288835,3.3465576127228296,3.535469888255963,0.0,0.0,-0.02023559204355021,3.5559851564225426,0.0,0.0,0.0,0.0,0.0,0.0,0.0,0.0,0.0,0.0,0.0,0.0,14831.675767116634,0.0,
1.0451,3.78710219061781,3.3474208424031073,3.5364628334607606,0.0,0.0,-0.0202131054274152,3.556995288827226,0.0,0.0,0.0,0.0,0.0,0.0,0.0,0.0,0.0,0.0,0.0,0.0,15059.754553454823,0.0,
1.0614,3.7882890741878352,3.34829331053024,3.5374664201485686,0.0,0.0,-0.020190311175251864,3.558016268288881,0.0,0.0,0.0,0.0,0.0,0.0,0.0,0.0,0.0,0.0,0.0,0.0,15286.009137806948,0.0,
1.0777,3.7894957876343285,3.349180283893771,3.538486707200256,0.0,0.0,-0.02016706886307616,3.5590542595761185,0.0,0.0,0.0,0.0,0.0,0.0,0.0,0.0,0.0,0.0,0.0,0.0,15511.821512191185,0.0,
1.094,3.790722401491778,3.3500818108387773,3.5395237509448028,0.0,0.0,-0.020143373728587703,3.5601093210917862,0.0,0.0,0.0,0.0,0.0,0.0,0.0,0.0,0.0,0.0,0.0,0.0,15737.181462042148,0.0,
1.1104,3.7919766971813056,3.351003606216563,3.5405841261648368,0.0,0.0,-0.020119071307266177,3.561188143187568,0.0,0.0,0.0,0.0,0.0,0.0,0.0,0.0,0.0,0.0,0.0,0.0,15963.456877948434,0.0,
1.1267,3.7932434519961276,3.3519344790458776,3.541654960206129,0.0,0.0,-0.020094452975214148,3.5622776304160446,0.0,0.0,0.0,0.0,0.0,0.0,0.0,0.0,0.0,0.0,0.0,0.0,16187.877666040456,0.0,
1.143,3.794530327306253,3.352880056279992,3.5427427266640406,0.0,0.0,-0.020069366880402346,3.5633843700834285,0.0,0.0,0.0,0.0,0.0,0.0,0.0,0.0,0.0,0.0,0.0,0.0,16411.814209422,0.0,
1.1594,3.7958454803799273,3.353846327215641,3.5438543163911427,0.0,0.0,-0.020043649565376225,3.564515374662237,0.0,0.0,0.0,0.0,0.0,0.0,0.0,0.0,0.0,0.0,0.0,0.0,16636.62479008161,0.0,
1.1757,3.797172950477472,3.354821561303686,3.5449762354443144,0.0,0.0,-0.02001760933638222,3.5656569157418243,0.0,0.0,0.0,0.0,0.0,0.0,0.0,0.0,0.0,0.0,0.0,0.0,16859.556583365167,0.0,
1.192,3.798520773508451,3.355811659045628,3.54611527244324,0.0,0.0,-0.019991085433067653,3.5668159016657732,0.0,0.0,0.0,0.0,0.0,0.0,0.0,0.0,0.0,0.0,0.0,0.0,17081.970532929332,0.0,
1.2083,3.7998890295962005,3.35681667532645,3.5472714913275976,0.0,0.0,-0.019964072339198027,3.5679923987500826,0.0,0.0,0.0,0.0,0.0,0.0,0.0,0.0,0.0,0.0,0.0,0.0,17303.85504265177,0.0,
1.2247,3.801286383836956,3.357842969944477,3.548452209707439,0.0,0.0,-0.01993639412494616,3.569193854496291,0.0,0.0,0.0,0.0,0.0,0.0,0.0,0.0,0.0,0.0,0.0,0.0,17526.554536558815,0.0,
1.241,3.802695878737716,3.358878084239521,3.549643095127859,0.0,0.0,-0.01990838255282875,3.570405686035032,0.0,0.0,0.0,0.0,0.0,0.0,0.0,0.0,0.0,0.0,0.0,0.0,17747.341065406803,0.0,
1.2573,3.8041260561820858,3.3599282879429464,3.5508513614839177,0.0,0.0,-0.01987986451120368,3.5716352352029834,0.0,0.0,0.0,0.0,0.0,0.0,0.0,0.0,0.0,0.0,0.0,0.0,17967.561954126162,0.0,
1.2737,3.8055859678680237,3.3610002226603295,3.552084651030695,0.0,0.0,-0.019850654318827755,3.5728902805196827,0.0,0.0,0.0,0.0,0.0,0.0,0.0,0.0,0.0,0.0,0.0,0.0,18188.55038540713,0.0,
1.29,3.80705789784165,3.362080876165778,3.5533279937158793,0.0,0.0,-0.019821102057911932,3.574155589241102,0.0,0.0,0.0,0.0,0.0,0.0,0.0,0.0,0.0,0.0,0.0,0.0,18407.598560942264,0.0,
1.3063,3.8085507731106105,3.3631767989845898,3.554588926898751,0.0,0.0,-0.019791024962824127,3.5754388329979836,0.0,0.0,0.0,0.0,0.0,0.0,0.0,0.0,0.0,0.0,0.0,0.0,18626.04275507174,0.0,
1.3226,3.8100646840942924,3.3642880530150188,3.555867522678152,0.0,0.0,-0.019760416674405572,3.576740086595821,0.0,0.0,0.0,0.0,0.0,0.0,0.0,0.0,0.0,0.0,0.0,0.0,18843.869708747985,0.0,
1.339,3.8116092055579873,3.3654216607929004,3.5571718622128716,0.0,0.0,-0.01972907795250488,3.57806757618792,0.0,0.0,0.0,0.0,0.0,0.0,0.0,0.0,0.0,0.0,0.0,0.0,19062.39641652771,0.0,
1.3553,3.813165595858547,3.366563862159613,3.558486113846992,0.0,0.0,-0.019697384324240553,3.5794051906217175,0.0,0.0,0.0,0.0,0.0,0.0,0.0,0.0,0.0,0.0,0.0,0.0,19278.944054343672,0.0,
1.3716,3.8147433029823925,3.3677215871388055,3.5598182521751482,0.0,0.0,-0.019665139604166527,3.5807610474321154,0.0,0.0,0.0,0.0,0.0,0.0,0.0,0.0,0.0,0.0,0.0,0.0,19494.83297892355,0.0,
1.388,3.816352300437776,3.3689021483794552,3.561176692674169,0.0,0.0,-0.019632133925271782,3.5821437138304666,0.0,0.0,0.0,0.0,0.0,0.0,0.0,0.0,0.0,0.0,0.0,0.0,19711.367068108615,0.0,
1.4043,3.8179730650770036,3.3700912163769443,3.5625449477086404,0.0,0.0,-0.019598762734992968,3.5835364097208626,0.0,0.0,0.0,0.0,0.0,0.0,0.0,0.0,0.0,0.0,0.0,0.0,19925.89093595461,0.0,
1.4206,3.8196154419694226,3.3712960101303775,3.563931324865721,0.0,0.0,-0.019564819332723513,3.5849475923218406,0.0,0.0,0.0,0.0,0.0,0.0,0.0,0.0,0.0,0.0,0.0,0.0,20139.712038719317,0.0,
1.4369,3.821279532650795,3.3725165991002215,3.565335905039535,0.0,0.0,-0.01953029641077701,3.58637734559685,0.0,0.0,0.0,0.0,0.0,0.0,0.0,0.0,0.0,0.0,0.0,0.0,20352.815114046167,0.0,
1.4533,3.8229758508574436,3.373760688601178,3.5667675562768744,0.0,0.0,-0.01949496929118853,3.5878346985784986,0.0,0.0,0.0,0.0,0.0,0.0,0.0,0.0,0.0,0.0,0.0,0.0,20566.485165370075,0.0,
1.4696,3.824683815198145,3.375013178910416,3.568208903380818,0.0,0.0,-0.019459261152896975,3.5893019658297924,0.0,0.0,0.0,0.0,0.0,0.0,0.0,0.0,0.0,0.0,0.0,0.0,20778.10047169994,0.0,
1.4859,3.826413808629473,3.376281680089114,3.5696687046402773,0.0,0.0,-0.019422950643557885,3.590788064452955,0.0,0.0,0.0,0.0,0.0,0.0,0.0,0.0,0.0,0.0,0.0,0.0,20988.949922313404,0.0,
1.5023,3.8281767572727006,3.377574196891035,3.5711561732795154,0.0,0.0,-0.019385801450853352,3.5923023758144175,0.0,0.0,0.0,0.0,0.0,0.0,0.0,0.0,0.0,0.0,0.0,0.0,21200.30323421,0.0,
1.5186,3.829951272366978,3.37887504254714,3.5726532575067766,0.0,0.0,-0.019348258511799245,3.5938265241402987,0.0,0.0,0.0,0.0,0.0,0.0,0.0,0.0,0.0,0.0,0.0,0.0,21409.565898143857,0.0,
1.5349,3.8317481473971458,3.3801921252861047,3.5741690593072635,0.0,0.0,-0.019310088967384904,3.595369777330171,0.0,0.0,0.0,0.0,0.0,0.0,0.0,0.0,0.0,0.0,0.0,0.0,21618.01176325491,0.0,
1.5513,3.833578727209252,3.3815337536325916,3.5757131421262223,0.0,0.0,-0.019271044394256035,3.5969418743226886,0.0,0.0,0.0,0.0,0.0,0.0,0.0,0.0,0.0,0.0,0.0,0.0,21826.89422445933,0.0,
1.5676,3.8354208036629123,3.382883645556739,3.5772667680107806,0.0,0.0,-0.019231592355423335,3.5985237390768106,0.0,0.0,0.0,0.0,0.0,0.0,0.0,0.0,0.0,0.0,0.0,0.0,22033.647774591587,0.0,
1.5839,3.83728558702184,3.3842500117259404,3.578839387615428,0.0,0.0,-0.019191488015978538,3.600124995454403,0.0,0.0,0.0,0.0,0.0,0.0,0.0,0.0,0.0,0.0,0.0,0.0,22239.53020146869,0.0,
1.6002,3.8391731963858473,3.385632933530228,3.5804310957044714,0.0,0.0,-0.01915072249020626,3.6017457418735153,0.0,0.0,0.0,0.0,0.0,0.0,0.0,0.0,0.0,0.0,0.0,0.0,22444.522634806497,0.0,
1.6166,3.841095545009193,3.387041131414312,3.5820519307107466,0.0,0.0,-0.01910903042350257,3.6033962023780837,0.0,0.0,0.0,0.0,0.0,0.0,0.0,0.0,0.0,0.0,0.0,0.0,22649.854983651363,0.0,
1.6329,3.843029313126729,3.3884575166190354,3.583682224601127,0.0,0.0,-0.019066910970544082,3.6050563514489635,0.0,0.0,0.0,0.0,0.0,0.0,0.0,0.0,0.0,0.0,0.0,0.0,22853.003375065236,0.0,
1.6492,3.8449862766732807,3.3898907098585576,3.585331900836035,0.0,0.0,-0.019024102557535522,3.606736295789291,0.0,0.0,0.0,0.0,0.0,0.0,0.0,0.0,0.0,0.0,0.0,0.0,23055.20248278871,0.0,
1.6656,3.846978783647801,3.391349746288404,3.587011360805112,0.0,0.0,-0.018980326490720022,3.6084466302471054,0.0,0.0,0.0,0.0,0.0,0.0,0.0,0.0,0.0,0.0,0.0,0.0,23257.66318849688,0.0,
1.6819,3.848982664588429,3.3928169211635364,3.5887002261819156,0.0,0.0,-0.018936106782202693,3.6101666039779605,0.0,0.0,0.0,0.0,0.0,0.0,0.0,0.0,0.0,0.0,0.0,0.0,23457.895265606036,0.0,
1.6982,3.851010128008227,3.394301168426848,3.5904087816577106,0.0,0.0,-0.018891168673142656,3.611906692697595,0.0,0.0,0.0,0.0,0.0,0.0,0.0,0.0,0.0,0.0,0.0,0.0,23657.114659159408,0.0,
1.7145,3.853061306689305,3.3958025787472734,3.592137132782112,0.0,0.0,-0.018845501983653798,3.613667006072897,0.0,0.0,0.0,0.0,0.0,0.0,0.0,0.0,0.0,0.0,0.0,0.0,23855.299305947414,0.0,
1.7309,3.8551491395981716,3.397330614599958,3.5938961738585906,0.0,0.0,-0.01879880933496382,3.615458642685573,0.0,0.0,0.0,0.0,0.0,0.0,0.0,0.0,0.0,0.0,0.0,0.0,24053.63269283911,0.0,
1.7472,3.85724830298802,3.398866735359024,3.5956645625394597,0.0,0.0,-0.018751649512447843,3.617259866962168,0.0,0.0,0.0,0.0,0.0,0.0,0.0,0.0,0.0,0.0,0.0,0.0,24249.672903159535,0.0,
