energies(eV),real_xx,real_yy,real_zz,real_xy,real_yz,real_xz,real_ave,imag_xx,imag_yy,imag_zz,imag_xy,imag_yz,imag_xz,imag_ave,absorption_xx,absorption_yy,absorption_zz,absorption_xy,absorption_yz,absorption_xz,absorption_ave,band_gap
0.0,2.069757214718623,2.069757214718623,1.9070205426932643,0.0,0.0,0.0,2.015511657376837,0.0,0.0,0.0,0.0,0.0,0.0,0.0,0.0,0.0,0.0,0.0,0.0,0.0,0.0,7.9612
0.0173,2.0697583984893035,2.0697583984893035,1.9070214553362832,0.0,0.0,0.0,2.0155127507716304,0.0,0.0,0.0,0.0,0.0,0.0,0.0,0.0,0.0,0.0,0.0,0.0,0.0,0.0,
0.0345,2.069761922492297,2.069761922492297,1.9070241722087276,0.0,0.0,0.0,2.0155160057311075,0.0,0.0,0.0,0.0,0.0,0.0,0.0,0.0,0.0,0.0,0.0,0.0,0.0,0.0,
0.0518,2.0697678277702547,2.0697678277702547,1.9070287249458273,0.0,0.0,0.0,2.015521460162112,0.0,0.0,0.0,0.0,0.0,0.0,0.0,0.0,0.0,0.0,0.0,0.0,0.0,0.0,
0.069,2.0697760461629873,2.0697760461629873,1.9070350609870075,0.0,0.0,0.0,2.0155290511043273,0.0,0.0,0.0,0.0,0.0,0.0,0.0,0.0,0.0,0.0,0.0,0.0,0.0,0.0,
0.0863,2.0697866733868526,2.0697866733868526,1.907043254109073,0.0,0.0,0.0,2.015538866960926,0.0,0.0,0.0,0.0,0.0,0.0,0.0,0.0,0.0,0.0,0.0,0.0,0.0,0.0,
0.1035,2.0697995867797894,2.0697995867797894,1.9070532097238488,0.0,0.0,0.0,2.0155507944278095,0.0,0.0,0.0,0.0,0.0,0.0,0.0,0.0,0.0,0.0,0.0,0.0,0.0,0.0,
0.1208,2.0698149367389918,2.0698149367389918,1.9070650437544165,0.0,0.0,0.0,2.0155649724108,0.0,0.0,0.0,0.0,0.0,0.0,0.0,0.0,0.0,0.0,0.0,0.0,0.0,0.0,
0.138,2.0698325460914573,2.0698325460914573,1.9070786195789649,0.0,0.0,0.0,2.0155812372539597,0.0,0.0,0.0,0.0,0.0,0.0,0.0,0.0,0.0,0.0,0.0,0.0,0.0,0.0,
0.1553,2.069852619926419,2.069852619926419,1.9070940952743067,0.0,0.0,0.0,2.015599778375715,0.0,0.0,0.0,0.0,0.0,0.0,0.0,0.0,0.0,0.0,0.0,0.0,0.0,0.0,
0.1725,2.0698749265468157,2.0698749265468157,1.9071112921762805,0.0,0.0,0.0,2.015620381756637,0.0,0.0,0.0,0.0,0.0,0.0,0.0,0.0,0.0,0.0,0.0,0.0,0.0,0.0,
0.1898,2.0698997257492104,2.0698997257492104,1.9071304105255633,0.0,0.0,0.0,2.015643287341328,0.0,0.0,0.0,0.0,0.0,0.0,0.0,0.0,0.0,0.0,0.0,0.0,0.0,0.0,
0.207,2.0699267312953205,2.0699267312953205,1.9071512296042596,0.0,0.0,0.0,2.0156682307316336,0.0,0.0,0.0,0.0,0.0,0.0,0.0,0.0,0.0,0.0,0.0,0.0,0.0,0.0,
0.2243,2.0699562577084185,2.0699562577084185,1.9071739918297257,0.0,0.0,0.0,2.015695502415521,0.0,0.0,0.0,0.0,0.0,0.0,0.0,0.0,0.0,0.0,0.0,0.0,0.0,0.0,
0.2415,2.069987964187791,2.069987964187791,1.907198434416288,0.0,0.0,0.0,2.01572478759729,0.0,0.0,0.0,0.0,0.0,0.0,0.0,0.0,0.0,0.0,0.0,0.0,0.0,0.0,
0.2588,2.070022220006881,2.070022220006881,1.90722484197353,0.0,0.0,0.0,2.0157564273290975,0.0,0.0,0.0,0.0,0.0,0.0,0.0,0.0,0.0,0.0,0.0,0.0,0.0,0.0,
0.276,2.0700586297773,2.0700586297773,1.90725290963122,0.0,0.0,0.0,2.0157900563952733,0.0,0.0,0.0,0.0,0.0,0.0,0.0,0.0,0.0,0.0,0.0,0.0,0.0,0.0,
0.2933,2.0700976175502057,2.0700976175502057,1.907282964209429,0.0,0.0,0.0,2.0158260664366137,0.0,0.0,0.0,0.0,0.0,0.0,0.0,0.0,0.0,0.0,0.0,0.0,0.0,0.0,
0.3105,2.0701387333202206,2.0701387333202206,1.9073146587339371,0.0,0.0,0.0,2.0158640417914593,0.0,0.0,0.0,0.0,0.0,0.0,0.0,0.0,0.0,0.0,0.0,0.0,0.0,0.0,
0.3278,2.0701824559478794,2.0701824559478794,1.9073483622562741,0.0,0.0,0.0,2.0159044247173443,0.0,0.0,0.0,0.0,0.0,0.0,0.0,0.0,0.0,0.0,0.0,0.0,0.0,0.0,
0.345,2.0702282807774526,2.0702282807774526,1.907383685676074,0.0,0.0,0.0,2.0159467490769933,0.0,0.0,0.0,0.0,0.0,0.0,0.0,0.0,0.0,0.0,0.0,0.0,0.0,0.0,
0.3623,2.070276741514588,2.070276741514588,1.9074210403000205,0.0,0.0,0.0,2.015991507776399,0.0,0.0,0.0,0.0,0.0,0.0,0.0,0.0,0.0,0.0,0.0,0.0,0.0,0.0,
0.3795,2.0703272788157863,2.0703272788157863,1.9074599948767816,0.0,0.0,0.0,2.0160381841694512,0.0,0.0,0.0,0.0,0.0,0.0,0.0,0.0,0.0,0.0,0.0,0.0,0.0,0.0,
0.3968,2.0703804812716875,2.0703804812716875,1.9075010029945931,0.0,0.0,0.0,2.016087321845989,0.0,0.0,0.0,0.0,0.0,0.0,0.0,0.0,0.0,0.0,0.0,0.0,0.0,0.0,
0.414,2.070435734809469,2.070435734809469,1.9075435912236083,0.0,0.0,0.0,2.016138353614182,0.0,0.0,0.0,0.0,0.0,0.0,0.0,0.0,0.0,0.0,0.0,0.0,0.0,0.0,
0.4313,2.07049368294879,2.07049368294879,1.907588255462765,0.0,0.0,0.0,2.0161918737867817,0.0,0.0,0.0,0.0,0.0,0.0,0.0,0.0,0.0,0.0,0.0,0.0,0.0,0.0,
0.4485,2.0705536568419065,2.0705536568419065,1.90763448007346,0.0,0.0,0.0,2.0162472645857576,0.0,0.0,0.0,0.0,0.0,0.0,0.0,0.0,0.0,0.0,0.0,0.0,0.0,0.0,
0.4658,2.07061635498561,2.07061635498561,1.907682803297214,0.0,0.0,0.0,2.016305171089478,0.0,0.0,0.0,0.0,0.0,0.0,0.0,0.0,0.0,0.0,0.0,0.0,0.0,0.0,
0.483,2.0706810537075357,2.0706810537075357,1.9077326672536945,0.0,0.0,0.0,2.0163649248895887,0.0,0.0,0.0,0.0,0.0,0.0,0.0,0.0,0.0,0.0,0.0,0.0,0.0,0.0,
0.5003,2.0707485065338886,2.0707485065338886,1.9077846525616153,0.0,0.0,0.0,2.016427221876464,0.0,0.0,0.0,0.0,0.0,0.0,0.0,0.0,0.0,0.0,0.0,0.0,0.0,0.0,
0.5176,2.0708183454659994,2.0708183454659994,1.9078384754601756,0.0,0.0,0.0,2.016491722130725,0.0,0.0,0.0,0.0,0.0,0.0,0.0,0.0,0.0,0.0,0.0,0.0,0.0,0.0,
0.5348,2.0708901474595383,2.0708901474595383,1.907893809791859,0.0,0.0,0.0,2.016558034903645,0.0,0.0,0.0,0.0,0.0,0.0,0.0,0.0,0.0,0.0,0.0,0.0,0.0,0.0,
0.5521,2.0709647487718748,2.0709647487718748,1.9079512998736075,0.0,0.0,0.0,2.016626932472452,0.0,0.0,0.0,0.0,0.0,0.0,0.0,0.0,0.0,0.0,0.0,0.0,0.0,0.0,
0.5693,2.071041288344938,2.071041288344938,1.908010281997343,0.0,0.0,0.0,2.016697619562406,0.0,0.0,0.0,0.0,0.0,0.0,0.0,0.0,0.0,0.0,0.0,0.0,0.0,0.0,
0.5866,2.0711206576145123,2.0711206576145123,1.908071442955824,0.0,0.0,0.0,2.0167709193949492,0.0,0.0,0.0,0.0,0.0,0.0,0.0,0.0,0.0,0.0,0.0,0.0,0.0,0.0,
0.6038,2.0712019404913864,2.0712019404913864,1.9081340766623769,0.0,0.0,0.0,2.0168459858817163,0.0,0.0,0.0,0.0,0.0,0.0,0.0,0.0,0.0,0.0,0.0,0.0,0.0,0.0,
0.6211,2.071286083656691,2.071286083656691,1.9081989124298455,0.0,0.0,0.0,2.0169236932477426,0.0,0.0,0.0,0.0,0.0,0.0,0.0,0.0,0.0,0.0,0.0,0.0,0.0,0.0,
0.6383,2.0713721159217657,2.0713721159217657,1.9082652017476769,0.0,0.0,0.0,2.0170031445304026,0.0,0.0,0.0,0.0,0.0,0.0,0.0,0.0,0.0,0.0,0.0,0.0,0.0,0.0,
0.6556,2.071461039284176,2.071461039284176,1.9083337164958638,0.0,0.0,0.0,2.0170852650214055,0.0,0.0,0.0,0.0,0.0,0.0,0.0,0.0,0.0,0.0,0.0,0.0,0.0,0.0,
0.6728,2.0715518273833284,2.0715518273833284,1.908403665691959,0.0,0.0,0.0,2.0171691068195385,0.0,0.0,0.0,0.0,0.0,0.0,0.0,0.0,0.0,0.0,0.0,0.0,0.0,0.0,
0.6901,2.071645537608556,2.071645537608556,1.9084758638329222,0.0,0.0,0.0,2.0172556463500118,0.0,0.0,0.0,0.0,0.0,0.0,0.0,0.0,0.0,0.0,0.0,0.0,0.0,0.0,
0.7073,2.0717410883506973,2.0717410883506973,1.9085494774136254,0.0,0.0,0.0,2.0173438847050065,0.0,0.0,0.0,0.0,0.0,0.0,0.0,0.0,0.0,0.0,0.0,0.0,0.0,0.0,
0.7246,2.071839592470396,2.071839592470396,1.9086253636006285,0.0,0.0,0.0,2.017434849513807,0.0,0.0,0.0,0.0,0.0,0.0,0.0,0.0,0.0,0.0,0.0,0.0,0.0,0.0,
0.7418,2.071939913029011,2.071939913029011,1.9087026463125607,0.0,0.0,0.0,2.017527490790194,0.0,0.0,0.0,0.0,0.0,0.0,0.0,0.0,0.0,0.0,0.0,0.0,0.0,0.0,
0.7591,2.0720432184423823,2.0720432184423823,1.9087822254409987,0.0,0.0,0.0,2.017622887441921,0.0,0.0,0.0,0.0,0.0,0.0,0.0,0.0,0.0,0.0,0.0,0.0,0.0,0.0,
0.7763,2.072148316357274,2.072148316357274,1.908863182271992,0.0,0.0,0.0,2.0177199383288467,0.0,0.0,0.0,0.0,0.0,0.0,0.0,0.0,0.0,0.0,0.0,0.0,0.0,0.0,
0.7936,2.0722564308328257,2.0722564308328257,1.9089464594804115,0.0,0.0,0.0,2.0178197737153543,0.0,0.0,0.0,0.0,0.0,0.0,0.0,0.0,0.0,0.0,0.0,0.0,0.0,0.0,
0.8108,2.0723663140118633,2.0723663140118633,1.9090310956605467,0.0,0.0,0.0,2.017921241228091,0.0,0.0,0.0,0.0,0.0,0.0,0.0,0.0,0.0,0.0,0.0,0.0,0.0,0.0,
0.8281,2.0724792456892387,2.0724792456892387,1.909118076331626,0.0,0.0,0.0,2.0180255225700345,0.0,0.0,0.0,0.0,0.0,0.0,0.0,0.0,0.0,0.0,0.0,0.0,0.0,0.0,
0.8453,2.072593922410228,2.072593922410228,1.9092063973342466,0.0,0.0,0.0,2.0181314140515676,0.0,0.0,0.0,0.0,0.0,0.0,0.0,0.0,0.0,0.0,0.0,0.0,0.0,0.0,
0.8626,2.0727116798021337,2.0727116798021337,1.9092970870959294,0.0,0.0,0.0,2.0182401489000656,0.0,0.0,0.0,0.0,0.0,0.0,0.0,0.0,0.0,0.0,0.0,0.0,0.0,0.0,
0.8798,2.0728311587147594,2.0728311587147594,1.909389098638782,0.0,0.0,0.0,2.018350472022767,0.0,0.0,0.0,0.0,0.0,0.0,0.0,0.0,0.0,0.0,0.0,0.0,0.0,0.0,
0.8971,2.0729537507089635,2.0729537507089635,1.90948350336539,0.0,0.0,0.0,2.0184636682611057,0.0,0.0,0.0,0.0,0.0,0.0,0.0,0.0,0.0,0.0,0.0,0.0,0.0,0.0,
0.9143,2.073078040836859,2.073078040836859,1.9095792114117707,0.0,0.0,0.0,2.018578431028496,0.0,0.0,0.0,0.0,0.0,0.0,0.0,0.0,0.0,0.0,0.0,0.0,0.0,0.0,
0.9316,2.0732054766983214,2.0732054766983214,1.909677337225205,0.0,0.0,0.0,2.018696096873949,0.0,0.0,0.0,0.0,0.0,0.0,0.0,0.0,0.0,0.0,0.0,0.0,0.0,0.0,
0.9488,2.073334587441188,2.073334587441188,1.9097767479851475,0.0,0.0,0.0,2.018815307622508,0.0,0.0,0.0,0.0,0.0,0.0,0.0,0.0,0.0,0.0,0.0,0.0,0.0,0.0,
0.9661,2.0734668768142317,2.0734668768142317,1.9098786012561195,0.0,0.0,0.0,2.018937451628194,0.0,0.0,0.0,0.0,0.0,0.0,0.0,0.0,0.0,0.0,0.0,0.0,0.0,0.0,
0.9833,2.073600817950103,2.073600817950103,1.9099817211876906,0.0,0.0,0.0,2.019061119029299,0.0,0.0,0.0,0.0,0.0,0.0,0.0,0.0,0.0,0.0,0.0,0.0,0.0,0.0,
1.0006,2.0737379708607273,2.0737379708607273,1.9100873085370351,0.0,0.0,0.0,2.019187750086163,0.0,0.0,0.0,0.0,0.0,0.0,0.0,0.0,0.0,0.0,0.0,0.0,0.0,0.0,
1.0179,2.0738775664834996,2.0738775664834996,1.9101947709085665,0.0,0.0,0.0,2.0193166346251883,0.0,0.0,0.0,0.0,0.0,0.0,0.0,0.0,0.0,0.0,0.0,0.0,0.0,0.0,
1.0351,2.074018779406537,2.074018779406537,1.9103034726476422,0.0,0.0,0.0,2.019447010486905,0.0,0.0,0.0,0.0,0.0,0.0,0.0,0.0,0.0,0.0,0.0,0.0,0.0,0.0,
1.0524,2.074163254342438,2.074163254342438,1.9104146795110437,0.0,0.0,0.0,2.0195803960653067,0.0,0.0,0.0,0.0,0.0,0.0,0.0,0.0,0.0,0.0,0.0,0.0,0.0,0.0,
1.0696,2.0743093237900236,2.0743093237900236,1.910527107671187,0.0,0.0,0.0,2.0197152517504113,0.0,0.0,0.0,0.0,0.0,0.0,0.0,0.0,0.0,0.0,0.0,0.0,0.0,0.0,
1.0869,2.0744586890304904,2.0744586890304904,1.9106420662789816,0.0,0.0,0.0,2.0198531481133206,0.0,0.0,0.0,0.0,0.0,0.0,0.0,0.0,0.0,0.0,0.0,0.0,0.0,0.0,
1.1041,2.0746096261242957,2.0746096261242957,1.9107582281973907,0.0,0.0,0.0,2.0199924934819937,0.0,0.0,0.0,0.0,0.0,0.0,0.0,0.0,0.0,0.0,0.0,0.0,0.0,0.0,
1.1214,2.074763893051226,2.074763893051226,1.910876946057152,0.0,0.0,0.0,2.020134910719868,0.0,0.0,0.0,0.0,0.0,0.0,0.0,0.0,0.0,0.0,0.0,0.0,0.0,0.0,
1.1386,2.074919709302503,2.074919709302503,1.9109968493253997,0.0,0.0,0.0,2.020278755976802,0.0,0.0,0.0,0.0,0.0,0.0,0.0,0.0,0.0,0.0,0.0,0.0,0.0,0.0,
1.1559,2.075078889691035,2.075078889691035,1.911119334201337,0.0,0.0,0.0,2.0204257045278022,0.0,0.0,0.0,0.0,0.0,0.0,0.0,0.0,0.0,0.0,0.0,0.0,0.0,0.0,
1.1731,2.0752395970033657,2.0752395970033657,1.911242986666914,0.0,0.0,0.0,2.0205740602245483,0.0,0.0,0.0,0.0,0.0,0.0,0.0,0.0,0.0,0.0,0.0,0.0,0.0,0.0,
1.1904,2.0754037030246986,2.0754037030246986,1.9113692465814696,0.0,0.0,0.0,2.0207255508769557,0.0,0.0,0.0,0.0,0.0,0.0,0.0,0.0,0.0,0.0,0.0,0.0,0.0,0.0,
1.2076,2.0755693136969056,2.0755693136969056,1.9114966563494042,0.0,0.0,0.0,2.0208784279144054,0.0,0.0,0.0,0.0,0.0,0.0,0.0,0.0,0.0,0.0,0.0,0.0,0.0,0.0,
1.2249,2.0757383579212445,2.0757383579212445,1.9116266995848852,0.0,0.0,0.0,2.021034471809125,0.0,0.0,0.0,0.0,0.0,0.0,0.0,0.0,0.0,0.0,0.0,0.0,0.0,0.0,
1.2421,2.075908884650352,2.075908884650352,1.9117578750194504,0.0,0.0,0.0,2.0211918814400516,0.0,0.0,0.0,0.0,0.0,0.0,0.0,0.0,0.0,0.0,0.0,0.0,0.0,0.0,
1.2594,2.076082880049943,2.076082880049943,1.9118917101197477,0.0,0.0,0.0,2.021352490073211,0.0,0.0,0.0,0.0,0.0,0.0,0.0,0.0,0.0,0.0,0.0,0.0,0.0,0.0,
1.2766,2.076258335934277,2.076258335934277,1.9120266598461575,0.0,0.0,0.0,2.0215144439049038,0.0,0.0,0.0,0.0,0.0,0.0,0.0,0.0,0.0,0.0,0.0,0.0,0.0,0.0,
1.2939,2.0764372958866106,2.0764372958866106,1.9121642956185685,0.0,0.0,0.0,2.0216796291305967,0.0,0.0,0.0,0.0,0.0,0.0,0.0,0.0,0.0,0.0,0.0,0.0,0.0,0.0,
1.3111,2.0766176944289674,2.0766176944289674,1.912303028524784,0.0,0.0,0.0,2.021846139127573,0.0,0.0,0.0,0.0,0.0,0.0,0.0,0.0,0.0,0.0,0.0,0.0,0.0,0.0,
1.3284,2.0768016327200147,2.0768016327200147,1.9124444740417748,0.0,0.0,0.0,2.0220159131606015,0.0,0.0,0.0,0.0,0.0,0.0,0.0,0.0,0.0,0.0,0.0,0.0,0.0,0.0,
1.3456,2.076986987830991,2.076986987830991,1.9125869992803795,0.0,0.0,0.0,2.022186991647454,0.0,0.0,0.0,0.0,0.0,0.0,0.0,0.0,0.0,0.0,0.0,0.0,0.0,0.0,
1.3629,2.0771759186585808,2.0771759186585808,1.9127322638815314,0.0,0.0,0.0,2.0223613670662313,0.0,0.0,0.0,0.0,0.0,0.0,0.0,0.0,0.0,0.0,0.0,0.0,0.0,0.0,
1.3801,2.0773662446599754,2.0773662446599754,1.9128785908716126,0.0,0.0,0.0,2.022537026730521,0.0,0.0,0.0,0.0,0.0,0.0,0.0,0.0,0.0,0.0,0.0,0.0,0.0,0.0,
1.3974,2.077560182637286,2.077560182637286,1.9130276841655562,0.0,0.0,0.0,2.0227160164800426,0.0,0.0,0.0,0.0,0.0,0.0,0.0,0.0,0.0,0.0,0.0,0.0,0.0,0.0,
1.4146,2.0777554942656202,2.0777554942656202,1.9131778225947098,0.0,0.0,0.0,2.0228962703753166,0.0,0.0,0.0,0.0,0.0,0.0,0.0,0.0,0.0,0.0,0.0,0.0,0.0,0.0,
1.4319,2.0779544544247948,2.0779544544247948,1.913330754461155,0.0,0.0,0.0,2.023079887770248,0.0,0.0,0.0,0.0,0.0,0.0,0.0,0.0,0.0,0.0,0.0,0.0,0.0,0.0,
1.4491,2.0781547668349725,2.0781547668349725,1.913484714287505,0.0,0.0,0.0,2.02326474931915,0.0,0.0,0.0,0.0,0.0,0.0,0.0,0.0,0.0,0.0,0.0,0.0,0.0,0.0,
1.4664,2.0783587646308272,2.0783587646308272,1.9136414948793192,0.0,0.0,0.0,2.023453008046991,0.0,0.0,0.0,0.0,0.0,0.0,0.0,0.0,0.0,0.0,0.0,0.0,0.0,0.0,
1.4836,2.0785640933998546,2.0785640933998546,1.9137992863336297,0.0,0.0,0.0,2.023642491044446,0.0,0.0,0.0,0.0,0.0,0.0,0.0,0.0,0.0,0.0,0.0,0.0,0.0,0.0,
1.5009,2.0787731447137183,2.0787731447137183,1.9139599260789815,0.0,0.0,0.0,2.023835405168806,0.0,0.0,0.0,0.0,0.0,0.0,0.0,0.0,0.0,0.0,0.0,0.0,0.0,0.0,
1.5182,2.0789847362240184,2.0789847362240184,1.9141225050067894,0.0,0.0,0.0,2.0240306591516086,0.0,0.0,0.0,0.0,0.0,0.0,0.0,0.0,0.0,0.0,0.0,0.0,0.0,0.0,
1.5354,2.079197626988296,2.079197626988296,1.9142860692714136,0.0,0.0,0.0,2.024227107749335,0.0,0.0,0.0,0.0,0.0,0.0,0.0,0.0,0.0,0.0,0.0,0.0,0.0,0.0,
1.5527,2.079414296671268,2.079414296671268,1.9144525235319898,0.0,0.0,0.0,2.024427038958175,0.0,0.0,0.0,0.0,0.0,0.0,0.0,0.0,0.0,0.0,0.0,0.0,0.0,0.0,
1.5699,2.079632244633913,2.079632244633913,1.9146199462247098,0.0,0.0,0.0,2.0246281451641788,0.0,0.0,0.0,0.0,0.0,0.0,0.0,0.0,0.0,0.0,0.0,0.0,0.0,0.0,
1.5872,2.079854009455381,2.079854009455381,1.9147902869447335,0.0,0.0,0.0,2.0248327686184986,0.0,0.0,0.0,0.0,0.0,0.0,0.0,0.0,0.0,0.0,0.0,0.0,0.0,0.0,
1.6044,2.080077031702791,2.080077031702791,1.91496157926845,0.0,0.0,0.0,2.0250385475580104,0.0,0.0,0.0,0.0,0.0,0.0,0.0,0.0,0.0,0.0,0.0,0.0,0.0,0.0,
1.6217,2.080303909069493,2.080303909069493,1.9151358178579523,0.0,0.0,0.0,2.025247878665646,0.0,0.0,0.0,0.0,0.0,0.0,0.0,0.0,0.0,0.0,0.0,0.0,0.0,0.0,
1.6389,2.0805320231286037,2.0805320231286037,1.9153109912984954,0.0,0.0,0.0,2.025458345851901,0.0,0.0,0.0,0.0,0.0,0.0,0.0,0.0,0.0,0.0,0.0,0.0,0.0,0.0,
1.6562,2.0807640308925732,2.0807640308925732,1.9154891394532891,0.0,0.0,0.0,2.025672400412812,0.0,0.0,0.0,0.0,0.0,0.0,0.0,0.0,0.0,0.0,0.0,0.0,0.0,0.0,
1.6734,2.0809972547352684,2.0809972547352684,1.9156682057818966,0.0,0.0,0.0,2.025887571750811,0.0,0.0,0.0,0.0,0.0,0.0,0.0,0.0,0.0,0.0,0.0,0.0,0.0,0.0,
1.6907,2.0812344111983694,2.0812344111983694,1.9158502754861264,0.0,0.0,0.0,2.026106365960955,0.0,0.0,0.0,0.0,0.0,0.0,0.0,0.0,0.0,0.0,0.0,0.0,0.0,0.0,
1.7079,2.081472763246069,2.081472763246069,1.9160332467619574,0.0,0.0,0.0,2.0263262577513648,0.0,0.0,0.0,0.0,0.0,0.0,0.0,0.0,0.0,0.0,0.0,0.0,0.0,0.0,
1.7252,2.081715087164652,2.081715087164652,1.9162192502906874,0.0,0.0,0.0,2.026549808206664,0.0,0.0,0.0,0.0,0.0,0.0,0.0,0.0,0.0,0.0,0.0,0.0,0.0,0.0,
1.7424,2.081958586292987,2.081958586292987,1.9164061388634472,0.0,0.0,0.0,2.026774437149807,0.0,0.0,0.0,0.0,0.0,0.0,0.0,0.0,0.0,0.0,0.0,0.0,0.0,0.0,
1.7597,2.0822060968826825,2.0822060968826825,1.9165960887853204,0.0,0.0,0.0,2.0270027608502286,0.0,0.0,0.0,0.0,0.0,0.0,0.0,0.0,0.0,0.0,0.0,0.0,0.0,0.0,
1.7769,2.0824547624263534,2.0824547624263534,1.9167869072979715,0.0,0.0,0.0,2.027232144050226,0.0,0.0,0.0,0.0,0.0,0.0,0.0,0.0,0.0,0.0,0.0,0.0,0.0,0.0,
1.7942,2.082707479367002,2.082707479367002,1.916980816477955,0.0,0.0,0.0,2.0274652584039865,0.0,0.0,0.0,0.0,0.0,0.0,0.0,0.0,0.0,0.0,0.0,0.0,0.0,0.0,
1.8114,2.0829613311247352,2.0829613311247352,1.9171755778694504,0.0,0.0,0.0,2.0276994133729738,0.0,0.0,0.0,0.0,0.0,0.0,0.0,0.0,0.0,0.0,0.0,0.0,0.0,0.0,
1.8287,2.0832192745654554,2.0832192745654554,1.9173734594716605,0.0,0.0,0.0,2.027937336200857,0.0,0.0,0.0,0.0,0.0,0.0,0.0,0.0,0.0,0.0,0.0,0.0,0.0,0.0,
1.8459,2.083478332805119,2.083478332805119,1.9175721769797953,0.0,0.0,0.0,2.0281762808633443,0.0,0.0,0.0,0.0,0.0,0.0,0.0,0.0,0.0,0.0,0.0,0.0,0.0,0.0,
1.8632,2.0837415233695227,2.0837415233695227,1.9177740444703761,0.0,0.0,0.0,2.0284190304031404,0.0,0.0,0.0,0.0,0.0,0.0,0.0,0.0,0.0,0.0,0.0,0.0,0.0,0.0,
1.8804,2.0840058088333913,2.0840058088333913,1.9179767316347198,0.0,0.0,0.0,2.0286627831005006,0.0,0.0,0.0,0.0,0.0,0.0,0.0,0.0,0.0,0.0,0.0,0.0,0.0,0.0,
1.8977,2.0842742676249477,2.0842742676249477,1.9181825987848298,0.0,0.0,0.0,2.028910378011575,0.0,0.0,0.0,0.0,0.0,0.0,0.0,0.0,0.0,0.0,0.0,0.0,0.0,0.0,
1.9149,2.084543801535095,2.084543801535095,1.9183892694496962,0.0,0.0,0.0,2.029158957506629,0.0,0.0,0.0,0.0,0.0,0.0,0.0,0.0,0.0,0.0,0.0,0.0,0.0,0.0,
1.9322,2.0848175501426542,2.0848175501426542,1.9185991503385726,0.0,0.0,0.0,2.029411416874627,0.0,0.0,0.0,0.0,0.0,0.0,0.0,0.0,0.0,0.0,0.0,0.0,0.0,0.0,
1.9494,2.0850923542065147,2.0850923542065147,1.9188098186561038,0.0,0.0,0.0,2.0296648423563775,0.0,0.0,0.0,0.0,0.0,0.0,0.0,0.0,0.0,0.0,0.0,0.0,0.0,0.0,
1.9667,2.0853714147099556,2.0853714147099556,1.9190237276741677,0.0,0.0,0.0,2.0299221856980263,0.0,0.0,0.0,0.0,0.0,0.0,0.0,0.0,0.0,0.0,0.0,0.0,0.0,0.0,
1.9839,2.0856515111260365,2.0856515111260365,1.9192384081075202,0.0,0.0,0.0,2.0301804767865312,0.0,0.0,0.0,0.0,0.0,0.0,0.0,0.0,0.0,0.0,0.0,0.0,0.0,0.0,
2.0012,2.0859359061020926,2.0859359061020926,1.9194563599596246,0.0,0.0,0.0,2.0304427240546032,0.0,0.0,0.0,0.0,0.0,0.0,0.0,0.0,0.0,0.0,0.0,0.0,0.0,0.0,
2.0184,2.0862213175658404,2.0862213175658404,1.9196750672861707,0.0,0.0,0.0,2.0307059008059505,0.0,0.0,0.0,0.0,0.0,0.0,0.0,0.0,0.0,0.0,0.0,0.0,0.0,0.0,
2.0357,2.086511070094084,2.086511070094084,1.9198970769948946,0.0,0.0,0.0,2.0309730723943544,0.0,0.0,0.0,0.0,0.0,0.0,0.0,0.0,0.0,0.0,0.0,0.0,0.0,0.0,
2.053,2.086803518010818,2.086803518010818,1.9201211272688004,0.0,0.0,0.0,2.031242721096812,0.0,0.0,0.0,0.0,0.0,0.0,0.0,0.0,0.0,0.0,0.0,0.0,0.0,0.0,
2.0702,2.08709695347288,2.08709695347288,1.920345909218629,0.0,0.0,0.0,2.0315132720547964,0.0,0.0,0.0,0.0,0.0,0.0,0.0,0.0,0.0,0.0,0.0,0.0,0.0,0.0,
2.0875,2.0873947945523907,2.0873947945523907,1.9205740405089036,0.0,0.0,0.0,2.0317878765378947,0.0,0.0,0.0,0.0,0.0,0.0,0.0,0.0,0.0,0.0,0.0,0.0,0.0,0.0,
2.1047,2.0876936040498766,2.0876936040498766,1.9208028877150447,0.0,0.0,0.0,2.032063365271599,0.0,0.0,0.0,0.0,0.0,0.0,0.0,0.0,0.0,0.0,0.0,0.0,0.0,0.0,
2.122,2.0879968626568277,2.0879968626568277,1.9210351158541137,0.0,0.0,0.0,2.032342947055923,0.0,0.0,0.0,0.0,0.0,0.0,0.0,0.0,0.0,0.0,0.0,0.0,0.0,0.0,
2.1392,2.088301070673764,2.088301070673764,1.9212680442210353,0.0,0.0,0.0,2.032623395189521,0.0,0.0,0.0,0.0,0.0,0.0,0.0,0.0,0.0,0.0,0.0,0.0,0.0,0.0,
2.1565,2.0886097716978886,2.0886097716978886,1.921504385371285,0.0,0.0,0.0,2.032907976255687,0.0,0.0,0.0,0.0,0.0,0.0,0.0,0.0,0.0,0.0,0.0,0.0,0.0,0.0,
2.1737,2.0889194032436835,2.0889194032436835,1.9217414111334015,0.0,0.0,0.0,2.0331934058735897,0.0,0.0,0.0,0.0,0.0,0.0,0.0,0.0,0.0,0.0,0.0,0.0,0.0,0.0,
2.191,2.089233572106559,2.089233572106559,1.9219818817909504,0.0,0.0,0.0,2.0334830086680227,0.0,0.0,0.0,0.0,0.0,0.0,0.0,0.0,0.0,0.0,0.0,0.0,0.0,0.0,
2.2082,2.089548652722777,2.089548652722777,1.9222230215163152,0.0,0.0,0.0,2.033773442320623,0.0,0.0,0.0,0.0,0.0,0.0,0.0,0.0,0.0,0.0,0.0,0.0,0.0,0.0,
2.2255,2.089868315384739,2.089868315384739,1.9224676385147896,0.0,0.0,0.0,2.0340680897614223,0.0,0.0,0.0,0.0,0.0,0.0,0.0,0.0,0.0,0.0,0.0,0.0,0.0,0.0,
2.2427,2.090188871152104,2.090188871152104,1.9227129091089559,0.0,0.0,0.0,2.034363550471055,0.0,0.0,0.0,0.0,0.0,0.0,0.0,0.0,0.0,0.0,0.0,0.0,0.0,0.0,
