energies(eV),real_xx,real_yy,real_zz,real_xy,real_yz,real_xz,real_ave,imag_xx,imag_yy,imag_zz,imag_xy,imag_yz,imag_xz,imag_ave,absorption_xx,absorption_yy,absorption_zz,absorption_xy,absorption_yz,absorption_xz,absorption_ave,band_gap
0.0,3.2627331583327006,3.2627331583327006,3.380194279307469,0.0,0.0,0.0,3.30188686532429,0.0,0.0,0.0,0.0,0.0,0.0,0.0,0.0,0.0,0.0,0.0,0.0,0.0,0.0,5.3262
0.0187,3.2627402085311905,3.2627402085311905,3.380202349705154,0.0,0.0,0.0,3.3018942555891786,0.0,0.0,0.0,0.0,0.0,0.0,0.0,0.0,0.0,0.0,0.0,0.0,0.0,0.0,
0.0373,3.2627612089176474,3.2627612089176474,3.3802263890094535,0.0,0.0,0.0,3.3019162689482493,0.0,0.0,0.0,0.0,0.0,0.0,0.0,0.0,0.0,0.0,0.0,0.0,0.0,0.0,
0.056,3.2627963864974143,3.2627963864974143,3.3802666572449795,0.0,0.0,0.0,3.3019531434132694,0.0,0.0,0.0,0.0,0.0,0.0,0.0,0.0,0.0,0.0,0.0,0.0,0.0,0.0,
0.0746,3.2628453670162356,3.2628453670162356,3.3803227262790463,0.0,0.0,0.0,3.3020044867705054,0.0,0.0,0.0,0.0,0.0,0.0,0.0,0.0,0.0,0.0,0.0,0.0,0.0,0.0,
0.0933,3.262908679933548,3.262908679933548,3.3803952025913735,0.0,0.0,0.0,3.302070854152823,0.0,0.0,0.0,0.0,0.0,0.0,0.0,0.0,0.0,0.0,0.0,0.0,0.0,0.0,
0.1119,3.262985651664315,3.262985651664315,3.380483315613936,0.0,0.0,0.0,3.3021515396475216,0.0,0.0,0.0,0.0,0.0,0.0,0.0,0.0,0.0,0.0,0.0,0.0,0.0,0.0,
0.1306,3.26307711424316,3.26307711424316,3.3805880184378427,0.0,0.0,0.0,3.3022474156413875,0.0,0.0,0.0,0.0,0.0,0.0,0.0,0.0,0.0,0.0,0.0,0.0,0.0,0.0,
0.1492,3.263182094603719,3.263182094603719,3.3807081978664417,0.0,0.0,0.0,3.30235746235796,0.0,0.0,0.0,0.0,0.0,0.0,0.0,0.0,0.0,0.0,0.0,0.0,0.0,0.0,
0.1679,3.2633017275463256,3.2633017275463256,3.380845153848034,0.0,0.0,0.0,3.302482869646895,0.0,0.0,0.0,0.0,0.0,0.0,0.0,0.0,0.0,0.0,0.0,0.0,0.0,0.0,
0.1865,3.2634347403055743,3.2634347403055743,3.380997430277859,0.0,0.0,0.0,3.302622303629669,0.0,0.0,0.0,0.0,0.0,0.0,0.0,0.0,0.0,0.0,0.0,0.0,0.0,0.0,
0.2052,3.263582570707469,3.263582570707469,3.3811666742969253,0.0,0.0,0.0,3.3027772719039543,0.0,0.0,0.0,0.0,0.0,0.0,0.0,0.0,0.0,0.0,0.0,0.0,0.0,0.0,
0.2238,3.2637436460027263,3.2637436460027263,3.381351086526668,0.0,0.0,0.0,3.3029461261773734,0.0,0.0,0.0,0.0,0.0,0.0,0.0,0.0,0.0,0.0,0.0,0.0,0.0,0.0,
0.2425,3.263919707372674,3.263919707372674,3.3815526617261056,0.0,0.0,0.0,3.303130692157151,0.0,0.0,0.0,0.0,0.0,0.0,0.0,0.0,0.0,0.0,0.0,0.0,0.0,0.0,
0.2611,3.264108881731851,3.264108881731851,3.381769256790481,0.0,0.0,0.0,3.3033290067513943,0.0,0.0,0.0,0.0,0.0,0.0,0.0,0.0,0.0,0.0,0.0,0.0,0.0,0.0,
0.2798,3.2643132140163362,3.2643132140163362,3.3820032146126486,0.0,0.0,0.0,3.3035432142151073,0.0,0.0,0.0,0.0,0.0,0.0,0.0,0.0,0.0,0.0,0.0,0.0,0.0,0.0,
0.2984,3.2645305303846364,3.2645305303846364,3.382252047822243,0.0,0.0,0.0,3.303771036197172,0.0,0.0,0.0,0.0,0.0,0.0,0.0,0.0,0.0,0.0,0.0,0.0,0.0,0.0,
0.3171,3.264763179997369,3.264763179997369,3.382518448052435,0.0,0.0,0.0,3.304014936015724,0.0,0.0,0.0,0.0,0.0,0.0,0.0,0.0,0.0,0.0,0.0,0.0,0.0,0.0,
0.3357,3.2650086877689497,3.2650086877689497,3.3827995830404203,0.0,0.0,0.0,3.3042723195261066,0.0,0.0,0.0,0.0,0.0,0.0,0.0,0.0,0.0,0.0,0.0,0.0,0.0,0.0,
0.3544,3.2652697076248676,3.2652697076248676,3.383098493857532,0.0,0.0,0.0,3.3045459697024224,0.0,0.0,0.0,0.0,0.0,0.0,0.0,0.0,0.0,0.0,0.0,0.0,0.0,0.0,
0.373,3.2655434626793034,3.2655434626793034,3.3834120026336882,0.0,0.0,0.0,3.3048329759974315,0.0,0.0,0.0,0.0,0.0,0.0,0.0,0.0,0.0,0.0,0.0,0.0,0.0,0.0,
0.3917,3.2658329122337495,3.2658329122337495,3.3837435006680607,0.0,0.0,0.0,3.3051364417118534,0.0,0.0,0.0,0.0,0.0,0.0,0.0,0.0,0.0,0.0,0.0,0.0,0.0,0.0,
0.4103,3.266134976977211,3.266134976977211,3.3840894636799868,0.0,0.0,0.0,3.3054531392114694,0.0,0.0,0.0,0.0,0.0,0.0,0.0,0.0,0.0,0.0,0.0,0.0,0.0,0.0,
0.429,3.266452922269867,3.266452922269867,3.3844536340787283,0.0,0.0,0.0,3.3057864928728207,0.0,0.0,0.0,0.0,0.0,0.0,0.0,0.0,0.0,0.0,0.0,0.0,0.0,0.0,
0.4476,3.2667833656814116,3.2667833656814116,3.3848321402804693,0.0,0.0,0.0,3.3061329572144307,0.0,0.0,0.0,0.0,0.0,0.0,0.0,0.0,0.0,0.0,0.0,0.0,0.0,0.0,
0.4663,3.2671298793853443,3.2671298793853443,3.3852290767801874,0.0,0.0,0.0,3.3064962785169585,0.0,0.0,0.0,0.0,0.0,0.0,0.0,0.0,0.0,0.0,0.0,0.0,0.0,0.0,
0.4849,3.2674887770681873,3.2674887770681873,3.3856402237083842,0.0,0.0,0.0,3.3068725926149196,0.0,0.0,0.0,0.0,0.0,0.0,0.0,0.0,0.0,0.0,0.0,0.0,0.0,0.0,
0.5036,3.2678639385438917,3.2678639385438917,3.386070028715656,0.0,0.0,0.0,3.3072659686011465,0.0,0.0,0.0,0.0,0.0,0.0,0.0,0.0,0.0,0.0,0.0,0.0,0.0,0.0,
0.5222,3.268251372781798,3.268251372781798,3.3865139225734064,0.0,0.0,0.0,3.307672222712334,0.0,0.0,0.0,0.0,0.0,0.0,0.0,0.0,0.0,0.0,0.0,0.0,0.0,0.0,
0.5409,3.268655268136497,3.268655268136497,3.386976707252886,0.0,0.0,0.0,3.30809574784196,0.0,0.0,0.0,0.0,0.0,0.0,0.0,0.0,0.0,0.0,0.0,0.0,0.0,0.0,
0.5595,3.269071327955248,3.269071327955248,3.3874534630013478,0.0,0.0,0.0,3.3085320396372815,0.0,0.0,0.0,0.0,0.0,0.0,0.0,0.0,0.0,0.0,0.0,0.0,0.0,0.0,
0.5782,3.269504050107487,3.269504050107487,3.3879493473719666,0.0,0.0,0.0,3.308985815862313,0.0,0.0,0.0,0.0,0.0,0.0,0.0,0.0,0.0,0.0,0.0,0.0,0.0,0.0,
0.5968,3.269948831341938,3.269948831341938,3.38845908883008,0.0,0.0,0.0,3.309452250504652,0.0,0.0,0.0,0.0,0.0,0.0,0.0,0.0,0.0,0.0,0.0,0.0,0.0,0.0,
0.6155,3.270410480091452,3.270410480091452,3.3889882018692705,0.0,0.0,0.0,3.309936387350725,0.0,0.0,0.0,0.0,0.0,0.0,0.0,0.0,0.0,0.0,0.0,0.0,0.0,0.0,
0.6341,3.2708840854576526,3.2708840854576526,3.389531061821593,0.0,0.0,0.0,3.3104330775789657,0.0,0.0,0.0,0.0,0.0,0.0,0.0,0.0,0.0,0.0,0.0,0.0,0.0,0.0,
0.6528,3.2713747675608764,3.2713747675608764,3.3900935415780307,0.0,0.0,0.0,3.310947692233261,0.0,0.0,0.0,0.0,0.0,0.0,0.0,0.0,0.0,0.0,0.0,0.0,0.0,0.0,
0.6714,3.271877306733986,3.271877306733986,3.3906696618909744,0.0,0.0,0.0,3.3114747584529822,0.0,0.0,0.0,0.0,0.0,0.0,0.0,0.0,0.0,0.0,0.0,0.0,0.0,0.0,
0.6901,3.2723971359851416,3.2723971359851416,3.3912656556057175,0.0,0.0,0.0,3.3120199758586666,0.0,0.0,0.0,0.0,0.0,0.0,0.0,0.0,0.0,0.0,0.0,0.0,0.0,0.0,
0.7087,3.2729287256829442,3.2729287256829442,3.391875187352529,0.0,0.0,0.0,3.3125775462394724,0.0,0.0,0.0,0.0,0.0,0.0,0.0,0.0,0.0,0.0,0.0,0.0,0.0,0.0,
0.7274,3.2734778230008557,3.2734778230008557,3.392504851589076,0.0,0.0,0.0,3.313153499196929,0.0,0.0,0.0,0.0,0.0,0.0,0.0,0.0,0.0,0.0,0.0,0.0,0.0,0.0,
0.746,3.274038587073029,3.274038587073029,3.393147955183602,0.0,0.0,0.0,3.313741709776553,0.0,0.0,0.0,0.0,0.0,0.0,0.0,0.0,0.0,0.0,0.0,0.0,0.0,0.0,
0.7647,3.274617080593919,3.274617080593919,3.3938114559669725,0.0,0.0,0.0,3.3143485390516036,0.0,0.0,0.0,0.0,0.0,0.0,0.0,0.0,0.0,0.0,0.0,0.0,0.0,0.0,
0.7833,3.2752071501173425,3.2752071501173425,3.3944883013066205,0.0,0.0,0.0,3.3149675338471014,0.0,0.0,0.0,0.0,0.0,0.0,0.0,0.0,0.0,0.0,0.0,0.0,0.0,0.0,
0.802,3.275815175293679,3.275815175293679,3.395185814271827,0.0,0.0,0.0,3.3156053882863947,0.0,0.0,0.0,0.0,0.0,0.0,0.0,0.0,0.0,0.0,0.0,0.0,0.0,0.0,
0.8206,3.276434688673851,3.276434688673851,3.3958965808899872,0.0,0.0,0.0,3.3162553194125635,0.0,0.0,0.0,0.0,0.0,0.0,0.0,0.0,0.0,0.0,0.0,0.0,0.0,0.0,
0.8393,3.2770723883794934,3.2770723883794934,3.3966282914400967,0.0,0.0,0.0,3.316924356066361,0.0,0.0,0.0,0.0,0.0,0.0,0.0,0.0,0.0,0.0,0.0,0.0,0.0,0.0,
0.8579,3.2777214914582484,3.2777214914582484,3.3973731686683513,0.0,0.0,0.0,3.317605383861616,0.0,0.0,0.0,0.0,0.0,0.0,0.0,0.0,0.0,0.0,0.0,0.0,0.0,0.0,
0.8766,3.2783890160999327,3.2783890160999327,3.398139272142573,0.0,0.0,0.0,3.3183057681141457,0.0,0.0,0.0,0.0,0.0,0.0,0.0,0.0,0.0,0.0,0.0,0.0,0.0,0.0,
0.8952,3.279067862269643,3.279067862269643,3.398918459282893,0.0,0.0,0.0,3.31901806127406,0.0,0.0,0.0,0.0,0.0,0.0,0.0,0.0,0.0,0.0,0.0,0.0,0.0,0.0,
0.9139,3.279765369905193,3.279765369905193,3.399719161134985,0.0,0.0,0.0,3.3197499669817905,0.0,0.0,0.0,0.0,0.0,0.0,0.0,0.0,0.0,0.0,0.0,0.0,0.0,0.0,
0.9325,3.2804741202297034,3.2804741202297034,3.4005328676425237,0.0,0.0,0.0,3.3204937027006434,0.0,0.0,0.0,0.0,0.0,0.0,0.0,0.0,0.0,0.0,0.0,0.0,0.0,0.0,
0.9512,3.2812017766930035,3.2812017766930035,3.4013683836298894,0.0,0.0,0.0,3.321257312338632,0.0,0.0,0.0,0.0,0.0,0.0,0.0,0.0,0.0,0.0,0.0,0.0,0.0,0.0,
0.9698,3.2819406000355134,3.2819406000355134,3.402216829306464,0.0,0.0,0.0,3.322032676459164,0.0,0.0,0.0,0.0,0.0,0.0,0.0,0.0,0.0,0.0,0.0,0.0,0.0,0.0,
0.9885,3.2826985790686924,3.2826985790686924,3.403087385690336,0.0,0.0,0.0,3.322828181275907,0.0,0.0,0.0,0.0,0.0,0.0,0.0,0.0,0.0,0.0,0.0,0.0,0.0,0.0,
1.0071,3.2834676522266406,3.2834676522266406,3.4039708008892764,0.0,0.0,0.0,3.323635368447519,0.0,0.0,0.0,0.0,0.0,0.0,0.0,0.0,0.0,0.0,0.0,0.0,0.0,0.0,
1.0258,3.2842561356193727,3.2842561356193727,3.4048766346464396,0.0,0.0,0.0,3.3244629686283953,0.0,0.0,0.0,0.0,0.0,0.0,0.0,0.0,0.0,0.0,0.0,0.0,0.0,0.0,
1.0444,3.2850556434669245,3.2850556434669245,3.405795260489063,0.0,0.0,0.0,3.3253021824743043,0.0,0.0,0.0,0.0,0.0,0.0,0.0,0.0,0.0,0.0,0.0,0.0,0.0,0.0,
1.0631,3.285874821203481,3.285874821203481,3.406736619535585,0.0,0.0,0.0,3.326162087314182,0.0,0.0,0.0,0.0,0.0,0.0,0.0,0.0,0.0,0.0,0.0,0.0,0.0,0.0,
1.0817,3.2867049568414646,3.2867049568414646,3.407690708139838,0.0,0.0,0.0,3.327033540607589,0.0,0.0,0.0,0.0,0.0,0.0,0.0,0.0,0.0,0.0,0.0,0.0,0.0,0.0,
1.1004,3.2875550272554195,3.2875550272554195,3.408667851567173,0.0,0.0,0.0,3.327925968692671,0.0,0.0,0.0,0.0,0.0,0.0,0.0,0.0,0.0,0.0,0.0,0.0,0.0,0.0,
1.119,3.288415992169459,3.288415992169459,3.409657666288933,0.0,0.0,0.0,3.328829883542617,0.0,0.0,0.0,0.0,0.0,0.0,0.0,0.0,0.0,0.0,0.0,0.0,0.0,0.0,
1.1377,3.289297162106675,3.289297162106675,3.4106708646131847,0.0,0.0,0.0,3.329755062942178,0.0,0.0,0.0,0.0,0.0,0.0,0.0,0.0,0.0,0.0,0.0,0.0,0.0,0.0,
1.1563,3.290189166333219,3.290189166333219,3.411696680300762,0.0,0.0,0.0,3.330691670989067,0.0,0.0,0.0,0.0,0.0,0.0,0.0,0.0,0.0,0.0,0.0,0.0,0.0,0.0,
1.175,3.291101651323223,3.291101651323223,3.412746215725324,0.0,0.0,0.0,3.3316498394572567,0.0,0.0,0.0,0.0,0.0,0.0,0.0,0.0,0.0,0.0,0.0,0.0,0.0,0.0,
1.1936,3.2920249136244593,3.2920249136244593,3.4138083189877704,0.0,0.0,0.0,3.3326193820788963,0.0,0.0,0.0,0.0,0.0,0.0,0.0,0.0,0.0,0.0,0.0,0.0,0.0,0.0,
1.2123,3.292968938060542,3.292968938060542,3.414894485680225,0.0,0.0,0.0,3.333610787267103,0.0,0.0,0.0,0.0,0.0,0.0,0.0,0.0,0.0,0.0,0.0,0.0,0.0,0.0,
1.2309,3.2939236861079855,3.2939236861079855,3.41599317516995,0.0,0.0,0.0,3.3346135157953065,0.0,0.0,0.0,0.0,0.0,0.0,0.0,0.0,0.0,0.0,0.0,0.0,0.0,0.0,
1.2496,3.294899483436458,3.294899483436458,3.417116279553728,0.0,0.0,0.0,3.335638415475548,0.0,0.0,0.0,0.0,0.0,0.0,0.0,0.0,0.0,0.0,0.0,0.0,0.0,0.0,
1.2682,3.29588595400384,3.29588595400384,3.418251866264205,0.0,0.0,0.0,3.336674591423962,0.0,0.0,0.0,0.0,0.0,0.0,0.0,0.0,0.0,0.0,0.0,0.0,0.0,0.0,
1.2869,3.2968937669227967,3.2968937669227967,3.419412227325703,0.0,0.0,0.0,3.3377332537237656,0.0,0.0,0.0,0.0,0.0,0.0,0.0,0.0,0.0,0.0,0.0,0.0,0.0,0.0,
1.3055,3.2979122060886272,3.2979122060886272,3.420585034904925,0.0,0.0,0.0,3.338803149027393,0.0,0.0,0.0,0.0,0.0,0.0,0.0,0.0,0.0,0.0,0.0,0.0,0.0,0.0,
1.3242,3.2989522867565046,3.2989522867565046,3.4217829845168093,0.0,0.0,0.0,3.3398958526766065,0.0,0.0,0.0,0.0,0.0,0.0,0.0,0.0,0.0,0.0,0.0,0.0,0.0,0.0,
1.3428,3.30000295011668,3.30000295011668,3.422993349597212,0.0,0.0,0.0,3.340999749943524,0.0,0.0,0.0,0.0,0.0,0.0,0.0,0.0,0.0,0.0,0.0,0.0,0.0,0.0,
1.3615,3.3010755603712245,3.3010755603712245,3.424229232858697,0.0,0.0,0.0,3.3421267845337153,0.0,0.0,0.0,0.0,0.0,0.0,0.0,0.0,0.0,0.0,0.0,0.0,0.0,0.0,
1.3801,3.302158713261944,3.302158713261944,3.425477505404312,0.0,0.0,0.0,3.3432649773094005,0.0,0.0,0.0,0.0,0.0,0.0,0.0,0.0,0.0,0.0,0.0,0.0,0.0,0.0,
1.3988,3.303264124849817,3.303264124849817,3.4267516809992435,0.0,0.0,0.0,3.3444266435662926,0.0,0.0,0.0,0.0,0.0,0.0,0.0,0.0,0.0,0.0,0.0,0.0,0.0,0.0,
1.4174,3.3043800425817014,3.3043800425817014,3.428038224671124,0.0,0.0,0.0,3.345599436611509,0.0,0.0,0.0,0.0,0.0,0.0,0.0,0.0,0.0,0.0,0.0,0.0,0.0,0.0,
1.4361,3.305518537399405,3.305518537399405,3.4293510652446892,0.0,0.0,0.0,3.346796046681167,0.0,0.0,0.0,0.0,0.0,0.0,0.0,0.0,0.0,0.0,0.0,0.0,0.0,0.0,
1.4547,3.306667505502699,3.306667505502699,3.430676257785181,0.0,0.0,0.0,3.3480037562635263,0.0,0.0,0.0,0.0,0.0,0.0,0.0,0.0,0.0,0.0,0.0,0.0,0.0,0.0,
1.4734,3.307839375849212,3.307839375849212,3.432028150340394,0.0,0.0,0.0,3.3492356340129397,0.0,0.0,0.0,0.0,0.0,0.0,0.0,0.0,0.0,0.0,0.0,0.0,0.0,0.0,
1.492,3.3090216903311616,3.3090216903311616,3.433392383977605,0.0,0.0,0.0,3.3504785882133095,0.0,0.0,0.0,0.0,0.0,0.0,0.0,0.0,0.0,0.0,0.0,0.0,0.0,0.0,
1.5107,3.310227239172787,3.310227239172787,3.4347837302921866,0.0,0.0,0.0,3.35174606954592,0.0,0.0,0.0,0.0,0.0,0.0,0.0,0.0,0.0,0.0,0.0,0.0,0.0,0.0,
1.5293,3.3114432067874313,3.3114432067874313,3.436187412165396,0.0,0.0,0.0,3.353024608580086,0.0,0.0,0.0,0.0,0.0,0.0,0.0,0.0,0.0,0.0,0.0,0.0,0.0,0.0,
1.548,3.3126827480354786,3.3126827480354786,3.4376186292306206,0.0,0.0,0.0,3.3543280417671926,0.0,0.0,0.0,0.0,0.0,0.0,0.0,0.0,0.0,0.0,0.0,0.0,0.0,0.0,
1.5666,3.313932686566442,3.313932686566442,3.43906218183792,0.0,0.0,0.0,3.355642518323601,0.0,0.0,0.0,0.0,0.0,0.0,0.0,0.0,0.0,0.0,0.0,0.0,0.0,0.0,
1.5853,3.3152065453684547,3.3152065453684547,3.4405337023201366,0.0,0.0,0.0,3.356982264352349,0.0,0.0,0.0,0.0,0.0,0.0,0.0,0.0,0.0,0.0,0.0,0.0,0.0,0.0,
1.6039,3.3164907839255044,3.3164907839255044,3.4420175639893795,0.0,0.0,0.0,3.3583330439467964,0.0,0.0,0.0,0.0,0.0,0.0,0.0,0.0,0.0,0.0,0.0,0.0,0.0,0.0,
1.6226,3.3177992969704757,3.3177992969704757,3.4435298367157836,0.0,0.0,0.0,3.359709476885578,0.0,0.0,0.0,0.0,0.0,0.0,0.0,0.0,0.0,0.0,0.0,0.0,0.0,0.0,
1.6412,3.3191181763003925,3.3191181763003925,3.4450544621001873,0.0,0.0,0.0,3.3610969382336577,0.0,0.0,0.0,0.0,0.0,0.0,0.0,0.0,0.0,0.0,0.0,0.0,0.0,0.0,
1.6599,3.32046169213878,3.32046169213878,3.4466079525699778,0.0,0.0,0.0,3.3625104456158454,0.0,0.0,0.0,0.0,0.0,0.0,0.0,0.0,0.0,0.0,0.0,0.0,0.0,0.0,
1.6785,3.3218155649512875,3.3218155649512875,3.448173813169705,0.0,0.0,0.0,3.363934981024093,0.0,0.0,0.0,0.0,0.0,0.0,0.0,0.0,0.0,0.0,0.0,0.0,0.0,0.0,
1.6972,3.32319444433064,3.32319444433064,3.449769004092021,0.0,0.0,0.0,3.3653859642511,0.0,0.0,0.0,0.0,0.0,0.0,0.0,0.0,0.0,0.0,0.0,0.0,0.0,0.0,
1.7158,3.3245836756401816,3.3245836756401816,3.4513765888032526,0.0,0.0,0.0,3.366847980027872,0.0,0.0,0.0,0.0,0.0,0.0,0.0,0.0,0.0,0.0,0.0,0.0,0.0,0.0,
1.7345,3.3259982918569,3.3259982918569,3.453013980663638,0.0,0.0,0.0,3.3683368547924797,0.0,0.0,0.0,0.0,0.0,0.0,0.0,0.0,0.0,0.0,0.0,0.0,0.0,0.0,
1.7531,3.3274232593410122,3.3274232593410122,3.454663796356606,0.0,0.0,0.0,3.369836771679543,0.0,0.0,0.0,0.0,0.0,0.0,0.0,0.0,0.0,0.0,0.0,0.0,0.0,0.0,
1.7718,3.328873998609346,3.328873998609346,3.456343908013324,0.0,0.0,0.0,3.3713639684106718,0.0,0.0,0.0,0.0,0.0,0.0,0.0,0.0,0.0,0.0,0.0,0.0,0.0,0.0,
1.7904,3.3303350929844893,3.3303350929844893,3.4580364801410854,0.0,0.0,0.0,3.372902222036688,0.0,0.0,0.0,0.0,0.0,0.0,0.0,0.0,0.0,0.0,0.0,0.0,0.0,0.0,
1.8091,3.331822354823549,3.331822354823549,3.459759849453286,0.0,0.0,0.0,3.3744681863667947,0.0,0.0,0.0,0.0,0.0,0.0,0.0,0.0,0.0,0.0,0.0,0.0,0.0,0.0,
1.8277,3.3333199802393816,3.3333199802393816,3.461495722692965,0.0,0.0,0.0,3.376045227723909,0.0,0.0,0.0,0.0,0.0,0.0,0.0,0.0,0.0,0.0,0.0,0.0,0.0,0.0,
1.8464,3.3348441778790705,3.3348441778790705,3.463262907182428,0.0,0.0,0.0,3.37765042098019,0.0,0.0,0.0,0.0,0.0,0.0,0.0,0.0,0.0,0.0,0.0,0.0,0.0,0.0,
1.865,3.3363787523319752,3.3363787523319752,3.4650426461108887,0.0,0.0,0.0,3.379266716924947,0.0,0.0,0.0,0.0,0.0,0.0,0.0,0.0,0.0,0.0,0.0,0.0,0.0,0.0,
1.8837,3.3379403131389354,3.3379403131389354,3.4668542236594413,0.0,0.0,0.0,3.3809116166457707,0.0,0.0,0.0,0.0,0.0,0.0,0.0,0.0,0.0,0.0,0.0,0.0,0.0,0.0,
1.9023,3.339512268906094,3.339512268906094,3.4686784134655113,0.0,0.0,0.0,3.3825676504258997,0.0,0.0,0.0,0.0,0.0,0.0,0.0,0.0,0.0,0.0,0.0,0.0,0.0,0.0,
1.921,3.3411116348306944,3.3411116348306944,3.4705349830502423,0.0,0.0,0.0,3.3842527509038773,0.0,0.0,0.0,0.0,0.0,0.0,0.0,0.0,0.0,0.0,0.0,0.0,0.0,0.0,
1.9396,3.3427214189254917,3.3427214189254917,3.472404230285668,0.0,0.0,0.0,3.3859490227122166,0.0,0.0,0.0,0.0,0.0,0.0,0.0,0.0,0.0,0.0,0.0,0.0,0.0,0.0,
1.9583,3.3443590469710798,3.3443590469710798,3.4743064127542014,0.0,0.0,0.0,3.387674835565454,0.0,0.0,0.0,0.0,0.0,0.0,0.0,0.0,0.0,0.0,0.0,0.0,0.0,0.0,
1.9769,3.3460071216213954,3.3460071216213954,3.4762213461256533,0.0,0.0,0.0,3.3894118631228145,0.0,0.0,0.0,0.0,0.0,0.0,0.0,0.0,0.0,0.0,0.0,0.0,0.0,0.0,
1.9956,3.3476834843368435,3.3476834843368435,3.478169785014269,0.0,0.0,0.0,3.391178917895985,0.0,0.0,0.0,0.0,0.0,0.0,0.0,0.0,0.0,0.0,0.0,0.0,0.0,0.0,
2.0142,3.3493703274871507,3.3493703274871507,3.480131056219246,0.0,0.0,0.0,3.392957237064516,0.0,0.0,0.0,0.0,0.0,0.0,0.0,0.0,0.0,0.0,0.0,0.0,0.0,0.0,
2.0329,3.351085913484393,3.351085913484393,3.482126418616102,0.0,0.0,0.0,3.394766081861629,0.0,0.0,0.0,0.0,0.0,0.0,0.0,0.0,0.0,0.0,0.0,0.0,0.0,0.0,
2.0515,3.3528120193232875,3.3528120193232875,3.4841347032252594,0.0,0.0,0.0,3.3965862472906116,0.0,0.0,0.0,0.0,0.0,0.0,0.0,0.0,0.0,0.0,0.0,0.0,0.0,0.0,
2.0702,3.3545673338208264,3.3545673338208264,3.4861776806820233,0.0,0.0,0.0,3.398437449441225,0.0,0.0,0.0,0.0,0.0,0.0,0.0,0.0,0.0,0.0,0.0,0.0,0.0,0.0,
2.0888,3.3563332133352457,3.3563332133352457,3.488233679070993,0.0,0.0,0.0,3.4003000352471613,0.0,0.0,0.0,0.0,0.0,0.0,0.0,0.0,0.0,0.0,0.0,0.0,0.0,0.0,
2.1075,3.3581287787295047,3.3581287787295047,3.4903249885658694,0.0,0.0,0.0,3.402194182008293,0.0,0.0,0.0,0.0,0.0,0.0,0.0,0.0,0.0,0.0,0.0,0.0,0.0,0.0,
2.1261,3.3599349602873607,3.3599349602873607,3.492429426899956,0.0,0.0,0.0,3.4040997824915586,0.0,0.0,0.0,0.0,0.0,0.0,0.0,0.0,0.0,0.0,0.0,0.0,0.0,0.0,
2.1448,3.3617713167532255,3.3617713167532255,3.494569811855368,0.0,0.0,0.0,3.4060374817872727,0.0,0.0,0.0,0.0,0.0,0.0,0.0,0.0,0.0,0.0,0.0,0.0,0.0,0.0,
2.1634,3.363618346715993,3.363618346715993,3.496723443130429,0.0,0.0,0.0,3.4079867121874714,0.0,0.0,0.0,0.0,0.0,0.0,0.0,0.0,0.0,0.0,0.0,0.0,0.0,0.0,
2.1821,3.365496052838462,3.365496052838462,3.4989136744892817,0.0,0.0,0.0,3.409968593388735,0.0,0.0,0.0,0.0,0.0,0.0,0.0,0.0,0.0,0.0,0.0,0.0,0.0,0.0,
2.2007,3.3673844962056005,3.3673844962056005,3.501117279632704,0.0,0.0,0.0,3.4119620906813015,0.0,0.0,0.0,0.0,0.0,0.0,0.0,0.0,0.0,0.0,0.0,0.0,0.0,0.0,
2.2194,3.3693041296443504,3.3693041296443504,3.503358156996978,0.0,0.0,0.0,3.4139888054285596,0.0,0.0,0.0,0.0,0.0,0.0,0.0,0.0,0.0,0.0,0.0,0.0,0.0,0.0,
2.238,3.3712345707313522,3.3712345707313522,3.505612546032785,0.0,0.0,0.0,3.416027229165163,0.0,0.0,0.0,0.0,0.0,0.0,0.0,0.0,0.0,0.0,0.0,0.0,0.0,0.0,
2.2567,3.3731967289202274,3.3731967289202274,3.507904898868779,0.0,0.0,0.0,3.418099452236411,0.0,0.0,0.0,0.0,0.0,0.0,0.0,0.0,0.0,0.0,0.0,0.0,0.0,0.0,
2.2753,3.3751697720725424,3.3751697720725424,3.51021091215135,0.0,0.0,0.0,3.4201834854321453,0.0,0.0,0.0,0.0,0.0,0.0,0.0,0.0,0.0,0.0,0.0,0.0,0.0,0.0,
2.294,3.3771750729560654,3.3771750729560654,3.512555601066335,0.0,0.0,0.0,3.4223019156594887,0.0,0.0,0.0,0.0,0.0,0.0,0.0,0.0,0.0,0.0,0.0,0.0,0.0,0.0,
2.3126,3.379191343300953,3.379191343300953,3.5149141105874886,0.0,0.0,0.0,3.4244322657297985,0.0,0.0,0.0,0.0,0.0,0.0,0.0,0.0,0.0,0.0,0.0,0.0,0.0,0.0,
2.3313,3.38124042611022,3.38124042611022,3.517312028682598,0.0,0.0,0.0,3.4265976269676792,0.0,0.0,0.0,0.0,0.0,0.0,0.0,0.0,0.0,0.0,0.0,0.0,0.0,0.0,
2.3499,3.3833005703490535,3.3833005703490535,3.5197239394572537,0.0,0.0,0.0,3.4287750267184536,0.0,0.0,0.0,0.0,0.0,0.0,0.0,0.0,0.0,0.0,0.0,0.0,0.0,0.0,
2.3686,3.385394096419534,3.385394096419534,3.5221760137622478,0.0,0.0,0.0,3.430988068867105,0.0,0.0,0.0,0.0,0.0,0.0,0.0,0.0,0.0,0.0,0.0,0.0,0.0,0.0,
2.3872,3.3874987836629735,3.3874987836629735,3.5246422652983957,0.0,0.0,0.0,3.433213277541448,0.0,0.0,0.0,0.0,0.0,0.0,0.0,0.0,0.0,0.0,0.0,0.0,0.0,0.0,
2.4059,3.3896374372968023,3.3896374372968023,3.52714945829412,0.0,0.0,0.0,3.4354747776292416,0.0,0.0,0.0,0.0,0.0,0.0,0.0,0.0,0.0,0.0,0.0,0.0,0.0,0.0,
2.4245,3.3917873599457193,3.3917873599457193,3.5296710261530984,0.0,0.0,0.0,3.4377485820148457,0.0,0.0,0.0,0.0,0.0,0.0,0.0,0.0,0.0,0.0,0.0,0.0,0.0,0.0,
