energies(eV),real_xx,real_yy,real_zz,real_xy,real_yz,real_xz,real_ave,imag_xx,imag_yy,imag_zz,imag_xy,imag_yz,imag_xz,imag_ave,absorption_xx,absorption_yy,absorption_zz,absorption_xy,absorption_yz,absorption_xz,absorption_ave,band_gap
0.0,2.8460037889554988,2.8460037889554988,2.8460037889554988,0.0,0.0,0.0,2.8460037889554983,0.0,0.0,0.0,0.0,0.0,0.0,0.0,0.0,0.0,0.0,0.0,0.0,0.0,0.0,4.325200000000001
0.014,2.846007330416204,2.846007330416204,2.846007330416204,0.0,0.0,0.0,2.8460073304162044,0.0,0.0,0.0,0.0,0.0,0.0,0.0,0.0,0.0,0.0,0.0,0.0,0.0,0.0,
0.028,2.8460179549224662,2.8460179549224662,2.8460179549224662,0.0,0.0,0.0,2.8460179549224662,0.0,0.0,0.0,0.0,0.0,0.0,0.0,0.0,0.0,0.0,0.0,0.0,0.0,0.0,
0.0419,2.8460355112430697,2.8460355112430697,2.8460355112430697,0.0,0.0,0.0,2.8460355112430697,0.0,0.0,0.0,0.0,0.0,0.0,0.0,0.0,0.0,0.0,0.0,0.0,0.0,0.0,
0.0559,2.8460602526032277,2.8460602526032277,2.8460602526032277,0.0,0.0,0.0,2.846060252603228,0.0,0.0,0.0,0.0,0.0,0.0,0.0,0.0,0.0,0.0,0.0,0.0,0.0,0.0,
0.0699,2.8460920788645296,2.8460920788645296,2.8460920788645296,0.0,0.0,0.0,2.8460920788645296,0.0,0.0,0.0,0.0,0.0,0.0,0.0,0.0,0.0,0.0,0.0,0.0,0.0,0.0,
0.0839,2.846130991143054,2.846130991143054,2.846130991143054,0.0,0.0,0.0,2.846130991143054,0.0,0.0,0.0,0.0,0.0,0.0,0.0,0.0,0.0,0.0,0.0,0.0,0.0,0.0,
0.0978,2.846176637099612,2.846176637099612,2.846176637099612,0.0,0.0,0.0,2.846176637099612,0.0,0.0,0.0,0.0,0.0,0.0,0.0,0.0,0.0,0.0,0.0,0.0,0.0,0.0,
0.1118,2.846229675113691,2.846229675113691,2.846229675113691,0.0,0.0,0.0,2.846229675113691,0.0,0.0,0.0,0.0,0.0,0.0,0.0,0.0,0.0,0.0,0.0,0.0,0.0,0.0,
0.1258,2.846289803971743,2.846289803971743,2.846289803971743,0.0,0.0,0.0,2.846289803971743,0.0,0.0,0.0,0.0,0.0,0.0,0.0,0.0,0.0,0.0,0.0,0.0,0.0,0.0,
0.1398,2.846357025783848,2.846357025783848,2.846357025783848,0.0,0.0,0.0,2.8463570257838477,0.0,0.0,0.0,0.0,0.0,0.0,0.0,0.0,0.0,0.0,0.0,0.0,0.0,0.0,
0.1538,2.8464313429095327,2.8464313429095327,2.8464313429095327,0.0,0.0,0.0,2.8464313429095327,0.0,0.0,0.0,0.0,0.0,0.0,0.0,0.0,0.0,0.0,0.0,0.0,0.0,0.0,
0.1677,2.8465121512467877,2.8465121512467877,2.8465121512467877,0.0,0.0,0.0,2.8465121512467877,0.0,0.0,0.0,0.0,0.0,0.0,0.0,0.0,0.0,0.0,0.0,0.0,0.0,0.0,
0.1817,2.846600616346949,2.846600616346949,2.846600616346949,0.0,0.0,0.0,2.846600616346949,0.0,0.0,0.0,0.0,0.0,0.0,0.0,0.0,0.0,0.0,0.0,0.0,0.0,0.0,
0.1957,2.8466961853159365,2.8466961853159365,2.8466961853159365,0.0,0.0,0.0,2.8466961853159365,0.0,0.0,0.0,0.0,0.0,0.0,0.0,0.0,0.0,0.0,0.0,0.0,0.0,0.0,
0.2097,2.846798861512403,2.846798861512403,2.846798861512403,0.0,0.0,0.0,2.846798861512403,0.0,0.0,0.0,0.0,0.0,0.0,0.0,0.0,0.0,0.0,0.0,0.0,0.0,0.0,
0.2236,2.846907839129668,2.846907839129668,2.846907839129668,0.0,0.0,0.0,2.8469078391296683,0.0,0.0,0.0,0.0,0.0,0.0,0.0,0.0,0.0,0.0,0.0,0.0,0.0,0.0,
0.2376,2.8470246900284875,2.8470246900284875,2.8470246900284875,0.0,0.0,0.0,2.8470246900284875,0.0,0.0,0.0,0.0,0.0,0.0,0.0,0.0,0.0,0.0,0.0,0.0,0.0,0.0,
0.2516,2.847148659708999,2.847148659708999,2.847148659708999,0.0,0.0,0.0,2.847148659708999,0.0,0.0,0.0,0.0,0.0,0.0,0.0,0.0,0.0,0.0,0.0,0.0,0.0,0.0,
0.2656,2.8472797525352096,2.8472797525352096,2.8472797525352096,0.0,0.0,0.0,2.8472797525352096,0.0,0.0,0.0,0.0,0.0,0.0,0.0,0.0,0.0,0.0,0.0,0.0,0.0,0.0,
0.2795,2.8474169605483857,2.8474169605483857,2.8474169605483857,0.0,0.0,0.0,2.8474169605483852,0.0,0.0,0.0,0.0,0.0,0.0,0.0,0.0,0.0,0.0,0.0,0.0,0.0,0.0,
0.2935,2.8475622628051873,2.8475622628051873,2.8475622628051873,0.0,0.0,0.0,2.8475622628051873,0.0,0.0,0.0,0.0,0.0,0.0,0.0,0.0,0.0,0.0,0.0,0.0,0.0,0.0,
0.3075,2.8477147027822323,2.8477147027822323,2.8477147027822323,0.0,0.0,0.0,2.8477147027822323,0.0,0.0,0.0,0.0,0.0,0.0,0.0,0.0,0.0,0.0,0.0,0.0,0.0,0.0,
0.3215,2.847874285856947,2.847874285856947,2.847874285856947,0.0,0.0,0.0,2.8478742858569475,0.0,0.0,0.0,0.0,0.0,0.0,0.0,0.0,0.0,0.0,0.0,0.0,0.0,0.0,
0.3355,2.84804101766205,2.84804101766205,2.84804101766205,0.0,0.0,0.0,2.84804101766205,0.0,0.0,0.0,0.0,0.0,0.0,0.0,0.0,0.0,0.0,0.0,0.0,0.0,0.0,
0.3494,2.8482136366563564,2.8482136366563564,2.8482136366563564,0.0,0.0,0.0,2.848213636656356,0.0,0.0,0.0,0.0,0.0,0.0,0.0,0.0,0.0,0.0,0.0,0.0,0.0,0.0,
0.3634,2.8483946326742684,2.8483946326742684,2.8483946326742684,0.0,0.0,0.0,2.848394632674269,0.0,0.0,0.0,0.0,0.0,0.0,0.0,0.0,0.0,0.0,0.0,0.0,0.0,0.0,
0.3774,2.8485827958126504,2.8485827958126504,2.8485827958126504,0.0,0.0,0.0,2.8485827958126504,0.0,0.0,0.0,0.0,0.0,0.0,0.0,0.0,0.0,0.0,0.0,0.0,0.0,0.0,
0.3914,2.848778132730492,2.848778132730492,2.848778132730492,0.0,0.0,0.0,2.848778132730492,0.0,0.0,0.0,0.0,0.0,0.0,0.0,0.0,0.0,0.0,0.0,0.0,0.0,0.0,
0.4053,2.8489791783123275,2.8489791783123275,2.8489791783123275,0.0,0.0,0.0,2.848979178312328,0.0,0.0,0.0,0.0,0.0,0.0,0.0,0.0,0.0,0.0,0.0,0.0,0.0,0.0,
0.4193,2.8491888324343226,2.8491888324343226,2.8491888324343226,0.0,0.0,0.0,2.8491888324343226,0.0,0.0,0.0,0.0,0.0,0.0,0.0,0.0,0.0,0.0,0.0,0.0,0.0,0.0,
0.4333,2.8494056818152513,2.8494056818152513,2.8494056818152513,0.0,0.0,0.0,2.849405681815251,0.0,0.0,0.0,0.0,0.0,0.0,0.0,0.0,0.0,0.0,0.0,0.0,0.0,0.0,
0.4473,2.8496297341527805,2.8496297341527805,2.8496297341527805,0.0,0.0,0.0,2.84962973415278,0.0,0.0,0.0,0.0,0.0,0.0,0.0,0.0,0.0,0.0,0.0,0.0,0.0,0.0,
0.4613,2.849860997406908,2.849860997406908,2.849860997406908,0.0,0.0,0.0,2.8498609974069082,0.0,0.0,0.0,0.0,0.0,0.0,0.0,0.0,0.0,0.0,0.0,0.0,0.0,0.0,
0.4752,2.8500977507369107,2.8500977507369107,2.8500977507369107,0.0,0.0,0.0,2.8500977507369107,0.0,0.0,0.0,0.0,0.0,0.0,0.0,0.0,0.0,0.0,0.0,0.0,0.0,0.0,
0.4892,2.8503434091016095,2.8503434091016095,2.8503434091016095,0.0,0.0,0.0,2.8503434091016095,0.0,0.0,0.0,0.0,0.0,0.0,0.0,0.0,0.0,0.0,0.0,0.0,0.0,0.0,
0.5032,2.8505963037829463,2.8505963037829463,2.8505963037829463,0.0,0.0,0.0,2.8505963037829463,0.0,0.0,0.0,0.0,0.0,0.0,0.0,0.0,0.0,0.0,0.0,0.0,0.0,0.0,
0.5172,2.8508564437980306,2.8508564437980306,2.8508564437980306,0.0,0.0,0.0,2.850856443798031,0.0,0.0,0.0,0.0,0.0,0.0,0.0,0.0,0.0,0.0,0.0,0.0,0.0,0.0,
0.5311,2.851121902723051,2.851121902723051,2.851121902723051,0.0,0.0,0.0,2.851121902723051,0.0,0.0,0.0,0.0,0.0,0.0,0.0,0.0,0.0,0.0,0.0,0.0,0.0,0.0,
0.5451,2.851396509606049,2.851396509606049,2.851396509606049,0.0,0.0,0.0,2.851396509606049,0.0,0.0,0.0,0.0,0.0,0.0,0.0,0.0,0.0,0.0,0.0,0.0,0.0,0.0,
0.5591,2.851678390411568,2.851678390411568,2.851678390411568,0.0,0.0,0.0,2.851678390411568,0.0,0.0,0.0,0.0,0.0,0.0,0.0,0.0,0.0,0.0,0.0,0.0,0.0,0.0,
0.5731,2.8519675552309556,2.8519675552309556,2.8519675552309556,0.0,0.0,0.0,2.851967555230955,0.0,0.0,0.0,0.0,0.0,0.0,0.0,0.0,0.0,0.0,0.0,0.0,0.0,0.0,
0.5871,2.852264014427515,2.852264014427515,2.852264014427515,0.0,0.0,0.0,2.852264014427515,0.0,0.0,0.0,0.0,0.0,0.0,0.0,0.0,0.0,0.0,0.0,0.0,0.0,0.0,
0.601,2.8525655829648846,2.8525655829648846,2.8525655829648846,0.0,0.0,0.0,2.852565582964884,0.0,0.0,0.0,0.0,0.0,0.0,0.0,0.0,0.0,0.0,0.0,0.0,0.0,0.0,
0.615,2.852876610803861,2.852876610803861,2.852876610803861,0.0,0.0,0.0,2.852876610803861,0.0,0.0,0.0,0.0,0.0,0.0,0.0,0.0,0.0,0.0,0.0,0.0,0.0,0.0,
0.629,2.8531949656734383,2.8531949656734383,2.8531949656734383,0.0,0.0,0.0,2.8531949656734383,0.0,0.0,0.0,0.0,0.0,0.0,0.0,0.0,0.0,0.0,0.0,0.0,0.0,0.0,
0.643,2.853520659035569,2.853520659035569,2.853520659035569,0.0,0.0,0.0,2.853520659035569,0.0,0.0,0.0,0.0,0.0,0.0,0.0,0.0,0.0,0.0,0.0,0.0,0.0,0.0,
0.6569,2.8538512976564556,2.8538512976564556,2.8538512976564556,0.0,0.0,0.0,2.853851297656456,0.0,0.0,0.0,0.0,0.0,0.0,0.0,0.0,0.0,0.0,0.0,0.0,0.0,0.0,
0.6709,2.8541916508743066,2.8541916508743066,2.8541916508743066,0.0,0.0,0.0,2.854191650874307,0.0,0.0,0.0,0.0,0.0,0.0,0.0,0.0,0.0,0.0,0.0,0.0,0.0,0.0,
0.6849,2.8545393785586244,2.8545393785586244,2.8545393785586244,0.0,0.0,0.0,2.854539378558625,0.0,0.0,0.0,0.0,0.0,0.0,0.0,0.0,0.0,0.0,0.0,0.0,0.0,0.0,
0.6989,2.8548944932921376,2.8548944932921376,2.8548944932921376,0.0,0.0,0.0,2.8548944932921376,0.0,0.0,0.0,0.0,0.0,0.0,0.0,0.0,0.0,0.0,0.0,0.0,0.0,0.0,
0.7129,2.855257007941984,2.855257007941984,2.855257007941984,0.0,0.0,0.0,2.8552570079419843,0.0,0.0,0.0,0.0,0.0,0.0,0.0,0.0,0.0,0.0,0.0,0.0,0.0,0.0,
0.7268,2.8556242670028533,2.8556242670028533,2.8556242670028533,0.0,0.0,0.0,2.8556242670028538,0.0,0.0,0.0,0.0,0.0,0.0,0.0,0.0,0.0,0.0,0.0,0.0,0.0,0.0,
0.7408,2.8560015681376383,2.8560015681376383,2.8560015681376383,0.0,0.0,0.0,2.856001568137638,0.0,0.0,0.0,0.0,0.0,0.0,0.0,0.0,0.0,0.0,0.0,0.0,0.0,0.0,
0.7548,2.856386309413636,2.856386309413636,2.856386309413636,0.0,0.0,0.0,2.856386309413636,0.0,0.0,0.0,0.0,0.0,0.0,0.0,0.0,0.0,0.0,0.0,0.0,0.0,0.0,
0.7688,2.856778504849757,2.856778504849757,2.856778504849757,0.0,0.0,0.0,2.856778504849757,0.0,0.0,0.0,0.0,0.0,0.0,0.0,0.0,0.0,0.0,0.0,0.0,0.0,0.0,
0.7827,2.857175287498558,2.857175287498558,2.857175287498558,0.0,0.0,0.0,2.857175287498558,0.0,0.0,0.0,0.0,0.0,0.0,0.0,0.0,0.0,0.0,0.0,0.0,0.0,0.0,
0.7967,2.857582380981074,2.857582380981074,2.857582380981074,0.0,0.0,0.0,2.8575823809810736,0.0,0.0,0.0,0.0,0.0,0.0,0.0,0.0,0.0,0.0,0.0,0.0,0.0,0.0,
0.8107,2.8579969723361103,2.8579969723361103,2.8579969723361103,0.0,0.0,0.0,2.8579969723361103,0.0,0.0,0.0,0.0,0.0,0.0,0.0,0.0,0.0,0.0,0.0,0.0,0.0,0.0,
0.8247,2.858419076761931,2.858419076761931,2.858419076761931,0.0,0.0,0.0,2.858419076761931,0.0,0.0,0.0,0.0,0.0,0.0,0.0,0.0,0.0,0.0,0.0,0.0,0.0,0.0,
0.8386,2.858845614216985,2.858845614216985,2.858845614216985,0.0,0.0,0.0,2.858845614216985,0.0,0.0,0.0,0.0,0.0,0.0,0.0,0.0,0.0,0.0,0.0,0.0,0.0,0.0,
0.8526,2.8592827376360126,2.8592827376360126,2.8592827376360126,0.0,0.0,0.0,2.8592827376360126,0.0,0.0,0.0,0.0,0.0,0.0,0.0,0.0,0.0,0.0,0.0,0.0,0.0,0.0,
0.8666,2.859727421412293,2.859727421412293,2.859727421412293,0.0,0.0,0.0,2.859727421412293,0.0,0.0,0.0,0.0,0.0,0.0,0.0,0.0,0.0,0.0,0.0,0.0,0.0,0.0,
0.8806,2.860179681953686,2.860179681953686,2.860179681953686,0.0,0.0,0.0,2.8601796819536864,0.0,0.0,0.0,0.0,0.0,0.0,0.0,0.0,0.0,0.0,0.0,0.0,0.0,0.0,
0.8946,2.860639535976056,2.860639535976056,2.860639535976056,0.0,0.0,0.0,2.860639535976056,0.0,0.0,0.0,0.0,0.0,0.0,0.0,0.0,0.0,0.0,0.0,0.0,0.0,0.0,
0.9085,2.861103634446119,2.861103634446119,2.861103634446119,0.0,0.0,0.0,2.861103634446119,0.0,0.0,0.0,0.0,0.0,0.0,0.0,0.0,0.0,0.0,0.0,0.0,0.0,0.0,
0.9225,2.861578672273814,2.861578672273814,2.861578672273814,0.0,0.0,0.0,2.8615786722738137,0.0,0.0,0.0,0.0,0.0,0.0,0.0,0.0,0.0,0.0,0.0,0.0,0.0,0.0,
0.9365,2.8620613554722096,2.8620613554722096,2.8620613554722096,0.0,0.0,0.0,2.862061355472209,0.0,0.0,0.0,0.0,0.0,0.0,0.0,0.0,0.0,0.0,0.0,0.0,0.0,0.0,
0.9505,2.862551702008542,2.862551702008542,2.862551702008542,0.0,0.0,0.0,2.862551702008542,0.0,0.0,0.0,0.0,0.0,0.0,0.0,0.0,0.0,0.0,0.0,0.0,0.0,0.0,
0.9644,2.863046145542963,2.863046145542963,2.863046145542963,0.0,0.0,0.0,2.863046145542963,0.0,0.0,0.0,0.0,0.0,0.0,0.0,0.0,0.0,0.0,0.0,0.0,0.0,0.0,
0.9784,2.8635518188667644,2.8635518188667644,2.8635518188667644,0.0,0.0,0.0,2.8635518188667644,0.0,0.0,0.0,0.0,0.0,0.0,0.0,0.0,0.0,0.0,0.0,0.0,0.0,0.0,
0.9924,2.8640652112172935,2.8640652112172935,2.8640652112172935,0.0,0.0,0.0,2.864065211217293,0.0,0.0,0.0,0.0,0.0,0.0,0.0,0.0,0.0,0.0,0.0,0.0,0.0,0.0,
1.0064,2.8645863418497957,2.8645863418497957,2.8645863418497957,0.0,0.0,0.0,2.8645863418497957,0.0,0.0,0.0,0.0,0.0,0.0,0.0,0.0,0.0,0.0,0.0,0.0,0.0,0.0,
1.0204,2.8651152303482217,2.8651152303482217,2.8651152303482217,0.0,0.0,0.0,2.8651152303482217,0.0,0.0,0.0,0.0,0.0,0.0,0.0,0.0,0.0,0.0,0.0,0.0,0.0,0.0,
1.0343,2.8656480356703207,2.8656480356703207,2.8656480356703207,0.0,0.0,0.0,2.8656480356703207,0.0,0.0,0.0,0.0,0.0,0.0,0.0,0.0,0.0,0.0,0.0,0.0,0.0,0.0,
1.0483,2.8661924442072406,2.8661924442072406,2.8661924442072406,0.0,0.0,0.0,2.866192444207241,0.0,0.0,0.0,0.0,0.0,0.0,0.0,0.0,0.0,0.0,0.0,0.0,0.0,0.0,
1.0623,2.866744671211658,2.866744671211658,2.866744671211658,0.0,0.0,0.0,2.866744671211658,0.0,0.0,0.0,0.0,0.0,0.0,0.0,0.0,0.0,0.0,0.0,0.0,0.0,0.0,
1.0763,2.8673047376059335,2.8673047376059335,2.8673047376059335,0.0,0.0,0.0,2.867304737605933,0.0,0.0,0.0,0.0,0.0,0.0,0.0,0.0,0.0,0.0,0.0,0.0,0.0,0.0,
1.0902,2.8678685801086776,2.8678685801086776,2.8678685801086776,0.0,0.0,0.0,2.8678685801086776,0.0,0.0,0.0,0.0,0.0,0.0,0.0,0.0,0.0,0.0,0.0,0.0,0.0,0.0,
1.1042,2.8684443330410705,2.8684443330410705,2.8684443330410705,0.0,0.0,0.0,2.8684443330410705,0.0,0.0,0.0,0.0,0.0,0.0,0.0,0.0,0.0,0.0,0.0,0.0,0.0,0.0,
1.1182,2.869027990035416,2.869027990035416,2.869027990035416,0.0,0.0,0.0,2.869027990035416,0.0,0.0,0.0,0.0,0.0,0.0,0.0,0.0,0.0,0.0,0.0,0.0,0.0,0.0,
1.1322,2.8696195733965073,2.8696195733965073,2.8696195733965073,0.0,0.0,0.0,2.8696195733965073,0.0,0.0,0.0,0.0,0.0,0.0,0.0,0.0,0.0,0.0,0.0,0.0,0.0,0.0,
1.1462,2.8702191057827475,2.8702191057827475,2.8702191057827475,0.0,0.0,0.0,2.870219105782747,0.0,0.0,0.0,0.0,0.0,0.0,0.0,0.0,0.0,0.0,0.0,0.0,0.0,0.0,
1.1601,2.870822242568725,2.870822242568725,2.870822242568725,0.0,0.0,0.0,2.870822242568725,0.0,0.0,0.0,0.0,0.0,0.0,0.0,0.0,0.0,0.0,0.0,0.0,0.0,0.0,
1.1741,2.8714376852160557,2.8714376852160557,2.8714376852160557,0.0,0.0,0.0,2.871437685216056,0.0,0.0,0.0,0.0,0.0,0.0,0.0,0.0,0.0,0.0,0.0,0.0,0.0,0.0,
1.1881,2.872061146844914,2.872061146844914,2.872061146844914,0.0,0.0,0.0,2.872061146844914,0.0,0.0,0.0,0.0,0.0,0.0,0.0,0.0,0.0,0.0,0.0,0.0,0.0,0.0,
1.2021,2.872692651556374,2.872692651556374,2.872692651556374,0.0,0.0,0.0,2.872692651556374,0.0,0.0,0.0,0.0,0.0,0.0,0.0,0.0,0.0,0.0,0.0,0.0,0.0,0.0,
1.216,2.87332762678238,2.87332762678238,2.87332762678238,0.0,0.0,0.0,2.87332762678238,0.0,0.0,0.0,0.0,0.0,0.0,0.0,0.0,0.0,0.0,0.0,0.0,0.0,0.0,
1.23,2.8739752335513034,2.8739752335513034,2.8739752335513034,0.0,0.0,0.0,2.873975233551304,0.0,0.0,0.0,0.0,0.0,0.0,0.0,0.0,0.0,0.0,0.0,0.0,0.0,0.0,
1.244,2.874630957754304,2.874630957754304,2.874630957754304,0.0,0.0,0.0,2.874630957754304,0.0,0.0,0.0,0.0,0.0,0.0,0.0,0.0,0.0,0.0,0.0,0.0,0.0,0.0,
1.258,2.8752948249876855,2.8752948249876855,2.8752948249876855,0.0,0.0,0.0,2.8752948249876855,0.0,0.0,0.0,0.0,0.0,0.0,0.0,0.0,0.0,0.0,0.0,0.0,0.0,0.0,
1.2719,2.875962031943482,2.875962031943482,2.875962031943482,0.0,0.0,0.0,2.875962031943482,0.0,0.0,0.0,0.0,0.0,0.0,0.0,0.0,0.0,0.0,0.0,0.0,0.0,0.0,
1.2859,2.876642204929982,2.876642204929982,2.876642204929982,0.0,0.0,0.0,2.8766422049299814,0.0,0.0,0.0,0.0,0.0,0.0,0.0,0.0,0.0,0.0,0.0,0.0,0.0,0.0,
1.2999,2.877330599856842,2.877330599856842,2.877330599856842,0.0,0.0,0.0,2.877330599856842,0.0,0.0,0.0,0.0,0.0,0.0,0.0,0.0,0.0,0.0,0.0,0.0,0.0,0.0,
1.3139,2.878027243872288,2.878027243872288,2.878027243872288,0.0,0.0,0.0,2.8780272438722876,0.0,0.0,0.0,0.0,0.0,0.0,0.0,0.0,0.0,0.0,0.0,0.0,0.0,0.0,
1.3279,2.878732164522617,2.878732164522617,2.878732164522617,0.0,0.0,0.0,2.878732164522617,0.0,0.0,0.0,0.0,0.0,0.0,0.0,0.0,0.0,0.0,0.0,0.0,0.0,0.0,
1.3418,2.87944026577627,2.87944026577627,2.87944026577627,0.0,0.0,0.0,2.8794402657762697,0.0,0.0,0.0,0.0,0.0,0.0,0.0,0.0,0.0,0.0,0.0,0.0,0.0,0.0,
1.3558,2.880161764324778,2.880161764324778,2.880161764324778,0.0,0.0,0.0,2.8801617643247774,0.0,0.0,0.0,0.0,0.0,0.0,0.0,0.0,0.0,0.0,0.0,0.0,0.0,0.0,
1.3698,2.8808916243681466,2.8808916243681466,2.8808916243681466,0.0,0.0,0.0,2.8808916243681466,0.0,0.0,0.0,0.0,0.0,0.0,0.0,0.0,0.0,0.0,0.0,0.0,0.0,0.0,
1.3838,2.8816298750819294,2.8816298750819294,2.8816298750819294,0.0,0.0,0.0,2.8816298750819294,0.0,0.0,0.0,0.0,0.0,0.0,0.0,0.0,0.0,0.0,0.0,0.0,0.0,0.0,
1.3977,2.8823711827678755,2.8823711827678755,2.8823711827678755,0.0,0.0,0.0,2.882371182767875,0.0,0.0,0.0,0.0,0.0,0.0,0.0,0.0,0.0,0.0,0.0,0.0,0.0,0.0,
1.4117,2.8831262435602936,2.8831262435602936,2.8831262435602936,0.0,0.0,0.0,2.883126243560293,0.0,0.0,0.0,0.0,0.0,0.0,0.0,0.0,0.0,0.0,0.0,0.0,0.0,0.0,
1.4257,2.8838897848582827,2.8838897848582827,2.8838897848582827,0.0,0.0,0.0,2.8838897848582827,0.0,0.0,0.0,0.0,0.0,0.0,0.0,0.0,0.0,0.0,0.0,0.0,0.0,0.0,
1.4397,2.884661837533937,2.884661837533937,2.884661837533937,0.0,0.0,0.0,2.884661837533937,0.0,0.0,0.0,0.0,0.0,0.0,0.0,0.0,0.0,0.0,0.0,0.0,0.0,0.0,
1.4537,2.885442432895352,2.885442432895352,2.885442432895352,0.0,0.0,0.0,2.8854424328953514,0.0,0.0,0.0,0.0,0.0,0.0,0.0,0.0,0.0,0.0,0.0,0.0,0.0,0.0,
1.4676,2.886225935284417,2.886225935284417,2.886225935284417,0.0,0.0,0.0,2.886225935284417,0.0,0.0,0.0,0.0,0.0,0.0,0.0,0.0,0.0,0.0,0.0,0.0,0.0,0.0,
1.4816,2.887023650118059,2.887023650118059,2.887023650118059,0.0,0.0,0.0,2.8870236501180586,0.0,0.0,0.0,0.0,0.0,0.0,0.0,0.0,0.0,0.0,0.0,0.0,0.0,0.0,
1.4956,2.8878300039901523,2.8878300039901523,2.8878300039901523,0.0,0.0,0.0,2.887830003990152,0.0,0.0,0.0,0.0,0.0,0.0,0.0,0.0,0.0,0.0,0.0,0.0,0.0,0.0,
1.5096,2.8886450299970097,2.8886450299970097,2.8886450299970097,0.0,0.0,0.0,2.8886450299970097,0.0,0.0,0.0,0.0,0.0,0.0,0.0,0.0,0.0,0.0,0.0,0.0,0.0,0.0,
1.5235,2.8894628469476684,2.8894628469476684,2.8894628469476684,0.0,0.0,0.0,2.889462846947668,0.0,0.0,0.0,0.0,0.0,0.0,0.0,0.0,0.0,0.0,0.0,0.0,0.0,0.0,
1.5375,2.890295255810237,2.890295255810237,2.890295255810237,0.0,0.0,0.0,2.890295255810237,0.0,0.0,0.0,0.0,0.0,0.0,0.0,0.0,0.0,0.0,0.0,0.0,0.0,0.0,
1.5515,2.891136438629566,2.891136438629566,2.891136438629566,0.0,0.0,0.0,2.891136438629566,0.0,0.0,0.0,0.0,0.0,0.0,0.0,0.0,0.0,0.0,0.0,0.0,0.0,0.0,
1.5655,2.891986430369955,2.891986430369955,2.891986430369955,0.0,0.0,0.0,2.8919864303699554,0.0,0.0,0.0,0.0,0.0,0.0,0.0,0.0,0.0,0.0,0.0,0.0,0.0,0.0,
1.5795,2.892845266476794,2.892845266476794,2.892845266476794,0.0,0.0,0.0,2.892845266476794,0.0,0.0,0.0,0.0,0.0,0.0,0.0,0.0,0.0,0.0,0.0,0.0,0.0,0.0,
1.5934,2.893706753333337,2.893706753333337,2.893706753333337,0.0,0.0,0.0,2.893706753333337,0.0,0.0,0.0,0.0,0.0,0.0,0.0,0.0,0.0,0.0,0.0,0.0,0.0,0.0,
1.6074,2.8945833226397473,2.8945833226397473,2.8945833226397473,0.0,0.0,0.0,2.8945833226397473,0.0,0.0,0.0,0.0,0.0,0.0,0.0,0.0,0.0,0.0,0.0,0.0,0.0,0.0,
1.6214,2.8954688453250434,2.8954688453250434,2.8954688453250434,0.0,0.0,0.0,2.8954688453250434,0.0,0.0,0.0,0.0,0.0,0.0,0.0,0.0,0.0,0.0,0.0,0.0,0.0,0.0,
1.6354,2.896363358811283,2.896363358811283,2.896363358811283,0.0,0.0,0.0,2.8963633588112834,0.0,0.0,0.0,0.0,0.0,0.0,0.0,0.0,0.0,0.0,0.0,0.0,0.0,0.0,
1.6493,2.8972604150517247,2.8972604150517247,2.8972604150517247,0.0,0.0,0.0,2.8972604150517243,0.0,0.0,0.0,0.0,0.0,0.0,0.0,0.0,0.0,0.0,0.0,0.0,0.0,0.0,
1.6633,2.898172959547331,2.898172959547331,2.898172959547331,0.0,0.0,0.0,2.898172959547331,0.0,0.0,0.0,0.0,0.0,0.0,0.0,0.0,0.0,0.0,0.0,0.0,0.0,0.0,
1.6773,2.899094609911752,2.899094609911752,2.899094609911752,0.0,0.0,0.0,2.8990946099117516,0.0,0.0,0.0,0.0,0.0,0.0,0.0,0.0,0.0,0.0,0.0,0.0,0.0,0.0,
1.6913,2.9000254056384414,2.9000254056384414,2.9000254056384414,0.0,0.0,0.0,2.9000254056384414,0.0,0.0,0.0,0.0,0.0,0.0,0.0,0.0,0.0,0.0,0.0,0.0,0.0,0.0,
1.7053,2.9009653867553182,2.9009653867553182,2.9009653867553182,0.0,0.0,0.0,2.9009653867553182,0.0,0.0,0.0,0.0,0.0,0.0,0.0,0.0,0.0,0.0,0.0,0.0,0.0,0.0,
1.7192,2.9019077809697604,2.9019077809697604,2.9019077809697604,0.0,0.0,0.0,2.90190778096976,0.0,0.0,0.0,0.0,0.0,0.0,0.0,0.0,0.0,0.0,0.0,0.0,0.0,0.0,
1.7332,2.9028661887810037,2.9028661887810037,2.9028661887810037,0.0,0.0,0.0,2.902866188781003,0.0,0.0,0.0,0.0,0.0,0.0,0.0,0.0,0.0,0.0,0.0,0.0,0.0,0.0,
1.7472,2.9038339050394493,2.9038339050394493,2.9038339050394493,0.0,0.0,0.0,2.9038339050394497,0.0,0.0,0.0,0.0,0.0,0.0,0.0,0.0,0.0,0.0,0.0,0.0,0.0,0.0,
1.7612,2.9048109719735487,2.9048109719735487,2.9048109719735487,0.0,0.0,0.0,2.9048109719735487,0.0,0.0,0.0,0.0,0.0,0.0,0.0,0.0,0.0,0.0,0.0,0.0,0.0,0.0,
1.7751,2.905790352824072,2.905790352824072,2.905790352824072,0.0,0.0,0.0,2.905790352824072,0.0,0.0,0.0,0.0,0.0,0.0,0.0,0.0,0.0,0.0,0.0,0.0,0.0,0.0,
1.7891,2.9067861825144465,2.9067861825144465,2.9067861825144465,0.0,0.0,0.0,2.9067861825144465,0.0,0.0,0.0,0.0,0.0,0.0,0.0,0.0,0.0,0.0,0.0,0.0,0.0,0.0,
1.8031,2.9077914926891504,2.9077914926891504,2.9077914926891504,0.0,0.0,0.0,2.907791492689151,0.0,0.0,0.0,0.0,0.0,0.0,0.0,0.0,0.0,0.0,0.0,0.0,0.0,0.0,
1.8171,2.908806327889822,2.908806327889822,2.908806327889822,0.0,0.0,0.0,2.908806327889822,0.0,0.0,0.0,0.0,0.0,0.0,0.0,0.0,0.0,0.0,0.0,0.0,0.0,0.0,
