energies(eV),real_xx,real_yy,real_zz,real_xy,real_yz,real_xz,real_ave,imag_xx,imag_yy,imag_zz,imag_xy,imag_yz,imag_xz,imag_ave,absorption_xx,absorption_yy,absorption_zz,absorption_xy,absorption_yz,absorption_xz,absorption_ave,band_gap
0.0,3.3496251565509825,3.3496251565509825,3.931149891422317,0.0,0.0,0.0,3.5434667348414273,0.0,0.0,0.0,0.0,0.0,0.0,0.0,0.0,0.0,0.0,0.0,0.0,0.0,0.0,4.932499999999999
0.0188,3.349634634990261,3.349634634990261,3.931163449888558,0.0,0.0,0.0,3.5434775732896937,0.0,0.0,0.0,0.0,0.0,0.0,0.0,0.0,0.0,0.0,0.0,0.0,0.0,0.0,
0.0375,3.3496628695714388,3.3496628695714388,3.931203838222771,0.0,0.0,0.0,3.543509859121883,0.0,0.0,0.0,0.0,0.0,0.0,0.0,0.0,0.0,0.0,0.0,0.0,0.0,0.0,
0.0563,3.3497101642735307,3.3497101642735307,3.9312714914950257,0.0,0.0,0.0,3.5435639400140295,0.0,0.0,0.0,0.0,0.0,0.0,0.0,0.0,0.0,0.0,0.0,0.0,0.0,0.0,
0.075,3.3497760192785058,3.3497760192785058,3.93136569513404,0.0,0.0,0.0,3.5436392445636837,0.0,0.0,0.0,0.0,0.0,0.0,0.0,0.0,0.0,0.0,0.0,0.0,0.0,0.0,
0.0938,3.3498611435952896,3.3498611435952896,3.9314874639193667,0.0,0.0,0.0,3.5437365837033155,0.0,0.0,0.0,0.0,0.0,0.0,0.0,0.0,0.0,0.0,0.0,0.0,0.0,0.0,
0.1125,3.349964637618363,3.349964637618363,3.9316355117009008,0.0,0.0,0.0,3.543854928979209,0.0,0.0,0.0,0.0,0.0,0.0,0.0,0.0,0.0,0.0,0.0,0.0,0.0,0.0,
0.1313,3.3500876155894677,3.3500876155894677,3.931811433282699,0.0,0.0,0.0,3.5439955548205453,0.0,0.0,0.0,0.0,0.0,0.0,0.0,0.0,0.0,0.0,0.0,0.0,0.0,0.0,
0.15,3.3502287778648756,3.3502287778648756,3.9320133705475935,0.0,0.0,0.0,3.5441569754257816,0.0,0.0,0.0,0.0,0.0,0.0,0.0,0.0,0.0,0.0,0.0,0.0,0.0,0.0,
0.1688,3.3503896442380663,3.3503896442380663,3.9322434988193757,0.0,0.0,0.0,3.544340929098503,0.0,0.0,0.0,0.0,0.0,0.0,0.0,0.0,0.0,0.0,0.0,0.0,0.0,0.0,
0.1875,3.3505685146648765,3.3505685146648765,3.9324993874526006,0.0,0.0,0.0,3.5445454722607845,0.0,0.0,0.0,0.0,0.0,0.0,0.0,0.0,0.0,0.0,0.0,0.0,0.0,0.0,
0.2063,3.3507673149257697,3.3507673149257697,3.932783792966689,0.0,0.0,0.0,3.5447728076060763,0.0,0.0,0.0,0.0,0.0,0.0,0.0,0.0,0.0,0.0,0.0,0.0,0.0,0.0,
0.225,3.3509839441018796,3.3509839441018796,3.9330937114532385,0.0,0.0,0.0,3.5450205332189992,0.0,0.0,0.0,0.0,0.0,0.0,0.0,0.0,0.0,0.0,0.0,0.0,0.0,0.0,
0.2438,3.3512207345126566,3.3512207345126566,3.9334324814846386,0.0,0.0,0.0,3.5452913168366504,0.0,0.0,0.0,0.0,0.0,0.0,0.0,0.0,0.0,0.0,0.0,0.0,0.0,0.0,
0.2625,3.3514751837779833,3.3514751837779833,3.933796524980699,0.0,0.0,0.0,3.545582297512222,0.0,0.0,0.0,0.0,0.0,0.0,0.0,0.0,0.0,0.0,0.0,0.0,0.0,0.0,
0.2813,3.3517500314255226,3.3517500314255226,3.93418976360622,0.0,0.0,0.0,3.5458966088190884,0.0,0.0,0.0,0.0,0.0,0.0,0.0,0.0,0.0,0.0,0.0,0.0,0.0,0.0,
0.3,3.352042372914436,3.352042372914436,3.934608044025494,0.0,0.0,0.0,3.5462309299514554,0.0,0.0,0.0,0.0,0.0,0.0,0.0,0.0,0.0,0.0,0.0,0.0,0.0,0.0,
0.3188,3.3523553557676484,3.3523553557676484,3.9350558722182334,0.0,0.0,0.0,3.546588861251177,0.0,0.0,0.0,0.0,0.0,0.0,0.0,0.0,0.0,0.0,0.0,0.0,0.0,0.0,
0.3375,3.352685672470753,3.352685672470753,3.9355285183336726,0.0,0.0,0.0,3.5469666210917263,0.0,0.0,0.0,0.0,0.0,0.0,0.0,0.0,0.0,0.0,0.0,0.0,0.0,0.0,
0.3563,3.3530368794475183,3.3530368794475183,3.936031074073181,0.0,0.0,0.0,3.547368277656073,0.0,0.0,0.0,0.0,0.0,0.0,0.0,0.0,0.0,0.0,0.0,0.0,0.0,0.0,
0.375,3.3534052652829427,3.3534052652829427,3.9365582316343333,0.0,0.0,0.0,3.547789587400073,0.0,0.0,0.0,0.0,0.0,0.0,0.0,0.0,0.0,0.0,0.0,0.0,0.0,0.0,
0.3938,3.353794796326407,3.353794796326407,3.937115670032494,0.0,0.0,0.0,3.5482350875617694,0.0,0.0,0.0,0.0,0.0,0.0,0.0,0.0,0.0,0.0,0.0,0.0,0.0,0.0,
0.4125,3.3542013562206145,3.3542013562206145,3.9376975018986977,0.0,0.0,0.0,3.5487000714466426,0.0,0.0,0.0,0.0,0.0,0.0,0.0,0.0,0.0,0.0,0.0,0.0,0.0,0.0,
0.4313,3.3546293223855006,3.3546293223855006,3.9383099953416423,0.0,0.0,0.0,3.5491895467042145,0.0,0.0,0.0,0.0,0.0,0.0,0.0,0.0,0.0,0.0,0.0,0.0,0.0,0.0,
0.45,3.3550741723638167,3.3550741723638167,3.9389466816312138,0.0,0.0,0.0,3.5496983421196155,0.0,0.0,0.0,0.0,0.0,0.0,0.0,0.0,0.0,0.0,0.0,0.0,0.0,0.0,
0.4688,3.3555406959122585,3.3555406959122585,3.9396144199375533,0.0,0.0,0.0,3.5502319372540234,0.0,0.0,0.0,0.0,0.0,0.0,0.0,0.0,0.0,0.0,0.0,0.0,0.0,0.0,
0.4876,3.356026599119301,3.356026599119301,3.940309931288147,0.0,0.0,0.0,3.550787709842249,0.0,0.0,0.0,0.0,0.0,0.0,0.0,0.0,0.0,0.0,0.0,0.0,0.0,0.0,
0.5063,3.356529177707065,3.356529177707065,3.9410293487891033,0.0,0.0,0.0,3.5513625680677445,0.0,0.0,0.0,0.0,0.0,0.0,0.0,0.0,0.0,0.0,0.0,0.0,0.0,0.0,
0.5251,3.357053843133049,3.357053843133049,3.9417804231042264,0.0,0.0,0.0,3.5519627031234418,0.0,0.0,0.0,0.0,0.0,0.0,0.0,0.0,0.0,0.0,0.0,0.0,0.0,0.0,
0.5438,3.357595051309935,3.357595051309935,3.942555222271058,0.0,0.0,0.0,3.552581774963643,0.0,0.0,0.0,0.0,0.0,0.0,0.0,0.0,0.0,0.0,0.0,0.0,0.0,0.0,
0.5626,3.3581586297374897,3.3581586297374897,3.943362093776532,0.0,0.0,0.0,3.5532264510838374,0.0,0.0,0.0,0.0,0.0,0.0,0.0,0.0,0.0,0.0,0.0,0.0,0.0,0.0,
0.5813,3.358738623248074,3.358738623248074,3.944192516572534,0.0,0.0,0.0,3.553889921022894,0.0,0.0,0.0,0.0,0.0,0.0,0.0,0.0,0.0,0.0,0.0,0.0,0.0,0.0,
0.6001,3.3593412770838236,3.3593412770838236,3.9450554376136866,0.0,0.0,0.0,3.554579330593778,0.0,0.0,0.0,0.0,0.0,0.0,0.0,0.0,0.0,0.0,0.0,0.0,0.0,0.0,
0.6188,3.359960223304573,3.359960223304573,3.9459417441403426,0.0,0.0,0.0,3.5552873969164964,0.0,0.0,0.0,0.0,0.0,0.0,0.0,0.0,0.0,0.0,0.0,0.0,0.0,0.0,
0.6376,3.3606021267219965,3.3606021267219965,3.946860985417894,0.0,0.0,0.0,3.556021746287296,0.0,0.0,0.0,0.0,0.0,0.0,0.0,0.0,0.0,0.0,0.0,0.0,0.0,0.0,
0.6563,3.3612602048087368,3.3612602048087368,3.947803454158479,0.0,0.0,0.0,3.5567746212586506,0.0,0.0,0.0,0.0,0.0,0.0,0.0,0.0,0.0,0.0,0.0,0.0,0.0,0.0,
0.6751,3.3619415439020743,3.3619415439020743,3.9487793049827156,0.0,0.0,0.0,3.557554130928955,0.0,0.0,0.0,0.0,0.0,0.0,0.0,0.0,0.0,0.0,0.0,0.0,0.0,0.0,
0.6938,3.3626389449487184,3.3626389449487184,3.949778233064544,0.0,0.0,0.0,3.5583520409873266,0.0,0.0,0.0,0.0,0.0,0.0,0.0,0.0,0.0,0.0,0.0,0.0,0.0,0.0,
0.7126,3.363359917898156,3.363359917898156,3.950811001628337,0.0,0.0,0.0,3.5591769458082165,0.0,0.0,0.0,0.0,0.0,0.0,0.0,0.0,0.0,0.0,0.0,0.0,0.0,0.0,
0.7313,3.364096845106879,3.364096845106879,3.9518667051039,0.0,0.0,0.0,3.560020131772553,0.0,0.0,0.0,0.0,0.0,0.0,0.0,0.0,0.0,0.0,0.0,0.0,0.0,0.0,
0.7501,3.36485766235553,3.36485766235553,3.9529567187752765,0.0,0.0,0.0,3.560890681162112,0.0,0.0,0.0,0.0,0.0,0.0,0.0,0.0,0.0,0.0,0.0,0.0,0.0,0.0,
0.7688,3.365634331218556,3.365634331218556,3.954069532923104,0.0,0.0,0.0,3.5617793984534054,0.0,0.0,0.0,0.0,0.0,0.0,0.0,0.0,0.0,0.0,0.0,0.0,0.0,0.0,
0.7876,3.366435215661344,3.366435215661344,3.955217138557661,0.0,0.0,0.0,3.562695856626783,0.0,0.0,0.0,0.0,0.0,0.0,0.0,0.0,0.0,0.0,0.0,0.0,0.0,0.0,
0.8063,3.367251854155019,3.367251854155019,3.9563874182033145,0.0,0.0,0.0,3.563630375504451,0.0,0.0,0.0,0.0,0.0,0.0,0.0,0.0,0.0,0.0,0.0,0.0,0.0,0.0,
0.8251,3.368093041339921,3.368093041339921,3.957592982477473,0.0,0.0,0.0,3.564593021719105,0.0,0.0,0.0,0.0,0.0,0.0,0.0,0.0,0.0,0.0,0.0,0.0,0.0,0.0,
0.8438,3.3689498901312054,3.3689498901312054,3.9588211023354085,0.0,0.0,0.0,3.5655736275326064,0.0,0.0,0.0,0.0,0.0,0.0,0.0,0.0,0.0,0.0,0.0,0.0,0.0,0.0,
0.8626,3.369831628473294,3.369831628473294,3.960085012100768,0.0,0.0,0.0,3.5665827563491184,0.0,0.0,0.0,0.0,0.0,0.0,0.0,0.0,0.0,0.0,0.0,0.0,0.0,0.0,
0.8813,3.370728941139103,3.370728941139103,3.9613713671378052,0.0,0.0,0.0,3.567609749805337,0.0,0.0,0.0,0.0,0.0,0.0,0.0,0.0,0.0,0.0,0.0,0.0,0.0,0.0,
0.9001,3.371651492147712,3.371651492147712,3.962694029797648,0.0,0.0,0.0,3.568665671364357,0.0,0.0,0.0,0.0,0.0,0.0,0.0,0.0,0.0,0.0,0.0,0.0,0.0,0.0,
0.9189,3.3725946064958503,3.3725946064958503,3.96404630711947,0.0,0.0,0.0,3.5697451733703907,0.0,0.0,0.0,0.0,0.0,0.0,0.0,0.0,0.0,0.0,0.0,0.0,0.0,0.0,
0.9376,3.3735531739271076,3.3735531739271076,3.965420879527298,0.0,0.0,0.0,3.5708424091271715,0.0,0.0,0.0,0.0,0.0,0.0,0.0,0.0,0.0,0.0,0.0,0.0,0.0,0.0,
0.9564,3.3745375186726227,3.3745375186726227,3.9668325608624895,0.0,0.0,0.0,3.5719691994025786,0.0,0.0,0.0,0.0,0.0,0.0,0.0,0.0,0.0,0.0,0.0,0.0,0.0,0.0,
0.9751,3.3755372423543863,3.3755372423543863,3.9682664476696434,0.0,0.0,0.0,3.5731136441261384,0.0,0.0,0.0,0.0,0.0,0.0,0.0,0.0,0.0,0.0,0.0,0.0,0.0,0.0,
0.9939,3.3765631128451,3.3765631128451,3.969737993628675,0.0,0.0,0.0,3.574288073106292,0.0,0.0,0.0,0.0,0.0,0.0,0.0,0.0,0.0,0.0,0.0,0.0,0.0,0.0,
1.0126,3.3776042934815966,3.3776042934815966,3.971231663905689,0.0,0.0,0.0,3.575480083622961,0.0,0.0,0.0,0.0,0.0,0.0,0.0,0.0,0.0,0.0,0.0,0.0,0.0,0.0,
1.0314,3.378671999065427,3.378671999065427,3.972763557154269,0.0,0.0,0.0,3.5767025184283745,0.0,0.0,0.0,0.0,0.0,0.0,0.0,0.0,0.0,0.0,0.0,0.0,0.0,0.0,
1.0501,3.379754951429953,3.379754951429953,3.9743175021480304,0.0,0.0,0.0,3.5779424683359786,0.0,0.0,0.0,0.0,0.0,0.0,0.0,0.0,0.0,0.0,0.0,0.0,0.0,0.0,
1.0689,3.3808648157472843,3.3808648157472843,3.9759102478931863,0.0,0.0,0.0,3.5792132931292517,0.0,0.0,0.0,0.0,0.0,0.0,0.0,0.0,0.0,0.0,0.0,0.0,0.0,0.0,
1.0876,3.381989868980937,3.381989868980937,3.977524981523785,0.0,0.0,0.0,3.5805015731618863,0.0,0.0,0.0,0.0,0.0,0.0,0.0,0.0,0.0,0.0,0.0,0.0,0.0,0.0,
1.1064,3.3831422302730383,3.3831422302730383,3.9791791080269947,0.0,0.0,0.0,3.5818211895243572,0.0,0.0,0.0,0.0,0.0,0.0,0.0,0.0,0.0,0.0,0.0,0.0,0.0,0.0,
1.1251,3.384309728199674,3.384309728199674,3.9808551674119563,0.0,0.0,0.0,3.5831582079371014,0.0,0.0,0.0,0.0,0.0,0.0,0.0,0.0,0.0,0.0,0.0,0.0,0.0,0.0,
1.1439,3.385504939633706,3.385504939633706,3.9825712265303936,0.0,0.0,0.0,3.5845270352659355,0.0,0.0,0.0,0.0,0.0,0.0,0.0,0.0,0.0,0.0,0.0,0.0,0.0,0.0,
1.1626,3.386715241091782,3.386715241091782,3.9843091725375026,0.0,0.0,0.0,3.5859132182403552,0.0,0.0,0.0,0.0,0.0,0.0,0.0,0.0,0.0,0.0,0.0,0.0,0.0,0.0,
1.1814,3.3879536711032054,3.3879536711032054,3.986087740294717,0.0,0.0,0.0,3.587331694167043,0.0,0.0,0.0,0.0,0.0,0.0,0.0,0.0,0.0,0.0,0.0,0.0,0.0,0.0,
1.2001,3.3892071502951957,3.3892071502951957,3.9878881581246555,0.0,0.0,0.0,3.5887674862383485,0.0,0.0,0.0,0.0,0.0,0.0,0.0,0.0,0.0,0.0,0.0,0.0,0.0,0.0,
1.2189,3.3904891829482287,3.3904891829482287,3.9897298353117034,0.0,0.0,0.0,3.590236067069387,0.0,0.0,0.0,0.0,0.0,0.0,0.0,0.0,0.0,0.0,0.0,0.0,0.0,0.0,
1.2376,3.3917862298084462,3.3917862298084462,3.991593335111829,0.0,0.0,0.0,3.5917219315762403,0.0,0.0,0.0,0.0,0.0,0.0,0.0,0.0,0.0,0.0,0.0,0.0,0.0,0.0,
1.2564,3.39311226517521,3.39311226517521,3.9934987479205364,0.0,0.0,0.0,3.5932410927569856,0.0,0.0,0.0,0.0,0.0,0.0,0.0,0.0,0.0,0.0,0.0,0.0,0.0,0.0,
1.2751,3.3944532857566703,3.3944532857566703,3.995425965431122,0.0,0.0,0.0,3.594777512314821,0.0,0.0,0.0,0.0,0.0,0.0,0.0,0.0,0.0,0.0,0.0,0.0,0.0,0.0,
1.2939,3.3958237403162124,3.3958237403162124,3.997395766120662,0.0,0.0,0.0,3.5963477489176956,0.0,0.0,0.0,0.0,0.0,0.0,0.0,0.0,0.0,0.0,0.0,0.0,0.0,0.0,
1.3126,3.397209157197534,3.397209157197534,3.999387363355164,0.0,0.0,0.0,3.597935225916744,0.0,0.0,0.0,0.0,0.0,0.0,0.0,0.0,0.0,0.0,0.0,0.0,0.0,0.0,
1.3314,3.3986244642551715,3.3986244642551715,4.001422230953665,0.0,0.0,0.0,3.599557053154669,0.0,0.0,0.0,0.0,0.0,0.0,0.0,0.0,0.0,0.0,0.0,0.0,0.0,0.0,
1.3501,3.4000547169682447,3.4000547169682447,4.003478896914551,0.0,0.0,0.0,3.6011961102836803,0.0,0.0,0.0,0.0,0.0,0.0,0.0,0.0,0.0,0.0,0.0,0.0,0.0,0.0,
1.3689,3.401515327096461,3.401515327096461,4.005579537957296,0.0,0.0,0.0,3.6028700640500726,0.0,0.0,0.0,0.0,0.0,0.0,0.0,0.0,0.0,0.0,0.0,0.0,0.0,0.0,
1.3877,3.402998824274574,3.402998824274574,4.007713428156842,0.0,0.0,0.0,3.604570358901997,0.0,0.0,0.0,0.0,0.0,0.0,0.0,0.0,0.0,0.0,0.0,0.0,0.0,0.0,
1.4064,3.4044972540778153,3.4044972540778153,4.00986913869513,0.0,0.0,0.0,3.606287882283587,0.0,0.0,0.0,0.0,0.0,0.0,0.0,0.0,0.0,0.0,0.0,0.0,0.0,0.0,
1.4252,3.40602676422969,3.40602676422969,4.012069916445889,0.0,0.0,0.0,3.6080411483017563,0.0,0.0,0.0,0.0,0.0,0.0,0.0,0.0,0.0,0.0,0.0,0.0,0.0,0.0,
1.4439,3.4075712065295023,3.4075712065295023,4.014292542365595,0.0,0.0,0.0,3.6098116518081995,0.0,0.0,0.0,0.0,0.0,0.0,0.0,0.0,0.0,0.0,0.0,0.0,0.0,0.0,
1.4627,3.409147225499141,3.409147225499141,4.016560986496607,0.0,0.0,0.0,3.6116184791649633,0.0,0.0,0.0,0.0,0.0,0.0,0.0,0.0,0.0,0.0,0.0,0.0,0.0,0.0,
1.4814,3.4107381828820706,3.4107381828820706,4.018851317494148,0.0,0.0,0.0,3.6134425610860963,0.0,0.0,0.0,0.0,0.0,0.0,0.0,0.0,0.0,0.0,0.0,0.0,0.0,0.0,
1.5002,3.4123612255082265,3.4123612255082265,4.02118823724123,0.0,0.0,0.0,3.6153035627525605,0.0,0.0,0.0,0.0,0.0,0.0,0.0,0.0,0.0,0.0,0.0,0.0,0.0,0.0,
1.5189,3.413999219724992,3.413999219724992,4.023547093713022,0.0,0.0,0.0,3.617181844387668,0.0,0.0,0.0,0.0,0.0,0.0,0.0,0.0,0.0,0.0,0.0,0.0,0.0,0.0,
1.5377,3.4156698203917712,3.4156698203917712,4.025953329645171,0.0,0.0,0.0,3.6190976568095707,0.0,0.0,0.0,0.0,0.0,0.0,0.0,0.0,0.0,0.0,0.0,0.0,0.0,0.0,
1.5564,3.4173553929186835,3.4173553929186835,4.0283815636326405,0.0,0.0,0.0,3.6210307831566695,0.0,0.0,0.0,0.0,0.0,0.0,0.0,0.0,0.0,0.0,0.0,0.0,0.0,0.0,
1.5752,3.4190741061340852,3.4190741061340852,4.0308579886264475,0.0,0.0,0.0,3.6230020669648724,0.0,0.0,0.0,0.0,0.0,0.0,0.0,0.0,0.0,0.0,0.0,0.0,0.0,0.0,
1.5939,3.4208078187626945,3.4208078187626945,4.033356484809939,0.0,0.0,0.0,3.6249907074451095,0.0,0.0,0.0,0.0,0.0,0.0,0.0,0.0,0.0,0.0,0.0,0.0,0.0,0.0,
1.6127,3.422575219766146,3.422575219766146,4.035904005074192,0.0,0.0,0.0,3.6270181482021613,0.0,0.0,0.0,0.0,0.0,0.0,0.0,0.0,0.0,0.0,0.0,0.0,0.0,0.0,
1.6314,3.4243576552227353,3.4243576552227353,4.0384736818181715,0.0,0.0,0.0,3.629062997421214,0.0,0.0,0.0,0.0,0.0,0.0,0.0,0.0,0.0,0.0,0.0,0.0,0.0,0.0,
1.6502,3.426174340623384,3.426174340623384,4.041093237971635,0.0,0.0,0.0,3.6311473064061346,0.0,0.0,0.0,0.0,0.0,0.0,0.0,0.0,0.0,0.0,0.0,0.0,0.0,0.0,
1.6689,3.4280061032196656,3.4280061032196656,4.043735048424128,0.0,0.0,0.0,3.6332490849544867,0.0,0.0,0.0,0.0,0.0,0.0,0.0,0.0,0.0,0.0,0.0,0.0,0.0,0.0,
1.6877,3.429872691667016,3.429872691667016,4.0464276166290745,0.0,0.0,0.0,3.6353909999877025,0.0,0.0,0.0,0.0,0.0,0.0,0.0,0.0,0.0,0.0,0.0,0.0,0.0,0.0,
1.7064,3.431754407983878,3.431754407983878,4.04914254987812,0.0,0.0,0.0,3.6375504552819584,0.0,0.0,0.0,0.0,0.0,0.0,0.0,0.0,0.0,0.0,0.0,0.0,0.0,0.0,
1.7252,3.433671540872235,3.433671540872235,4.051909143032896,0.0,0.0,0.0,3.6397507415924557,0.0,0.0,0.0,0.0,0.0,0.0,0.0,0.0,0.0,0.0,0.0,0.0,0.0,0.0,
1.7439,3.4356038604780514,3.4356038604780514,4.054698225323381,0.0,0.0,0.0,3.6419686487598284,0.0,0.0,0.0,0.0,0.0,0.0,0.0,0.0,0.0,0.0,0.0,0.0,0.0,0.0,
1.7627,3.4375722026869884,3.4375722026869884,4.05753989431723,0.0,0.0,0.0,3.644228099897069,0.0,0.0,0.0,0.0,0.0,0.0,0.0,0.0,0.0,0.0,0.0,0.0,0.0,0.0,
1.7814,3.4395557988925995,3.4395557988925995,4.06040419033107,0.0,0.0,0.0,3.646505262705423,0.0,0.0,0.0,0.0,0.0,0.0,0.0,0.0,0.0,0.0,0.0,0.0,0.0,0.0,
1.8002,3.4415760395650317,3.4415760395650317,4.063322025364575,0.0,0.0,0.0,3.6488247014982123,0.0,0.0,0.0,0.0,0.0,0.0,0.0,0.0,0.0,0.0,0.0,0.0,0.0,0.0,
1.8189,3.4436116102172916,3.4436116102172916,4.066262639568431,0.0,0.0,0.0,3.651161953334338,0.0,0.0,0.0,0.0,0.0,0.0,0.0,0.0,0.0,0.0,0.0,0.0,0.0,0.0,
1.8377,3.445684463577426,3.445684463577426,4.069257771543582,0.0,0.0,0.0,3.6535422328994778,0.0,0.0,0.0,0.0,0.0,0.0,0.0,0.0,0.0,0.0,0.0,0.0,0.0,0.0,
1.8565,3.447783970323672,3.447783970323672,4.07229209382033,0.0,0.0,0.0,3.655953344822558,0.0,0.0,0.0,0.0,0.0,0.0,0.0,0.0,0.0,0.0,0.0,0.0,0.0,0.0,
1.8752,3.4498989381067493,3.4498989381067493,4.075349451590977,0.0,0.0,0.0,3.6583824426014915,0.0,0.0,0.0,0.0,0.0,0.0,0.0,0.0,0.0,0.0,0.0,0.0,0.0,0.0,
1.894,3.4520521788204523,3.4520521788204523,4.078462848322186,0.0,0.0,0.0,3.66085573532103,0.0,0.0,0.0,0.0,0.0,0.0,0.0,0.0,0.0,0.0,0.0,0.0,0.0,0.0,
1.9127,3.4542209796288814,3.4542209796288814,4.08159947064681,0.0,0.0,0.0,3.663347143301524,0.0,0.0,0.0,0.0,0.0,0.0,0.0,0.0,0.0,0.0,0.0,0.0,0.0,0.0,
1.9315,3.456428735135119,3.456428735135119,4.08479318112248,0.0,0.0,0.0,3.665883550464239,0.0,0.0,0.0,0.0,0.0,0.0,0.0,0.0,0.0,0.0,0.0,0.0,0.0,0.0,
1.9502,3.4586521595871687,3.4586521595871687,4.088010323451599,0.0,0.0,0.0,3.6684382142086456,0.0,0.0,0.0,0.0,0.0,0.0,0.0,0.0,0.0,0.0,0.0,0.0,0.0,0.0,
1.969,3.4609152390037714,3.4609152390037714,4.091285633138133,0.0,0.0,0.0,3.6710387037152254,0.0,0.0,0.0,0.0,0.0,0.0,0.0,0.0,0.0,0.0,0.0,0.0,0.0,0.0,
1.9877,3.4631941063643774,3.4631941063643774,4.09458459771525,0.0,0.0,0.0,3.6736576034813346,0.0,0.0,0.0,0.0,0.0,0.0,0.0,0.0,0.0,0.0,0.0,0.0,0.0,0.0,
2.0065,3.465513348129213,3.465513348129213,4.0979428400122355,0.0,0.0,0.0,3.676323178756887,0.0,0.0,0.0,0.0,0.0,0.0,0.0,0.0,0.0,0.0,0.0,0.0,0.0,0.0,
2.0252,3.4678485073582466,3.4678485073582466,4.101324977668053,0.0,0.0,0.0,3.6790073307948483,0.0,0.0,0.0,0.0,0.0,0.0,0.0,0.0,0.0,0.0,0.0,0.0,0.0,0.0,
2.044,3.470224780310635,3.470224780310635,4.104767535760718,0.0,0.0,0.0,3.68173903212733,0.0,0.0,0.0,0.0,0.0,0.0,0.0,0.0,0.0,0.0,0.0,0.0,0.0,0.0,
2.0627,3.4726171111667914,3.4726171111667914,4.1082342478054485,0.0,0.0,0.0,3.6844894900463436,0.0,0.0,0.0,0.0,0.0,0.0,0.0,0.0,0.0,0.0,0.0,0.0,0.0,0.0,
2.0815,3.475051315686348,3.475051315686348,4.111762556618157,0.0,0.0,0.0,3.687288395996951,0.0,0.0,0.0,0.0,0.0,0.0,0.0,0.0,0.0,0.0,0.0,0.0,0.0,0.0,
2.1002,3.4775017298897164,3.4775017298897164,4.115315296837439,0.0,0.0,0.0,3.6901062522056236,0.0,0.0,0.0,0.0,0.0,0.0,0.0,0.0,0.0,0.0,0.0,0.0,0.0,0.0,
2.119,3.479994799096222,3.479994799096222,4.1189308450954165,0.0,0.0,0.0,3.692973481095953,0.0,0.0,0.0,0.0,0.0,0.0,0.0,0.0,0.0,0.0,0.0,0.0,0.0,0.0,
2.1377,3.4825042415535306,3.4825042415535306,4.1225711218570105,0.0,0.0,0.0,3.695859868321357,0.0,0.0,0.0,0.0,0.0,0.0,0.0,0.0,0.0,0.0,0.0,0.0,0.0,0.0,
2.1565,3.4850571425713617,3.4850571425713617,4.12627545426235,0.0,0.0,0.0,3.698796579801691,0.0,0.0,0.0,0.0,0.0,0.0,0.0,0.0,0.0,0.0,0.0,0.0,0.0,0.0,
2.1752,3.4876265926673664,3.4876265926673664,4.130004832740429,0.0,0.0,0.0,3.7017526726917205,0.0,0.0,0.0,0.0,0.0,0.0,0.0,0.0,0.0,0.0,0.0,0.0,0.0,0.0,
2.194,3.4902403279588534,3.4902403279588534,4.133799552270073,0.0,0.0,0.0,3.704760069395926,0.0,0.0,0.0,0.0,0.0,0.0,0.0,0.0,0.0,0.0,0.0,0.0,0.0,0.0,
2.2127,3.492870800918173,3.492870800918173,4.137619656794613,0.0,0.0,0.0,3.70778708621032,0.0,0.0,0.0,0.0,0.0,0.0,0.0,0.0,0.0,0.0,0.0,0.0,0.0,0.0,
2.2315,3.495546409689762,3.495546409689762,4.141506427128545,0.0,0.0,0.0,3.7108664155026894,0.0,0.0,0.0,0.0,0.0,0.0,0.0,0.0,0.0,0.0,0.0,0.0,0.0,0.0,
2.2502,3.498238958013889,3.498238958013889,4.1454189436682345,0.0,0.0,0.0,3.7139656198986706,0.0,0.0,0.0,0.0,0.0,0.0,0.0,0.0,0.0,0.0,0.0,0.0,0.0,0.0,
2.269,3.500977517700184,3.500977517700184,4.149399491755839,0.0,0.0,0.0,3.717118175718736,0.0,0.0,0.0,0.0,0.0,0.0,0.0,0.0,0.0,0.0,0.0,0.0,0.0,0.0,
2.2877,3.503733232683999,3.503733232683999,4.153406170543181,0.0,0.0,0.0,3.72029087863706,0.0,0.0,0.0,0.0,0.0,0.0,0.0,0.0,0.0,0.0,0.0,0.0,0.0,0.0,
2.3065,3.5065358605145462,3.5065358605145462,4.157482289317527,0.0,0.0,0.0,3.7235180034488735,0.0,0.0,0.0,0.0,0.0,0.0,0.0,0.0,0.0,0.0,0.0,0.0,0.0,0.0,
2.3253,3.509371041231935,3.509371041231935,4.161607017093473,0.0,0.0,0.0,3.726783033185781,0.0,0.0,0.0,0.0,0.0,0.0,0.0,0.0,0.0,0.0,0.0,0.0,0.0,0.0,
2.344,3.5122237285020645,3.5122237285020645,4.165758498875594,0.0,0.0,0.0,3.7300686519599076,0.0,0.0,0.0,0.0,0.0,0.0,0.0,0.0,0.0,0.0,0.0,0.0,0.0,0.0,
2.3628,3.5151247330716147,3.5151247330716147,4.169981619363571,0.0,0.0,0.0,3.7334103618356003,0.0,0.0,0.0,0.0,0.0,0.0,0.0,0.0,0.0,0.0,0.0,0.0,0.0,0.0,
2.3815,3.518043497317842,3.518043497317842,4.174231941367856,0.0,0.0,0.0,3.736772978667847,0.0,0.0,0.0,0.0,0.0,0.0,0.0,0.0,0.0,0.0,0.0,0.0,0.0,0.0,
2.4003,3.521011549964036,3.521011549964036,4.178555425496867,0.0,0.0,0.0,3.7401928418083137,0.0,0.0,0.0,0.0,0.0,0.0,0.0,0.0,0.0,0.0,0.0,0.0,0.0,0.0,
2.419,3.523997631540719,3.523997631540719,4.1829065859412395,0.0,0.0,0.0,3.743633949674226,0.0,0.0,0.0,0.0,0.0,0.0,0.0,0.0,0.0,0.0,0.0,0.0,0.0,0.0,
2.4378,3.5270340025030493,3.5270340025030493,4.187332481443283,0.0,0.0,0.0,3.7471334954831277,0.0,0.0,0.0,0.0,0.0,0.0,0.0,0.0,0.0,0.0,0.0,0.0,0.0,0.0,
