energies(eV),real_xx,real_yy,real_zz,real_xy,real_yz,real_xz,real_ave,imag_xx,imag_yy,imag_zz,imag_xy,imag_yz,imag_xz,imag_ave,absorption_xx,absorption_yy,absorption_zz,absorption_xy,absorption_yz,absorption_xz,absorption_ave,band_gap
0.0,2.4991836866799044,2.4991836866799044,2.6031298734176063,0.0,0.0,0.0,2.5338324155924714,0.0,0.0,0.0,0.0,0.0,0.0,0.0,0.0,0.0,0.0,0.0,0.0,0.0,0.0,5.634399999999999
0.0161,2.499186460554674,2.499186460554674,2.6031329177457243,0.0,0.0,0.0,2.533835279618357,0.0,0.0,0.0,0.0,0.0,0.0,0.0,0.0,0.0,0.0,0.0,0.0,0.0,0.0,
0.0323,2.4991948512993885,2.4991948512993885,2.603142126586458,0.0,0.0,0.0,2.5338439430617448,0.0,0.0,0.0,0.0,0.0,0.0,0.0,0.0,0.0,0.0,0.0,0.0,0.0,0.0,
0.0484,2.4992087556141396,2.4992087556141396,2.6031573865584887,0.0,0.0,0.0,2.533858299262256,0.0,0.0,0.0,0.0,0.0,0.0,0.0,0.0,0.0,0.0,0.0,0.0,0.0,0.0,
0.0646,2.4992283467101846,2.4992283467101846,2.6031788877446838,0.0,0.0,0.0,2.5338785270550175,0.0,0.0,0.0,0.0,0.0,0.0,0.0,0.0,0.0,0.0,0.0,0.0,0.0,0.0,
0.0807,2.4992533833983126,2.4992533833983126,2.603206365417737,0.0,0.0,0.0,2.5339043774047876,0.0,0.0,0.0,0.0,0.0,0.0,0.0,0.0,0.0,0.0,0.0,0.0,0.0,0.0,
0.0969,2.499284177570037,2.499284177570037,2.6032401618480856,0.0,0.0,0.0,2.5339361723293865,0.0,0.0,0.0,0.0,0.0,0.0,0.0,0.0,0.0,0.0,0.0,0.0,0.0,0.0,
0.113,2.4993203501135097,2.4993203501135097,2.6032798609269197,0.0,0.0,0.0,2.5339735203846465,0.0,0.0,0.0,0.0,0.0,0.0,0.0,0.0,0.0,0.0,0.0,0.0,0.0,0.0,
0.1291,2.4993620751289045,2.4993620751289045,2.603325653686464,0.0,0.0,0.0,2.534016601314758,0.0,0.0,0.0,0.0,0.0,0.0,0.0,0.0,0.0,0.0,0.0,0.0,0.0,0.0,
0.1453,2.49940966507524,2.49940966507524,2.6033778829972762,0.0,0.0,0.0,2.534065737715919,0.0,0.0,0.0,0.0,0.0,0.0,0.0,0.0,0.0,0.0,0.0,0.0,0.0,0.0,
0.1614,2.4994625340661423,2.4994625340661423,2.603435905801962,0.0,0.0,0.0,2.5341203246447486,0.0,0.0,0.0,0.0,0.0,0.0,0.0,0.0,0.0,0.0,0.0,0.0,0.0,0.0,
0.1776,2.4995213407124837,2.4995213407124837,2.6035004448522994,0.0,0.0,0.0,2.5341810420924222,0.0,0.0,0.0,0.0,0.0,0.0,0.0,0.0,0.0,0.0,0.0,0.0,0.0,0.0,
0.1937,2.49958536103862,2.49958536103862,2.603570705532049,0.0,0.0,0.0,2.53424714253643,0.0,0.0,0.0,0.0,0.0,0.0,0.0,0.0,0.0,0.0,0.0,0.0,0.0,0.0,
0.2099,2.499655392573489,2.499655392573489,2.603647563033384,0.0,0.0,0.0,2.534319449393454,0.0,0.0,0.0,0.0,0.0,0.0,0.0,0.0,0.0,0.0,0.0,0.0,0.0,0.0,
0.226,2.4997305731519868,2.4997305731519868,2.603730071074561,0.0,0.0,0.0,2.5343970724595115,0.0,0.0,0.0,0.0,0.0,0.0,0.0,0.0,0.0,0.0,0.0,0.0,0.0,0.0,
0.2421,2.4998113203963546,2.4998113203963546,2.603818687896718,0.0,0.0,0.0,2.534480442896476,0.0,0.0,0.0,0.0,0.0,0.0,0.0,0.0,0.0,0.0,0.0,0.0,0.0,0.0,
0.2583,2.499898190642488,2.499898190642488,2.6039140239566603,0.0,0.0,0.0,2.5345701350805454,0.0,0.0,0.0,0.0,0.0,0.0,0.0,0.0,0.0,0.0,0.0,0.0,0.0,0.0,
0.2744,2.4999901144256658,2.4999901144256658,2.6040149054650676,0.0,0.0,0.0,2.534665044772133,0.0,0.0,0.0,0.0,0.0,0.0,0.0,0.0,0.0,0.0,0.0,0.0,0.0,0.0,
0.2906,2.5000882368863913,2.5000882368863913,2.604122589044147,0.0,0.0,0.0,2.53476635427231,0.0,0.0,0.0,0.0,0.0,0.0,0.0,0.0,0.0,0.0,0.0,0.0,0.0,0.0,
0.3067,2.5001913500363226,2.5001913500363226,2.6042357488834194,0.0,0.0,0.0,2.534872816318688,0.0,0.0,0.0,0.0,0.0,0.0,0.0,0.0,0.0,0.0,0.0,0.0,0.0,0.0,
0.3229,2.5003007384109015,2.5003007384109015,2.604355794552477,0.0,0.0,0.0,2.53498575712476,0.0,0.0,0.0,0.0,0.0,0.0,0.0,0.0,0.0,0.0,0.0,0.0,0.0,0.0,
0.339,2.500415055330624,2.500415055330624,2.6044812480413193,0.0,0.0,0.0,2.5351037862341887,0.0,0.0,0.0,0.0,0.0,0.0,0.0,0.0,0.0,0.0,0.0,0.0,0.0,0.0,
0.3551,2.5005349626624955,2.5005349626624955,2.604612835567861,0.0,0.0,0.0,2.535227586964284,0.0,0.0,0.0,0.0,0.0,0.0,0.0,0.0,0.0,0.0,0.0,0.0,0.0,0.0,
0.3713,2.500661261580878,2.500661261580878,2.6047514361969726,0.0,0.0,0.0,2.5353579864529094,0.0,0.0,0.0,0.0,0.0,0.0,0.0,0.0,0.0,0.0,0.0,0.0,0.0,0.0,
0.3874,2.50079239722814,2.50079239722814,2.604895343476149,0.0,0.0,0.0,2.5354933793108096,0.0,0.0,0.0,0.0,0.0,0.0,0.0,0.0,0.0,0.0,0.0,0.0,0.0,0.0,
0.4036,2.5009300032440436,2.5009300032440436,2.60504634999183,0.0,0.0,0.0,2.535635452159972,0.0,0.0,0.0,0.0,0.0,0.0,0.0,0.0,0.0,0.0,0.0,0.0,0.0,0.0,
0.4197,2.5010723855761077,2.5010723855761077,2.6052025965560794,0.0,0.0,0.0,2.535782455902765,0.0,0.0,0.0,0.0,0.0,0.0,0.0,0.0,0.0,0.0,0.0,0.0,0.0,0.0,
0.4359,2.501221317977841,2.501221317977841,2.6053660294667056,0.0,0.0,0.0,2.5359362218074626,0.0,0.0,0.0,0.0,0.0,0.0,0.0,0.0,0.0,0.0,0.0,0.0,0.0,0.0,
0.452,2.5013749669660625,2.5013749669660625,2.605534636549419,0.0,0.0,0.0,2.5360948568271815,0.0,0.0,0.0,0.0,0.0,0.0,0.0,0.0,0.0,0.0,0.0,0.0,0.0,0.0,
0.4681,2.501534239800842,2.501534239800842,2.6057094132186416,0.0,0.0,0.0,2.5362592976067755,0.0,0.0,0.0,0.0,0.0,0.0,0.0,0.0,0.0,0.0,0.0,0.0,0.0,0.0,
0.4843,2.501700183885537,2.501700183885537,2.6058915086243077,0.0,0.0,0.0,2.5364306254651274,0.0,0.0,0.0,0.0,0.0,0.0,0.0,0.0,0.0,0.0,0.0,0.0,0.0,0.0,
0.5004,2.501870756321993,2.501870756321993,2.606078680833811,0.0,0.0,0.0,2.5366067311592655,0.0,0.0,0.0,0.0,0.0,0.0,0.0,0.0,0.0,0.0,0.0,0.0,0.0,0.0,
0.5166,2.502048082069953,2.502048082069953,2.606273261395277,0.0,0.0,0.0,2.5367898085117275,0.0,0.0,0.0,0.0,0.0,0.0,0.0,0.0,0.0,0.0,0.0,0.0,0.0,0.0,
0.5327,2.5022299781245962,2.5022299781245962,2.606472854670768,0.0,0.0,0.0,2.5369776036399867,0.0,0.0,0.0,0.0,0.0,0.0,0.0,0.0,0.0,0.0,0.0,0.0,0.0,0.0,
0.5488,2.5024175279376166,2.5024175279376166,2.6066786493240732,0.0,0.0,0.0,2.5371712350664355,0.0,0.0,0.0,0.0,0.0,0.0,0.0,0.0,0.0,0.0,0.0,0.0,0.0,0.0,
0.565,2.5026119558518127,2.5026119558518127,2.6068919885491075,0.0,0.0,0.0,2.537371966750911,0.0,0.0,0.0,0.0,0.0,0.0,0.0,0.0,0.0,0.0,0.0,0.0,0.0,0.0,
0.5811,2.5028108683410055,2.5028108683410055,2.6071102457729696,0.0,0.0,0.0,2.5375773274849935,0.0,0.0,0.0,0.0,0.0,0.0,0.0,0.0,0.0,0.0,0.0,0.0,0.0,0.0,
0.5973,2.5030167434517168,2.5030167434517168,2.6073361397916806,0.0,0.0,0.0,2.537789875565038,0.0,0.0,0.0,0.0,0.0,0.0,0.0,0.0,0.0,0.0,0.0,0.0,0.0,0.0,
0.6134,2.503227046749747,2.503227046749747,2.607566889474956,0.0,0.0,0.0,2.538006994324817,0.0,0.0,0.0,0.0,0.0,0.0,0.0,0.0,0.0,0.0,0.0,0.0,0.0,0.0,
0.6296,2.503444398202954,2.503444398202954,2.607805369250121,0.0,0.0,0.0,2.53823138855201,0.0,0.0,0.0,0.0,0.0,0.0,0.0,0.0,0.0,0.0,0.0,0.0,0.0,0.0,
0.6457,2.5036661221127487,2.5036661221127487,2.608048643050694,0.0,0.0,0.0,2.5384602957587306,0.0,0.0,0.0,0.0,0.0,0.0,0.0,0.0,0.0,0.0,0.0,0.0,0.0,0.0,
0.6618,2.503893550302784,2.503893550302784,2.608298171899537,0.0,0.0,0.0,2.5386950908350348,0.0,0.0,0.0,0.0,0.0,0.0,0.0,0.0,0.0,0.0,0.0,0.0,0.0,0.0,
0.678,2.504128156751085,2.504128156751085,2.6085555726911513,0.0,0.0,0.0,2.538937295397774,0.0,0.0,0.0,0.0,0.0,0.0,0.0,0.0,0.0,0.0,0.0,0.0,0.0,0.0,
0.6941,2.5043670533690547,2.5043670533690547,2.608817676437802,0.0,0.0,0.0,2.5391839277253037,0.0,0.0,0.0,0.0,0.0,0.0,0.0,0.0,0.0,0.0,0.0,0.0,0.0,0.0,
0.7103,2.5046132163880044,2.5046132163880044,2.6090877481873247,0.0,0.0,0.0,2.539438060321111,0.0,0.0,0.0,0.0,0.0,0.0,0.0,0.0,0.0,0.0,0.0,0.0,0.0,0.0,
0.7264,2.504863615474096,2.504863615474096,2.6093624629734595,0.0,0.0,0.0,2.5396965646405505,0.0,0.0,0.0,0.0,0.0,0.0,0.0,0.0,0.0,0.0,0.0,0.0,0.0,0.0,
0.7426,2.5051213701805226,2.5051213701805226,2.60964524296183,0.0,0.0,0.0,2.539962661107625,0.0,0.0,0.0,0.0,0.0,0.0,0.0,0.0,0.0,0.0,0.0,0.0,0.0,0.0,
0.7587,2.505383307498877,2.505383307498877,2.6099326067516104,0.0,0.0,0.0,2.540233073916455,0.0,0.0,0.0,0.0,0.0,0.0,0.0,0.0,0.0,0.0,0.0,0.0,0.0,0.0,
0.7748,2.5056510099694513,2.5056510099694513,2.610226290212065,0.0,0.0,0.0,2.5405094367169894,0.0,0.0,0.0,0.0,0.0,0.0,0.0,0.0,0.0,0.0,0.0,0.0,0.0,0.0,
0.791,2.5059262038090537,2.5059262038090537,2.6105281866995025,0.0,0.0,0.0,2.540793531439203,0.0,0.0,0.0,0.0,0.0,0.0,0.0,0.0,0.0,0.0,0.0,0.0,0.0,0.0,
0.8071,2.506205501368031,2.506205501368031,2.6108345795005183,0.0,0.0,0.0,2.541081860745527,0.0,0.0,0.0,0.0,0.0,0.0,0.0,0.0,0.0,0.0,0.0,0.0,0.0,0.0,
0.8233,2.5064923822910528,2.5064923822910528,2.6111492854624894,0.0,0.0,0.0,2.5413780166815316,0.0,0.0,0.0,0.0,0.0,0.0,0.0,0.0,0.0,0.0,0.0,0.0,0.0,0.0,
0.8394,2.5067833150877306,2.5067833150877306,2.611468430199051,0.0,0.0,0.0,2.541678353458171,0.0,0.0,0.0,0.0,0.0,0.0,0.0,0.0,0.0,0.0,0.0,0.0,0.0,0.0,
0.8556,2.5070819243902482,2.5070819243902482,2.611795989441883,0.0,0.0,0.0,2.5419866127407933,0.0,0.0,0.0,0.0,0.0,0.0,0.0,0.0,0.0,0.0,0.0,0.0,0.0,0.0,
0.8717,2.5073845343626795,2.5073845343626795,2.6121279305958804,0.0,0.0,0.0,2.5422989997737466,0.0,0.0,0.0,0.0,0.0,0.0,0.0,0.0,0.0,0.0,0.0,0.0,0.0,0.0,
0.8878,2.507692981070713,2.507692981070713,2.6124662673542063,0.0,0.0,0.0,2.5426174098318772,0.0,0.0,0.0,0.0,0.0,0.0,0.0,0.0,0.0,0.0,0.0,0.0,0.0,0.0,
0.904,2.508009246046632,2.508009246046632,2.6128131727954216,0.0,0.0,0.0,2.5429438882962283,0.0,0.0,0.0,0.0,0.0,0.0,0.0,0.0,0.0,0.0,0.0,0.0,0.0,0.0,
0.9201,2.508329436166421,2.508329436166421,2.613164376202275,0.0,0.0,0.0,2.5432744161783725,0.0,0.0,0.0,0.0,0.0,0.0,0.0,0.0,0.0,0.0,0.0,0.0,0.0,0.0,
0.9363,2.508657540655958,2.508657540655958,2.6135242527609774,0.0,0.0,0.0,2.5436131113576312,0.0,0.0,0.0,0.0,0.0,0.0,0.0,0.0,0.0,0.0,0.0,0.0,0.0,0.0,
0.9524,2.5089895206872774,2.5089895206872774,2.6138883721043635,0.0,0.0,0.0,2.5439558044929726,0.0,0.0,0.0,0.0,0.0,0.0,0.0,0.0,0.0,0.0,0.0,0.0,0.0,0.0,
0.9686,2.5093295124145696,2.5093295124145696,2.6142612703593398,0.0,0.0,0.0,2.544306765062826,0.0,0.0,0.0,0.0,0.0,0.0,0.0,0.0,0.0,0.0,0.0,0.0,0.0,0.0,
0.9847,2.509673330722759,2.509673330722759,2.6146383568902882,0.0,0.0,0.0,2.5446616727786022,0.0,0.0,0.0,0.0,0.0,0.0,0.0,0.0,0.0,0.0,0.0,0.0,0.0,0.0,
1.0008,2.510023068492852,2.510023068492852,2.615021926698873,0.0,0.0,0.0,2.545022687894859,0.0,0.0,0.0,0.0,0.0,0.0,0.0,0.0,0.0,0.0,0.0,0.0,0.0,0.0,
1.017,2.5103809661413936,2.5103809661413936,2.6154144363641323,0.0,0.0,0.0,2.5453921228823067,0.0,0.0,0.0,0.0,0.0,0.0,0.0,0.0,0.0,0.0,0.0,0.0,0.0,0.0,
1.0331,2.51074261820685,2.51074261820685,2.6158110538848542,0.0,0.0,0.0,2.545765430099518,0.0,0.0,0.0,0.0,0.0,0.0,0.0,0.0,0.0,0.0,0.0,0.0,0.0,0.0,
1.0493,2.511112530641035,2.511112530641035,2.6162167203540605,0.0,0.0,0.0,2.5461472605453768,0.0,0.0,0.0,0.0,0.0,0.0,0.0,0.0,0.0,0.0,0.0,0.0,0.0,0.0,
1.0654,2.5114861501366432,2.5114861501366432,2.6166264418499097,0.0,0.0,0.0,2.5465329140410655,0.0,0.0,0.0,0.0,0.0,0.0,0.0,0.0,0.0,0.0,0.0,0.0,0.0,0.0,
1.0816,2.5118681318015548,2.5118681318015548,2.6170453227643833,0.0,0.0,0.0,2.546927195455831,0.0,0.0,0.0,0.0,0.0,0.0,0.0,0.0,0.0,0.0,0.0,0.0,0.0,0.0,
1.0977,2.512253773817398,2.512253773817398,2.6174682065502064,0.0,0.0,0.0,2.547325251395001,0.0,0.0,0.0,0.0,0.0,0.0,0.0,0.0,0.0,0.0,0.0,0.0,0.0,0.0,
1.1138,2.5126454296720135,2.5126454296720135,2.61789767352957,0.0,0.0,0.0,2.5477295109578657,0.0,0.0,0.0,0.0,0.0,0.0,0.0,0.0,0.0,0.0,0.0,0.0,0.0,0.0,
1.13,2.513045602749342,2.513045602749342,2.6183364681002343,0.0,0.0,0.0,2.548142557866306,0.0,0.0,0.0,0.0,0.0,0.0,0.0,0.0,0.0,0.0,0.0,0.0,0.0,0.0,
1.1461,2.5134493673961797,2.5134493673961797,2.61877918865372,0.0,0.0,0.0,2.54855930781536,0.0,0.0,0.0,0.0,0.0,0.0,0.0,0.0,0.0,0.0,0.0,0.0,0.0,0.0,
1.1623,2.5138617544561916,2.5138617544561916,2.619231350830413,0.0,0.0,0.0,2.5489849532475986,0.0,0.0,0.0,0.0,0.0,0.0,0.0,0.0,0.0,0.0,0.0,0.0,0.0,0.0,
1.1784,2.514277687996617,2.514277687996617,2.6196873885238707,0.0,0.0,0.0,2.549414254839035,0.0,0.0,0.0,0.0,0.0,0.0,0.0,0.0,0.0,0.0,0.0,0.0,0.0,0.0,
1.1946,2.5147023505460675,2.5147023505460675,2.6201529833473254,0.0,0.0,0.0,2.54985256147982,0.0,0.0,0.0,0.0,0.0,0.0,0.0,0.0,0.0,0.0,0.0,0.0,0.0,0.0,
1.2107,2.5151305151408563,2.5151305151408563,2.6206224039012374,0.0,0.0,0.0,2.5502944780609833,0.0,0.0,0.0,0.0,0.0,0.0,0.0,0.0,0.0,0.0,0.0,0.0,0.0,0.0,
1.2268,2.515564800192779,2.515564800192779,2.6210985203912314,0.0,0.0,0.0,2.5507427069255963,0.0,0.0,0.0,0.0,0.0,0.0,0.0,0.0,0.0,0.0,0.0,0.0,0.0,0.0,
1.243,2.516007976676846,2.516007976676846,2.621584369917795,0.0,0.0,0.0,2.5512001077571624,0.0,0.0,0.0,0.0,0.0,0.0,0.0,0.0,0.0,0.0,0.0,0.0,0.0,0.0,
1.2591,2.516454589854588,2.516454589854588,2.6220739718509725,0.0,0.0,0.0,2.551661050520049,0.0,0.0,0.0,0.0,0.0,0.0,0.0,0.0,0.0,0.0,0.0,0.0,0.0,0.0,
1.2753,2.5169102047003324,2.5169102047003324,2.6225734261426688,0.0,0.0,0.0,2.5521312785144445,0.0,0.0,0.0,0.0,0.0,0.0,0.0,0.0,0.0,0.0,0.0,0.0,0.0,0.0,
1.2914,2.5173692134553076,2.5173692134553076,2.6230765847659665,0.0,0.0,0.0,2.552605003892194,0.0,0.0,0.0,0.0,0.0,0.0,0.0,0.0,0.0,0.0,0.0,0.0,0.0,0.0,
1.3076,2.5178373356249475,2.5178373356249475,2.623589716651126,0.0,0.0,0.0,2.5530881293003405,0.0,0.0,0.0,0.0,0.0,0.0,0.0,0.0,0.0,0.0,0.0,0.0,0.0,0.0,
1.3237,2.5183088095879174,2.5183088095879174,2.624106505484188,0.0,0.0,0.0,2.5535747082200078,0.0,0.0,0.0,0.0,0.0,0.0,0.0,0.0,0.0,0.0,0.0,0.0,0.0,0.0,
1.3398,2.518786523550684,2.518786523550684,2.6246301164956956,0.0,0.0,0.0,2.5540677211990213,0.0,0.0,0.0,0.0,0.0,0.0,0.0,0.0,0.0,0.0,0.0,0.0,0.0,0.0,
1.356,2.5192735212736372,2.5192735212736372,2.625163884968269,0.0,0.0,0.0,2.5545703091718477,0.0,0.0,0.0,0.0,0.0,0.0,0.0,0.0,0.0,0.0,0.0,0.0,0.0,0.0,
1.3721,2.5197638089443366,2.5197638089443366,2.6257012406901987,0.0,0.0,0.0,2.5550762861929575,0.0,0.0,0.0,0.0,0.0,0.0,0.0,0.0,0.0,0.0,0.0,0.0,0.0,0.0,
1.3883,2.520263496039253,2.520263496039253,2.626248878871487,0.0,0.0,0.0,2.555591956983331,0.0,0.0,0.0,0.0,0.0,0.0,0.0,0.0,0.0,0.0,0.0,0.0,0.0,0.0,
1.4044,2.52076643266044,2.52076643266044,2.6268000586656375,0.0,0.0,0.0,2.556110974662172,0.0,0.0,0.0,0.0,0.0,0.0,0.0,0.0,0.0,0.0,0.0,0.0,0.0,0.0,
1.4206,2.5212788859975586,2.5212788859975586,2.6273616476165462,0.0,0.0,0.0,2.556639806537221,0.0,0.0,0.0,0.0,0.0,0.0,0.0,0.0,0.0,0.0,0.0,0.0,0.0,0.0,
1.4367,2.5217945491286446,2.5217945491286446,2.627926733252499,0.0,0.0,0.0,2.5571719438365963,0.0,0.0,0.0,0.0,0.0,0.0,0.0,0.0,0.0,0.0,0.0,0.0,0.0,0.0,
1.4528,2.522316585511219,2.522316585511219,2.6284987815806216,0.0,0.0,0.0,2.5577106508676866,0.0,0.0,0.0,0.0,0.0,0.0,0.0,0.0,0.0,0.0,0.0,0.0,0.0,0.0,
1.469,2.5228483174909684,2.5228483174909684,2.629081432174682,0.0,0.0,0.0,2.558259355718873,0.0,0.0,0.0,0.0,0.0,0.0,0.0,0.0,0.0,0.0,0.0,0.0,0.0,0.0,
1.4851,2.523383201033505,2.523383201033505,2.6296675134715546,0.0,0.0,0.0,2.5588113051795216,0.0,0.0,0.0,0.0,0.0,0.0,0.0,0.0,0.0,0.0,0.0,0.0,0.0,0.0,
1.5013,2.5239279016903047,2.5239279016903047,2.6302643281360667,0.0,0.0,0.0,2.5593733771722254,0.0,0.0,0.0,0.0,0.0,0.0,0.0,0.0,0.0,0.0,0.0,0.0,0.0,0.0,
1.5174,2.5244757159317817,2.5244757159317817,2.6308645303739655,0.0,0.0,0.0,2.559938654079176,0.0,0.0,0.0,0.0,0.0,0.0,0.0,0.0,0.0,0.0,0.0,0.0,0.0,0.0,
1.5335,2.5250300074717513,2.5250300074717513,2.6314718048717514,0.0,0.0,0.0,2.5605106066050847,0.0,0.0,0.0,0.0,0.0,0.0,0.0,0.0,0.0,0.0,0.0,0.0,0.0,0.0,
1.5497,2.525594301515964,2.525594301515964,2.6320900126234053,0.0,0.0,0.0,2.561092871885111,0.0,0.0,0.0,0.0,0.0,0.0,0.0,0.0,0.0,0.0,0.0,0.0,0.0,0.0,
1.5658,2.5261616535807754,2.5261616535807754,2.632711544694537,0.0,0.0,0.0,2.561678283952029,0.0,0.0,0.0,0.0,0.0,0.0,0.0,0.0,0.0,0.0,0.0,0.0,0.0,0.0,
1.582,2.5267391341331464,2.5267391341331464,2.633344145766526,0.0,0.0,0.0,2.5622741380109395,0.0,0.0,0.0,0.0,0.0,0.0,0.0,0.0,0.0,0.0,0.0,0.0,0.0,0.0,
1.5981,2.5273196365358617,2.5273196365358617,2.633980029873717,0.0,0.0,0.0,2.5628731009818133,0.0,0.0,0.0,0.0,0.0,0.0,0.0,0.0,0.0,0.0,0.0,0.0,0.0,0.0,
1.6143,2.527910395268775,2.527910395268775,2.634627120659638,0.0,0.0,0.0,2.563482637065729,0.0,0.0,0.0,0.0,0.0,0.0,0.0,0.0,0.0,0.0,0.0,0.0,0.0,0.0,
1.6304,2.52850414042254,2.52850414042254,2.635277453950189,0.0,0.0,0.0,2.5640952449317562,0.0,0.0,0.0,0.0,0.0,0.0,0.0,0.0,0.0,0.0,0.0,0.0,0.0,0.0,
1.6465,2.5291045217874917,2.5291045217874917,2.6359350265943946,0.0,0.0,0.0,2.564714690056459,0.0,0.0,0.0,0.0,0.0,0.0,0.0,0.0,0.0,0.0,0.0,0.0,0.0,0.0,
1.6627,2.5297153546235136,2.5297153546235136,2.6366040159292616,0.0,0.0,0.0,2.5653449083920963,0.0,0.0,0.0,0.0,0.0,0.0,0.0,0.0,0.0,0.0,0.0,0.0,0.0,0.0,
1.6788,2.530329122201529,2.530329122201529,2.637276188467657,0.0,0.0,0.0,2.5659781442902383,0.0,0.0,0.0,0.0,0.0,0.0,0.0,0.0,0.0,0.0,0.0,0.0,0.0,0.0,
1.695,2.53095347392961,2.53095347392961,2.637959920388751,0.0,0.0,0.0,2.5666222894159905,0.0,0.0,0.0,0.0,0.0,0.0,0.0,0.0,0.0,0.0,0.0,0.0,0.0,0.0,
1.7111,2.53158072686998,2.53158072686998,2.638646796909355,0.0,0.0,0.0,2.567269416883105,0.0,0.0,0.0,0.0,0.0,0.0,0.0,0.0,0.0,0.0,0.0,0.0,0.0,0.0,
1.7273,2.5322186986552033,2.5322186986552033,2.639345377591137,0.0,0.0,0.0,2.567927591633848,0.0,0.0,0.0,0.0,0.0,0.0,0.0,0.0,0.0,0.0,0.0,0.0,0.0,0.0,
1.7434,2.5328595389049005,2.5328595389049005,2.640047065058658,0.0,0.0,0.0,2.5685887142894863,0.0,0.0,0.0,0.0,0.0,0.0,0.0,0.0,0.0,0.0,0.0,0.0,0.0,0.0,
1.7595,2.5335071907354845,2.5335071907354845,2.640756175929639,0.0,0.0,0.0,2.5692568524668693,0.0,0.0,0.0,0.0,0.0,0.0,0.0,0.0,0.0,0.0,0.0,0.0,0.0,0.0,
1.7757,2.5341657671231097,2.5341657671231097,2.6414772119153156,0.0,0.0,0.0,2.5699362487205115,0.0,0.0,0.0,0.0,0.0,0.0,0.0,0.0,0.0,0.0,0.0,0.0,0.0,0.0,
1.7918,2.5348271643973725,2.5348271643973725,2.6422012995303152,0.0,0.0,0.0,2.57061854277502,0.0,0.0,0.0,0.0,0.0,0.0,0.0,0.0,0.0,0.0,0.0,0.0,0.0,0.0,
1.808,2.5354996261729736,2.5354996261729736,2.64293746246254,0.0,0.0,0.0,2.571312238269496,0.0,0.0,0.0,0.0,0.0,0.0,0.0,0.0,0.0,0.0,0.0,0.0,0.0,0.0,
1.8241,2.5361748781013786,2.5361748781013786,2.6436766412389163,0.0,0.0,0.0,2.5720087991472247,0.0,0.0,0.0,0.0,0.0,0.0,0.0,0.0,0.0,0.0,0.0,0.0,0.0,0.0,
1.8403,2.5368613366660515,2.5368613366660515,2.6444280477945297,0.0,0.0,0.0,2.572716907042211,0.0,0.0,0.0,0.0,0.0,0.0,0.0,0.0,0.0,0.0,0.0,0.0,0.0,0.0,
1.8564,2.5375505554822255,2.5375505554822255,2.645182435244754,0.0,0.0,0.0,2.5734278487364017,0.0,0.0,0.0,0.0,0.0,0.0,0.0,0.0,0.0,0.0,0.0,0.0,0.0,0.0,
1.8725,2.538246778994969,2.538246778994969,2.645944448355465,0.0,0.0,0.0,2.574146002115134,0.0,0.0,0.0,0.0,0.0,0.0,0.0,0.0,0.0,0.0,0.0,0.0,0.0,0.0,
1.8887,2.5389544263447226,2.5389544263447226,2.6467189220481013,0.0,0.0,0.0,2.5748759249125155,0.0,0.0,0.0,0.0,0.0,0.0,0.0,0.0,0.0,0.0,0.0,0.0,0.0,0.0,
1.9048,2.539664790734732,2.539664790734732,2.647496325861819,0.0,0.0,0.0,2.5756086357770944,0.0,0.0,0.0,0.0,0.0,0.0,0.0,0.0,0.0,0.0,0.0,0.0,0.0,0.0,
1.921,2.540386726808609,2.540386726808609,2.6482863486000037,0.0,0.0,0.0,2.5763532674057408,0.0,0.0,0.0,0.0,0.0,0.0,0.0,0.0,0.0,0.0,0.0,0.0,0.0,0.0,
1.9371,2.5411113521750965,2.5411113521750965,2.649079268663903,0.0,0.0,0.0,2.5771006576713655,0.0,0.0,0.0,0.0,0.0,0.0,0.0,0.0,0.0,0.0,0.0,0.0,0.0,0.0,
1.9533,2.541847699458872,2.541847699458872,2.649884968447256,0.0,0.0,0.0,2.5778601224549997,0.0,0.0,0.0,0.0,0.0,0.0,0.0,0.0,0.0,0.0,0.0,0.0,0.0,0.0,
1.9694,2.5425867091816894,2.5425867091816894,2.650693533652044,0.0,0.0,0.0,2.5786223173384744,0.0,0.0,0.0,0.0,0.0,0.0,0.0,0.0,0.0,0.0,0.0,0.0,0.0,0.0,
1.9855,2.543332935934511,2.543332935934511,2.65150994640421,0.0,0.0,0.0,2.579391939424411,0.0,0.0,0.0,0.0,0.0,0.0,0.0,0.0,0.0,0.0,0.0,0.0,0.0,0.0,
2.0017,2.5440911143218594,2.5440911143218594,2.652339384539854,0.0,0.0,0.0,2.580173871061191,0.0,0.0,0.0,0.0,0.0,0.0,0.0,0.0,0.0,0.0,0.0,0.0,0.0,0.0,
2.0178,2.5448519166266257,2.5448519166266257,2.653171641997278,0.0,0.0,0.0,2.5809584917501764,0.0,0.0,0.0,0.0,0.0,0.0,0.0,0.0,0.0,0.0,0.0,0.0,0.0,0.0,
2.034,2.545624827030203,2.545624827030203,2.6540170920233965,0.0,0.0,0.0,2.581755582027934,0.0,0.0,0.0,0.0,0.0,0.0,0.0,0.0,0.0,0.0,0.0,0.0,0.0,0.0,
2.0501,2.5464003368204216,2.5464003368204216,2.654865331773779,0.0,0.0,0.0,2.5825553351382076,0.0,0.0,0.0,0.0,0.0,0.0,0.0,0.0,0.0,0.0,0.0,0.0,0.0,0.0,
2.0663,2.5471881137805745,2.5471881137805745,2.655726933946232,0.0,0.0,0.0,2.5833677205024603,0.0,0.0,0.0,0.0,0.0,0.0,0.0,0.0,0.0,0.0,0.0,0.0,0.0,0.0,
2.0824,2.5479784665648664,2.5479784665648664,2.656591297203571,0.0,0.0,0.0,2.5841827434444347,0.0,0.0,0.0,0.0,0.0,0.0,0.0,0.0,0.0,0.0,0.0,0.0,0.0,0.0,
2.0985,2.548776269612328,2.548776269612328,2.6574637511438803,0.0,0.0,0.0,2.5850054301228456,0.0,0.0,0.0,0.0,0.0,0.0,0.0,0.0,0.0,0.0,0.0,0.0,0.0,0.0,
