energies(eV),real_xx,real_yy,real_zz,real_xy,real_yz,real_xz,real_ave,imag_xx,imag_yy,imag_zz,imag_xy,imag_yz,imag_xz,imag_ave,absorption_xx,absorption_yy,absorption_zz,absorption_xy,absorption_yz,absorption_xz,absorption_ave,band_gap
0.0,3.611700649669338,3.611700649669338,3.4462373497189693,0.0,0.0,0.0,3.5565462163525488,0.0,0.0,0.0,0.0,0.0,0.0,0.0,0.0,0.0,0.0,0.0,0.0,0.0,0.0,4.595000000000001
0.0174,3.6117143907100817,3.6117143907100817,3.446247409404987,0.0,0.0,0.0,3.55655873027505,0.0,0.0,0.0,0.0,0.0,0.0,0.0,0.0,0.0,0.0,0.0,0.0,0.0,0.0,
0.0347,3.611755299754927,3.611755299754927,3.4462773582676967,0.0,0.0,0.0,3.5565959859258505,0.0,0.0,0.0,0.0,0.0,0.0,0.0,0.0,0.0,0.0,0.0,0.0,0.0,0.0,
0.0521,3.6118238538330085,3.6118238538330085,3.4463275447400865,0.0,0.0,0.0,3.5566584174687015,0.0,0.0,0.0,0.0,0.0,0.0,0.0,0.0,0.0,0.0,0.0,0.0,0.0,0.0,
0.0694,3.611919271733274,3.611919271733274,3.4463973956095058,0.0,0.0,0.0,3.5567453130253512,0.0,0.0,0.0,0.0,0.0,0.0,0.0,0.0,0.0,0.0,0.0,0.0,0.0,0.0,
0.0868,3.612042666100685,3.612042666100685,3.446487723540814,0.0,0.0,0.0,3.5568576852473943,0.0,0.0,0.0,0.0,0.0,0.0,0.0,0.0,0.0,0.0,0.0,0.0,0.0,0.0,
0.1041,3.6121926307947194,3.6121926307947194,3.4465974968416777,0.0,0.0,0.0,3.5569942528103717,0.0,0.0,0.0,0.0,0.0,0.0,0.0,0.0,0.0,0.0,0.0,0.0,0.0,0.0,
0.1215,3.6123709145260707,3.6123709145260707,3.4467279926494916,0.0,0.0,0.0,3.557156607233878,0.0,0.0,0.0,0.0,0.0,0.0,0.0,0.0,0.0,0.0,0.0,0.0,0.0,0.0,
0.1388,3.6125754856750025,3.6125754856750025,3.446877720494462,0.0,0.0,0.0,3.557342897281489,0.0,0.0,0.0,0.0,0.0,0.0,0.0,0.0,0.0,0.0,0.0,0.0,0.0,0.0,
0.1562,3.6128087297252707,3.6128087297252707,3.447048422364952,0.0,0.0,0.0,3.557555293938498,0.0,0.0,0.0,0.0,0.0,0.0,0.0,0.0,0.0,0.0,0.0,0.0,0.0,0.0,
0.1735,3.6130679887831363,3.6130679887831363,3.4472381485832484,0.0,0.0,0.0,3.557791375383174,0.0,0.0,0.0,0.0,0.0,0.0,0.0,0.0,0.0,0.0,0.0,0.0,0.0,0.0,
0.1909,3.613356286071263,3.613356286071263,3.447449106505275,0.0,0.0,0.0,3.5580538928826004,0.0,0.0,0.0,0.0,0.0,0.0,0.0,0.0,0.0,0.0,0.0,0.0,0.0,0.0,
0.2082,3.6136703363810523,3.6136703363810523,3.4476788866818984,0.0,0.0,0.0,3.558339853148001,0.0,0.0,0.0,0.0,0.0,0.0,0.0,0.0,0.0,0.0,0.0,0.0,0.0,0.0,
0.2256,3.61401380189949,3.61401380189949,3.447930162491667,0.0,0.0,0.0,3.558652588763549,0.0,0.0,0.0,0.0,0.0,0.0,0.0,0.0,0.0,0.0,0.0,0.0,0.0,0.0,
0.243,3.6143849812792803,3.6143849812792803,3.4482016823515975,0.0,0.0,0.0,3.558990548303386,0.0,0.0,0.0,0.0,0.0,0.0,0.0,0.0,0.0,0.0,0.0,0.0,0.0,0.0,
0.2603,3.6147815397656697,3.6147815397656697,3.448491731453507,0.0,0.0,0.0,3.5593516036616157,0.0,0.0,0.0,0.0,0.0,0.0,0.0,0.0,0.0,0.0,0.0,0.0,0.0,0.0,
0.2777,3.6152081017866973,3.6152081017866973,3.4488036844168595,0.0,0.0,0.0,3.559739962663418,0.0,0.0,0.0,0.0,0.0,0.0,0.0,0.0,0.0,0.0,0.0,0.0,0.0,0.0,
0.295,3.6156598067565637,3.6156598067565637,3.449133978354861,0.0,0.0,0.0,3.560151197289329,0.0,0.0,0.0,0.0,0.0,0.0,0.0,0.0,0.0,0.0,0.0,0.0,0.0,0.0,
0.3124,3.616141922280324,3.616141922280324,3.4494864561594394,0.0,0.0,0.0,3.560590100240029,0.0,0.0,0.0,0.0,0.0,0.0,0.0,0.0,0.0,0.0,0.0,0.0,0.0,0.0,
0.3297,3.616648954854389,3.616648954854389,3.449857092142752,0.0,0.0,0.0,3.5610516672838433,0.0,0.0,0.0,0.0,0.0,0.0,0.0,0.0,0.0,0.0,0.0,0.0,0.0,0.0,
0.3471,3.617186817408986,3.617186817408986,3.4502501986150196,0.0,0.0,0.0,3.5615412778109974,0.0,0.0,0.0,0.0,0.0,0.0,0.0,0.0,0.0,0.0,0.0,0.0,0.0,0.0,
0.3644,3.6177493813556163,3.6177493813556163,3.45066128591726,0.0,0.0,0.0,3.562053349542831,0.0,0.0,0.0,0.0,0.0,0.0,0.0,0.0,0.0,0.0,0.0,0.0,0.0,0.0,
0.3818,3.618343207366652,3.618343207366652,3.451095137066104,0.0,0.0,0.0,3.5625938505998023,0.0,0.0,0.0,0.0,0.0,0.0,0.0,0.0,0.0,0.0,0.0,0.0,0.0,0.0,
0.3991,3.618961529345385,3.618961529345385,3.451546797124051,0.0,0.0,0.0,3.5631566186049404,0.0,0.0,0.0,0.0,0.0,0.0,0.0,0.0,0.0,0.0,0.0,0.0,0.0,0.0,
0.4165,3.6196115583950745,3.6196115583950745,3.452021521245774,0.0,0.0,0.0,3.563748212678641,0.0,0.0,0.0,0.0,0.0,0.0,0.0,0.0,0.0,0.0,0.0,0.0,0.0,0.0,
0.4339,3.620289867483881,3.620289867483881,3.452516792933313,0.0,0.0,0.0,3.5643655093003583,0.0,0.0,0.0,0.0,0.0,0.0,0.0,0.0,0.0,0.0,0.0,0.0,0.0,0.0,
0.4512,3.6209923833436726,3.6209923833436726,3.4530296255643087,0.0,0.0,0.0,3.565004797417218,0.0,0.0,0.0,0.0,0.0,0.0,0.0,0.0,0.0,0.0,0.0,0.0,0.0,0.0,
0.4686,3.6217272993144127,3.6217272993144127,3.4535659861869807,0.0,0.0,0.0,3.5656735282719354,0.0,0.0,0.0,0.0,0.0,0.0,0.0,0.0,0.0,0.0,0.0,0.0,0.0,0.0,
0.4859,3.6224862422880415,3.6224862422880415,3.454119749359193,0.0,0.0,0.0,3.566364077978425,0.0,0.0,0.0,0.0,0.0,0.0,0.0,0.0,0.0,0.0,0.0,0.0,0.0,0.0,
0.5033,3.6232780639740256,3.6232780639740256,3.4546973584856557,0.0,0.0,0.0,3.567084495477902,0.0,0.0,0.0,0.0,0.0,0.0,0.0,0.0,0.0,0.0,0.0,0.0,0.0,0.0,
0.5206,3.6240937432085194,3.6240937432085194,3.455292217168779,0.0,0.0,0.0,3.567826567861939,0.0,0.0,0.0,0.0,0.0,0.0,0.0,0.0,0.0,0.0,0.0,0.0,0.0,0.0,
0.538,3.6249427937393155,3.6249427937393155,3.455911247115065,0.0,0.0,0.0,3.568598944864565,0.0,0.0,0.0,0.0,0.0,0.0,0.0,0.0,0.0,0.0,0.0,0.0,0.0,0.0,
0.5553,3.6258155427307055,3.6258155427307055,3.4565473790303085,0.0,0.0,0.0,3.56939282149724,0.0,0.0,0.0,0.0,0.0,0.0,0.0,0.0,0.0,0.0,0.0,0.0,0.0,0.0,
0.5727,3.6267221699271954,3.6267221699271954,3.4572080150186864,0.0,0.0,0.0,3.5702174516243588,0.0,0.0,0.0,0.0,0.0,0.0,0.0,0.0,0.0,0.0,0.0,0.0,0.0,0.0,
0.59,3.6276523469294375,3.6276523469294375,3.457885610802919,0.0,0.0,0.0,3.5710634348872645,0.0,0.0,0.0,0.0,0.0,0.0,0.0,0.0,0.0,0.0,0.0,0.0,0.0,0.0,
0.6074,3.6286169237315087,3.6286169237315087,3.4585880511333076,0.0,0.0,0.0,3.5719406328654415,0.0,0.0,0.0,0.0,0.0,0.0,0.0,0.0,0.0,0.0,0.0,0.0,0.0,0.0,
0.6247,3.6296049121984026,3.6296049121984026,3.459307314516034,0.0,0.0,0.0,3.5728390463042796,0.0,0.0,0.0,0.0,0.0,0.0,0.0,0.0,0.0,0.0,0.0,0.0,0.0,0.0,
0.6421,3.630627837126485,3.630627837126485,3.460051770750618,0.0,0.0,0.0,3.5737691483345295,0.0,0.0,0.0,0.0,0.0,0.0,0.0,0.0,0.0,0.0,0.0,0.0,0.0,0.0,
0.6595,3.6316801783771533,3.6316801783771533,3.4608173793366284,0.0,0.0,0.0,3.5747259120303116,0.0,0.0,0.0,0.0,0.0,0.0,0.0,0.0,0.0,0.0,0.0,0.0,0.0,0.0,
0.6768,3.6327557438389175,3.6327557438389175,3.46159961590528,0.0,0.0,0.0,3.575703701194372,0.0,0.0,0.0,0.0,0.0,0.0,0.0,0.0,0.0,0.0,0.0,0.0,0.0,0.0,
0.6942,3.633867080705344,3.633867080705344,3.462407583386292,0.0,0.0,0.0,3.576713914932327,0.0,0.0,0.0,0.0,0.0,0.0,0.0,0.0,0.0,0.0,0.0,0.0,0.0,0.0,
0.7115,3.6350015303919303,3.6350015303919303,3.4632320557904883,0.0,0.0,0.0,3.5777450388581165,0.0,0.0,0.0,0.0,0.0,0.0,0.0,0.0,0.0,0.0,0.0,0.0,0.0,0.0,
0.7289,3.636172327635652,3.636172327635652,3.464082627800886,0.0,0.0,0.0,3.5788090943573967,0.0,0.0,0.0,0.0,0.0,0.0,0.0,0.0,0.0,0.0,0.0,0.0,0.0,0.0,
0.7462,3.6373661372226733,3.6373661372226733,3.4649495872016094,0.0,0.0,0.0,3.5798939538823187,0.0,0.0,0.0,0.0,0.0,0.0,0.0,0.0,0.0,0.0,0.0,0.0,0.0,0.0,
0.7636,3.6385968870848484,3.6385968870848484,3.465843023392778,0.0,0.0,0.0,3.581012265854158,0.0,0.0,0.0,0.0,0.0,0.0,0.0,0.0,0.0,0.0,0.0,0.0,0.0,0.0,
0.7809,3.639850559877146,3.639850559877146,3.466752735009005,0.0,0.0,0.0,3.5821512849210992,0.0,0.0,0.0,0.0,0.0,0.0,0.0,0.0,0.0,0.0,0.0,0.0,0.0,0.0,
0.7983,3.641141782707415,3.641141782707415,3.467689309297719,0.0,0.0,0.0,3.58332429157085,0.0,0.0,0.0,0.0,0.0,0.0,0.0,0.0,0.0,0.0,0.0,0.0,0.0,0.0,
0.8156,3.6424558502848985,3.6424558502848985,3.4686420526610338,0.0,0.0,0.0,3.5845179177436104,0.0,0.0,0.0,0.0,0.0,0.0,0.0,0.0,0.0,0.0,0.0,0.0,0.0,0.0,
0.833,3.6438080952118965,3.6438080952118965,3.4696220534932447,0.0,0.0,0.0,3.585746081305679,0.0,0.0,0.0,0.0,0.0,0.0,0.0,0.0,0.0,0.0,0.0,0.0,0.0,0.0,
0.8504,3.645191155058472,3.645191155058472,3.470623943391542,0.0,0.0,0.0,3.5870020845028283,0.0,0.0,0.0,0.0,0.0,0.0,0.0,0.0,0.0,0.0,0.0,0.0,0.0,0.0,
0.8677,3.6465969637621796,3.6465969637621796,3.471641853348704,0.0,0.0,0.0,3.5882785936243544,0.0,0.0,0.0,0.0,0.0,0.0,0.0,0.0,0.0,0.0,0.0,0.0,0.0,0.0,
0.8851,3.6480419258095456,3.6480419258095456,3.4726876307771146,0.0,0.0,0.0,3.5895904941320684,0.0,0.0,0.0,0.0,0.0,0.0,0.0,0.0,0.0,0.0,0.0,0.0,0.0,0.0,
0.9024,3.6495095874678376,3.6495095874678376,3.4737493362082263,0.0,0.0,0.0,3.5909228370479673,0.0,0.0,0.0,0.0,0.0,0.0,0.0,0.0,0.0,0.0,0.0,0.0,0.0,0.0,
0.9198,3.651017076057868,3.651017076057868,3.4748393272188323,0.0,0.0,0.0,3.5922911597781897,0.0,0.0,0.0,0.0,0.0,0.0,0.0,0.0,0.0,0.0,0.0,0.0,0.0,0.0,
0.9371,3.6525472269674037,3.6525472269674037,3.475945160007725,0.0,0.0,0.0,3.5936798713141775,0.0,0.0,0.0,0.0,0.0,0.0,0.0,0.0,0.0,0.0,0.0,0.0,0.0,0.0,
0.9545,3.654117897921542,3.654117897921542,3.4770797062359016,0.0,0.0,0.0,3.595105167359662,0.0,0.0,0.0,0.0,0.0,0.0,0.0,0.0,0.0,0.0,0.0,0.0,0.0,0.0,
0.9718,3.655711206108963,3.655711206108963,3.478230013927288,0.0,0.0,0.0,3.596550808715071,0.0,0.0,0.0,0.0,0.0,0.0,0.0,0.0,0.0,0.0,0.0,0.0,0.0,0.0,
0.9892,3.6573457476088524,3.6573457476088524,3.479409472932636,0.0,0.0,0.0,3.5980336560501134,0.0,0.0,0.0,0.0,0.0,0.0,0.0,0.0,0.0,0.0,0.0,0.0,0.0,0.0,
1.0065,3.659002913732594,3.659002913732594,3.480604619080495,0.0,0.0,0.0,3.599536815515228,0.0,0.0,0.0,0.0,0.0,0.0,0.0,0.0,0.0,0.0,0.0,0.0,0.0,0.0,
1.0239,3.660702047253997,3.660702047253997,3.4818293647067446,0.0,0.0,0.0,3.601077819738246,0.0,0.0,0.0,0.0,0.0,0.0,0.0,0.0,0.0,0.0,0.0,0.0,0.0,0.0,
1.0412,3.66242380555988,3.66242380555988,3.4830697292418877,0.0,0.0,0.0,3.6026391134538827,0.0,0.0,0.0,0.0,0.0,0.0,0.0,0.0,0.0,0.0,0.0,0.0,0.0,0.0,
1.0586,3.664188286861911,3.664188286861911,3.484340151996821,0.0,0.0,0.0,3.6042389085735476,0.0,0.0,0.0,0.0,0.0,0.0,0.0,0.0,0.0,0.0,0.0,0.0,0.0,0.0,
1.076,3.6659858317619416,3.6659858317619416,3.4856336314767287,0.0,0.0,0.0,3.6058684316668703,0.0,0.0,0.0,0.0,0.0,0.0,0.0,0.0,0.0,0.0,0.0,0.0,0.0,0.0,
1.0933,3.6678060263685817,3.6678060263685817,3.486942639070446,0.0,0.0,0.0,3.6075182306025364,0.0,0.0,0.0,0.0,0.0,0.0,0.0,0.0,0.0,0.0,0.0,0.0,0.0,0.0,
1.1107,3.6696701204704656,3.6696701204704656,3.4882824141799125,0.0,0.0,0.0,3.609207551706948,0.0,0.0,0.0,0.0,0.0,0.0,0.0,0.0,0.0,0.0,0.0,0.0,0.0,0.0,
1.128,3.6715568978222413,3.6715568978222413,3.4896376648551977,0.0,0.0,0.0,3.610917153499893,0.0,0.0,0.0,0.0,0.0,0.0,0.0,0.0,0.0,0.0,0.0,0.0,0.0,0.0,
1.1454,3.6734883873673425,3.6734883873673425,3.4910241695872433,0.0,0.0,0.0,3.612666981440643,0.0,0.0,0.0,0.0,0.0,0.0,0.0,0.0,0.0,0.0,0.0,0.0,0.0,0.0,
1.1627,3.675442607692156,3.675442607692156,3.4924261038139273,0.0,0.0,0.0,3.614437106399413,0.0,0.0,0.0,0.0,0.0,0.0,0.0,0.0,0.0,0.0,0.0,0.0,0.0,0.0,
1.1801,3.677442377150528,3.677442377150528,3.4938597903244846,0.0,0.0,0.0,3.6162481815418466,0.0,0.0,0.0,0.0,0.0,0.0,0.0,0.0,0.0,0.0,0.0,0.0,0.0,0.0,
1.1974,3.679464939311624,3.679464939311624,3.495308866866721,0.0,0.0,0.0,3.61807958182999,0.0,0.0,0.0,0.0,0.0,0.0,0.0,0.0,0.0,0.0,0.0,0.0,0.0,0.0,
1.2148,3.6815339126600066,3.6815339126600066,3.496790205955099,0.0,0.0,0.0,3.6199526770917045,0.0,0.0,0.0,0.0,0.0,0.0,0.0,0.0,0.0,0.0,0.0,0.0,0.0,0.0,
1.2321,3.683625755462816,3.683625755462816,3.498286902361469,0.0,0.0,0.0,3.621846137762367,0.0,0.0,0.0,0.0,0.0,0.0,0.0,0.0,0.0,0.0,0.0,0.0,0.0,0.0,
1.2495,3.6857648975365476,3.6857648975365476,3.499816383976168,0.0,0.0,0.0,3.6237820596830876,0.0,0.0,0.0,0.0,0.0,0.0,0.0,0.0,0.0,0.0,0.0,0.0,0.0,0.0,
1.2669,3.6879396015006223,3.6879396015006223,3.5013701968169406,0.0,0.0,0.0,3.625749799939395,0.0,0.0,0.0,0.0,0.0,0.0,0.0,0.0,0.0,0.0,0.0,0.0,0.0,0.0,
1.2842,3.690137319034405,3.690137319034405,3.502939330866637,0.0,0.0,0.0,3.627737989645149,0.0,0.0,0.0,0.0,0.0,0.0,0.0,0.0,0.0,0.0,0.0,0.0,0.0,0.0,
1.3016,3.692383720251848,3.692383720251848,3.504542058996606,0.0,0.0,0.0,3.629769833166767,0.0,0.0,0.0,0.0,0.0,0.0,0.0,0.0,0.0,0.0,0.0,0.0,0.0,0.0,
1.3189,3.694653250996579,3.694653250996579,3.506160093190206,0.0,0.0,0.0,3.6318221983944547,0.0,0.0,0.0,0.0,0.0,0.0,0.0,0.0,0.0,0.0,0.0,0.0,0.0,0.0,
1.3363,3.6969724229536394,3.6969724229536394,3.5078122768508795,0.0,0.0,0.0,3.6339190409193862,0.0,0.0,0.0,0.0,0.0,0.0,0.0,0.0,0.0,0.0,0.0,0.0,0.0,0.0,
1.3536,3.6993148570021868,3.6993148570021868,3.5094797587561195,0.0,0.0,0.0,3.6360364909201643,0.0,0.0,0.0,0.0,0.0,0.0,0.0,0.0,0.0,0.0,0.0,0.0,0.0,0.0,
1.371,3.7017079194241442,3.7017079194241442,3.511181959326819,0.0,0.0,0.0,3.638199266058369,0.0,0.0,0.0,0.0,0.0,0.0,0.0,0.0,0.0,0.0,0.0,0.0,0.0,0.0,
1.3883,3.7041243936961856,3.7041243936961856,3.512899457839988,0.0,0.0,0.0,3.6403827484107865,0.0,0.0,0.0,0.0,0.0,0.0,0.0,0.0,0.0,0.0,0.0,0.0,0.0,0.0,
1.4057,3.7065925142889538,3.7065925142889538,3.51465225847401,0.0,0.0,0.0,3.6426124290173063,0.0,0.0,0.0,0.0,0.0,0.0,0.0,0.0,0.0,0.0,0.0,0.0,0.0,0.0,
1.423,3.709084214312289,3.709084214312289,3.5164203644685905,0.0,0.0,0.0,3.6448629310310565,0.0,0.0,0.0,0.0,0.0,0.0,0.0,0.0,0.0,0.0,0.0,0.0,0.0,0.0,
1.4404,3.7116286106054215,3.7116286106054215,3.5182243707622716,0.0,0.0,0.0,3.6471605306577053,0.0,0.0,0.0,0.0,0.0,0.0,0.0,0.0,0.0,0.0,0.0,0.0,0.0,0.0,
1.4577,3.7141967724009617,3.7141967724009617,3.520043697771401,0.0,0.0,0.0,3.6494790808577746,0.0,0.0,0.0,0.0,0.0,0.0,0.0,0.0,0.0,0.0,0.0,0.0,0.0,0.0,
1.4751,3.7168187136980673,3.7168187136980673,3.521899538468234,0.0,0.0,0.0,3.6518456552881227,0.0,0.0,0.0,0.0,0.0,0.0,0.0,0.0,0.0,0.0,0.0,0.0,0.0,0.0,
1.4925,3.7194800338676273,3.7194800338676273,3.5237816152093444,0.0,0.0,0.0,3.6542472276482,0.0,0.0,0.0,0.0,0.0,0.0,0.0,0.0,0.0,0.0,0.0,0.0,0.0,0.0,
1.5098,3.7221654352185927,3.7221654352185927,3.525679051134029,0.0,0.0,0.0,3.656669973857072,0.0,0.0,0.0,0.0,0.0,0.0,0.0,0.0,0.0,0.0,0.0,0.0,0.0,0.0,
1.5272,3.72490630796078,3.72490630796078,3.5276139514013036,0.0,0.0,0.0,3.6591421891076212,0.0,0.0,0.0,0.0,0.0,0.0,0.0,0.0,0.0,0.0,0.0,0.0,0.0,0.0,
1.5445,3.727671497444358,3.727671497444358,3.5295642471026474,0.0,0.0,0.0,3.6616357473304544,0.0,0.0,0.0,0.0,0.0,0.0,0.0,0.0,0.0,0.0,0.0,0.0,0.0,0.0,
1.5619,3.7304933308831254,3.7304933308831254,3.5315526608705228,0.0,0.0,0.0,3.6641797742122577,0.0,0.0,0.0,0.0,0.0,0.0,0.0,0.0,0.0,0.0,0.0,0.0,0.0,0.0,
1.5792,3.7333397378307738,3.7333397378307738,3.533556515133517,0.0,0.0,0.0,3.6667453302650217,0.0,0.0,0.0,0.0,0.0,0.0,0.0,0.0,0.0,0.0,0.0,0.0,0.0,0.0,
1.5966,3.7362439996430146,3.7362439996430146,3.5355991582920803,0.0,0.0,0.0,3.6693623858593702,0.0,0.0,0.0,0.0,0.0,0.0,0.0,0.0,0.0,0.0,0.0,0.0,0.0,0.0,
1.6139,3.7391731138342186,3.7391731138342186,3.53765729610334,0.0,0.0,0.0,3.6720011745905925,0.0,0.0,0.0,0.0,0.0,0.0,0.0,0.0,0.0,0.0,0.0,0.0,0.0,0.0,
1.6313,3.742161333775372,3.742161333775372,3.5397549113446796,0.0,0.0,0.0,3.674692526298475,0.0,0.0,0.0,0.0,0.0,0.0,0.0,0.0,0.0,0.0,0.0,0.0,0.0,0.0,
1.6486,3.745174708022854,3.745174708022854,3.541868084796797,0.0,0.0,0.0,3.6774058336141686,0.0,0.0,0.0,0.0,0.0,0.0,0.0,0.0,0.0,0.0,0.0,0.0,0.0,0.0,
1.666,3.7482484806042677,3.7482484806042677,3.544021442548383,0.0,0.0,0.0,3.680172801252306,0.0,0.0,0.0,0.0,0.0,0.0,0.0,0.0,0.0,0.0,0.0,0.0,0.0,0.0,
1.6834,3.7513657741226325,3.7513657741226325,3.54620305087132,0.0,0.0,0.0,3.6829781997055284,0.0,0.0,0.0,0.0,0.0,0.0,0.0,0.0,0.0,0.0,0.0,0.0,0.0,0.0,
1.7007,3.7545087208231176,3.7545087208231176,3.548400331200218,0.0,0.0,0.0,3.685805924282151,0.0,0.0,0.0,0.0,0.0,0.0,0.0,0.0,0.0,0.0,0.0,0.0,0.0,0.0,
1.7181,3.75771408892016,3.75771408892016,3.5506388930378407,0.0,0.0,0.0,3.6886890236260537,0.0,0.0,0.0,0.0,0.0,0.0,0.0,0.0,0.0,0.0,0.0,0.0,0.0,0.0,
1.7354,3.760945474414014,3.760945474414014,3.552893215413375,0.0,0.0,0.0,3.6915947214138014,0.0,0.0,0.0,0.0,0.0,0.0,0.0,0.0,0.0,0.0,0.0,0.0,0.0,0.0,
1.7528,3.7642406863997304,3.7642406863997304,3.5551895749935984,0.0,0.0,0.0,3.6945569825976867,0.0,0.0,0.0,0.0,0.0,0.0,0.0,0.0,0.0,0.0,0.0,0.0,0.0,0.0,
1.7701,3.7675623069296478,3.7675623069296478,3.5575017942661926,0.0,0.0,0.0,3.6975421360418292,0.0,0.0,0.0,0.0,0.0,0.0,0.0,0.0,0.0,0.0,0.0,0.0,0.0,0.0,
1.7875,3.7709492075945303,3.7709492075945303,3.5598568272326716,0.0,0.0,0.0,3.700585080807244,0.0,0.0,0.0,0.0,0.0,0.0,0.0,0.0,0.0,0.0,0.0,0.0,0.0,0.0,
1.8048,3.774362936162973,3.774362936162973,3.5622278300677808,0.0,0.0,0.0,3.7036512341312418,0.0,0.0,0.0,0.0,0.0,0.0,0.0,0.0,0.0,0.0,0.0,0.0,0.0,0.0,
1.8222,3.7778434492769617,3.7778434492769617,3.5646424446619585,0.0,0.0,0.0,3.7067764477386276,0.0,0.0,0.0,0.0,0.0,0.0,0.0,0.0,0.0,0.0,0.0,0.0,0.0,0.0,
1.8395,3.7813512392321385,3.7813512392321385,3.567073150747094,0.0,0.0,0.0,3.709925209737124,0.0,0.0,0.0,0.0,0.0,0.0,0.0,0.0,0.0,0.0,0.0,0.0,0.0,0.0,
1.8569,3.7849273712628313,3.7849273712628313,3.569548289055246,0.0,0.0,0.0,3.7131343438603026,0.0,0.0,0.0,0.0,0.0,0.0,0.0,0.0,0.0,0.0,0.0,0.0,0.0,0.0,
1.8742,3.788531260110329,3.788531260110329,3.5720396523735323,0.0,0.0,0.0,3.7163673908647303,0.0,0.0,0.0,0.0,0.0,0.0,0.0,0.0,0.0,0.0,0.0,0.0,0.0,0.0,
1.8916,3.7922051041762628,3.7922051041762628,3.5745762916426047,0.0,0.0,0.0,3.7196621666650436,0.0,0.0,0.0,0.0,0.0,0.0,0.0,0.0,0.0,0.0,0.0,0.0,0.0,0.0,
1.909,3.7959287613393524,3.7959287613393524,3.5771441493029563,0.0,0.0,0.0,3.7230005573272202,0.0,0.0,0.0,0.0,0.0,0.0,0.0,0.0,0.0,0.0,0.0,0.0,0.0,0.0,
1.9263,3.7996809577089876,3.7996809577089876,3.5797284558440006,0.0,0.0,0.0,3.7263634570873254,0.0,0.0,0.0,0.0,0.0,0.0,0.0,0.0,0.0,0.0,0.0,0.0,0.0,0.0,
1.9437,3.8035056416129365,3.8035056416129365,3.582359350837816,0.0,0.0,0.0,3.729790211354563,0.0,0.0,0.0,0.0,0.0,0.0,0.0,0.0,0.0,0.0,0.0,0.0,0.0,0.0,
1.961,3.8073594294105333,3.8073594294105333,3.585006860156035,0.0,0.0,0.0,3.7332419063257007,0.0,0.0,0.0,0.0,0.0,0.0,0.0,0.0,0.0,0.0,0.0,0.0,0.0,0.0,
1.9784,3.811287468942988,3.811287468942988,3.58770186393931,0.0,0.0,0.0,3.7367589339417617,0.0,0.0,0.0,0.0,0.0,0.0,0.0,0.0,0.0,0.0,0.0,0.0,0.0,0.0,
1.9957,3.815245214048965,3.815245214048965,3.5904136612021436,0.0,0.0,0.0,3.740301363100025,0.0,0.0,0.0,0.0,0.0,0.0,0.0,0.0,0.0,0.0,0.0,0.0,0.0,0.0,
2.0131,3.8192790407057347,3.8192790407057347,3.5931738856092634,0.0,0.0,0.0,3.7439106556735773,0.0,0.0,0.0,0.0,0.0,0.0,0.0,0.0,0.0,0.0,0.0,0.0,0.0,0.0,
2.0304,3.8233432135856793,3.8233432135856793,3.595951096956913,0.0,0.0,0.0,3.7475458413760907,0.0,0.0,0.0,0.0,0.0,0.0,0.0,0.0,0.0,0.0,0.0,0.0,0.0,0.0,
2.0478,3.8274853667181006,3.8274853667181006,3.5987776958866604,0.0,0.0,0.0,3.751249476440954,0.0,0.0,0.0,0.0,0.0,0.0,0.0,0.0,0.0,0.0,0.0,0.0,0.0,0.0,
2.0651,3.8316585478109224,3.8316585478109224,3.6016214901561368,0.0,0.0,0.0,3.7549795285926604,0.0,0.0,0.0,0.0,0.0,0.0,0.0,0.0,0.0,0.0,0.0,0.0,0.0,0.0,
2.0825,3.8359116802238953,3.8359116802238953,3.604515661355468,0.0,0.0,0.0,3.7587796739344195,0.0,0.0,0.0,0.0,0.0,0.0,0.0,0.0,0.0,0.0,0.0,0.0,0.0,0.0,
2.0999,3.8402214980587606,3.8402214980587606,3.607444181217226,0.0,0.0,0.0,3.7626290591115823,0.0,0.0,0.0,0.0,0.0,0.0,0.0,0.0,0.0,0.0,0.0,0.0,0.0,0.0,
2.1172,3.844563449619775,3.844563449619775,3.610390238857834,0.0,0.0,0.0,3.766505712699128,0.0,0.0,0.0,0.0,0.0,0.0,0.0,0.0,0.0,0.0,0.0,0.0,0.0,0.0,
2.1346,3.8489884560265515,3.8489884560265515,3.6133882158467543,0.0,0.0,0.0,3.770455042633286,0.0,0.0,0.0,0.0,0.0,0.0,0.0,0.0,0.0,0.0,0.0,0.0,0.0,0.0,
2.1519,3.853446390980086,3.853446390980086,3.616403979426517,0.0,0.0,0.0,3.7744322537955632,0.0,0.0,0.0,0.0,0.0,0.0,0.0,0.0,0.0,0.0,0.0,0.0,0.0,0.0,
2.1693,3.857989549635039,3.857989549635039,3.619472729490517,0.0,0.0,0.0,3.7784839429201984,0.0,0.0,0.0,0.0,0.0,0.0,0.0,0.0,0.0,0.0,0.0,0.0,0.0,0.0,
2.1866,3.8625664814442184,3.8625664814442184,3.622559532452104,0.0,0.0,0.0,3.7825641651135133,0.0,0.0,0.0,0.0,0.0,0.0,0.0,0.0,0.0,0.0,0.0,0.0,0.0,0.0,
2.204,3.8672308922619067,3.8672308922619067,3.625700422506749,0.0,0.0,0.0,3.786720735676854,0.0,0.0,0.0,0.0,0.0,0.0,0.0,0.0,0.0,0.0,0.0,0.0,0.0,0.0,
2.2213,3.871929973537153,3.871929973537153,3.6288596501019006,0.0,0.0,0.0,3.790906532392069,0.0,0.0,0.0,0.0,0.0,0.0,0.0,0.0,0.0,0.0,0.0,0.0,0.0,0.0,
2.2387,3.8767188802263832,3.8767188802263832,3.6320741003464567,0.0,0.0,0.0,3.7951706202664077,0.0,0.0,0.0,0.0,0.0,0.0,0.0,0.0,0.0,0.0,0.0,0.0,0.0,0.0,
2.256,3.881543410500043,3.881543410500043,3.6353071920082543,0.0,0.0,0.0,3.7994646710027804,0.0,0.0,0.0,0.0,0.0,0.0,0.0,0.0,0.0,0.0,0.0,0.0,0.0,0.0,
