energies(eV),real_xx,real_yy,real_zz,real_xy,real_yz,real_xz,real_ave,imag_xx,imag_yy,imag_zz,imag_xy,imag_yz,imag_xz,imag_ave,absorption_xx,absorption_yy,absorption_zz,absorption_xy,absorption_yz,absorption_xz,absorption_ave,band_gap
0.0,4.938894650369926,4.722724415249376,4.566774845787823,0.0,0.0,0.6983238064613327,4.7427979704690415,0.0,0.0,0.0,0.0,0.0,0.0,0.0,0.0,0.0,0.0,0.0,0.0,0.0,0.0,2.6742
0.0148,4.93892639973066,4.722751866867831,4.566800825044128,0.0,0.0,0.6983352835753684,4.742826363880873,0.0,0.0,0.0,0.0,0.0,0.0,0.0,0.0,0.0,0.0,0.0,0.0,0.0,0.0,
0.0296,4.939021652881955,4.722834225953431,4.566878766786875,0.0,0.0,0.6983697173659098,4.742911548540754,0.0,0.0,0.0,0.0,0.0,0.0,0.0,0.0,0.0,0.0,0.0,0.0,0.0,0.0,
0.0444,4.939180425033451,4.722971505198928,4.567008682939415,0.0,0.0,0.6984271151796364,4.743053537723932,0.0,0.0,0.0,0.0,0.0,0.0,0.0,0.0,0.0,0.0,0.0,0.0,0.0,0.0,
0.0592,4.93940274154302,4.72316372576582,4.567190593380552,0.0,0.0,0.6985074892656994,4.743252353563131,0.0,0.0,0.0,0.0,0.0,0.0,0.0,0.0,0.0,0.0,0.0,0.0,0.0,0.0,
0.074,4.939688637929173,4.723410917294709,4.567424525954376,0.0,0.0,0.698610856782747,4.743508027059419,0.0,0.0,0.0,0.0,0.0,0.0,0.0,0.0,0.0,0.0,0.0,0.0,0.0,0.0,
0.0889,4.940040738048575,4.723715347014516,4.567712626007268,0.0,0.0,0.6987381720872299,4.74382290369012,0.0,0.0,0.0,0.0,0.0,0.0,0.0,0.0,0.0,0.0,0.0,0.0,0.0,0.0,
0.1037,4.9404543719725424,4.72407297555898,4.568051070518415,0.0,0.0,0.6988877534279663,4.744192806016645,0.0,0.0,0.0,0.0,0.0,0.0,0.0,0.0,0.0,0.0,0.0,0.0,0.0,0.0,
0.1185,4.940931753975246,4.724485715430334,4.568441669020463,0.0,0.0,0.6990604094779325,4.744619712808681,0.0,0.0,0.0,0.0,0.0,0.0,0.0,0.0,0.0,0.0,0.0,0.0,0.0,0.0,
0.1333,4.9414729605135275,4.724953630430965,4.568884481449851,0.0,0.0,0.6992561771941757,4.745103690798115,0.0,0.0,0.0,0.0,0.0,0.0,0.0,0.0,0.0,0.0,0.0,0.0,0.0,0.0,
0.1481,4.942078078343785,4.7254767929573855,4.569379575816701,0.0,0.0,0.6994750985210474,4.745644815705957,0.0,0.0,0.0,0.0,0.0,0.0,0.0,0.0,0.0,0.0,0.0,0.0,0.0,0.0,
0.1629,4.942747204565034,4.72605528403591,4.569927028238769,0.0,0.0,0.6997172204144547,4.746243172279905,0.0,0.0,0.0,0.0,0.0,0.0,0.0,0.0,0.0,0.0,0.0,0.0,0.0,0.0,
0.1777,4.943480446667274,4.726689193362667,4.570526922979145,0.0,0.0,0.6999825948689365,4.7468988543363615,0.0,0.0,0.0,0.0,0.0,0.0,0.0,0.0,0.0,0.0,0.0,0.0,0.0,0.0,
0.1925,4.944277922585095,4.727378619348085,4.5711793524881825,0.0,0.0,0.7002712789477853,4.74761196480712,0.0,0.0,0.0,0.0,0.0,0.0,0.0,0.0,0.0,0.0,0.0,0.0,0.0,0.0,
0.2073,4.945139760756636,4.728123669165615,4.571884417449669,0.0,0.0,0.7005833348161619,4.74838261579064,0.0,0.0,0.0,0.0,0.0,0.0,0.0,0.0,0.0,0.0,0.0,0.0,0.0,0.0,
0.2221,4.946066100187859,4.728924458805055,4.57264222683111,0.0,0.0,0.7009188297772051,4.749210928608008,0.0,0.0,0.0,0.0,0.0,0.0,0.0,0.0,0.0,0.0,0.0,0.0,0.0,0.0,
0.2369,4.947057090522435,4.729781113130343,4.573452897938324,0.0,0.0,0.7012778363112673,4.7500970338637005,0.0,0.0,0.0,0.0,0.0,0.0,0.0,0.0,0.0,0.0,0.0,0.0,0.0,0.0,
0.2518,4.9481202467312295,4.730700123297097,4.574322572526587,0.0,0.0,0.7016630976427882,4.7510476475183046,0.0,0.0,0.0,0.0,0.0,0.0,0.0,0.0,0.0,0.0,0.0,0.0,0.0,0.0,
0.2666,4.949241470413478,4.731669297238291,4.5752397120604105,0.0,0.0,0.7020695259295003,4.752050159904059,0.0,0.0,0.0,0.0,0.0,0.0,0.0,0.0,0.0,0.0,0.0,0.0,0.0,0.0,
0.2814,4.950427859804458,4.7326947654062,4.576210116871977,0.0,0.0,0.702499715347632,4.753110914027545,0.0,0.0,0.0,0.0,0.0,0.0,0.0,0.0,0.0,0.0,0.0,0.0,0.0,0.0,
0.2962,4.951679607982667,4.733776688893997,4.57723393831219,0.0,0.0,0.7029537595783227,4.754230078396285,0.0,0.0,0.0,0.0,0.0,0.0,0.0,0.0,0.0,0.0,0.0,0.0,0.0,0.0,
0.311,4.9529969190985135,4.734915238028566,4.578311336410136,0.0,0.0,0.7034317577243342,4.755407831179072,0.0,0.0,0.0,0.0,0.0,0.0,0.0,0.0,0.0,0.0,0.0,0.0,0.0,0.0,
0.3258,4.954380008478674,4.736110592456974,4.579442479954615,0.0,0.0,0.703933814368898,4.756644360296755,0.0,0.0,0.0,0.0,0.0,0.0,0.0,0.0,0.0,0.0,0.0,0.0,0.0,0.0,
0.3406,4.955829102736574,4.737362941237954,4.580627546580692,0.0,0.0,0.7044600396379987,4.7579398635184065,0.0,0.0,0.0,0.0,0.0,0.0,0.0,0.0,0.0,0.0,0.0,0.0,0.0,0.0,
0.3554,4.95734443988902,4.738672482938467,4.581866722860841,0.0,0.0,0.705010549266234,4.759294548562776,0.0,0.0,0.0,0.0,0.0,0.0,0.0,0.0,0.0,0.0,0.0,0.0,0.0,0.0,
0.3702,4.958926269479223,4.740039425735661,4.5831602044014765,0.0,0.0,0.7055854646663018,4.760708633205454,0.0,0.0,0.0,0.0,0.0,0.0,0.0,0.0,0.0,0.0,0.0,0.0,0.0,0.0,
0.385,4.9605748527063644,4.741463987524046,4.5845081959440925,0.0,0.0,0.706184913002221,4.762182345391501,0.0,0.0,0.0,0.0,0.0,0.0,0.0,0.0,0.0,0.0,0.0,0.0,0.0,0.0,
0.3999,4.962302283132962,4.74295660958556,4.585920575910034,0.0,0.0,0.7068133284611617,4.763726489542852,0.0,0.0,0.0,0.0,0.0,0.0,0.0,0.0,0.0,0.0,0.0,0.0,0.0,0.0,
0.4147,4.964085660347172,4.744497495772135,4.587378610807328,0.0,0.0,0.7074624156413403,4.765320588975545,0.0,0.0,0.0,0.0,0.0,0.0,0.0,0.0,0.0,0.0,0.0,0.0,0.0,0.0,
0.4295,4.965936648175511,4.746096715802176,4.588891827440831,0.0,0.0,0.7081364535467323,4.766975063806172,0.0,0.0,0.0,0.0,0.0,0.0,0.0,0.0,0.0,0.0,0.0,0.0,0.0,0.0,
0.4443,4.967855555954467,4.747754527693614,4.590460468278129,0.0,0.0,0.7088355931977344,4.768690183975403,0.0,0.0,0.0,0.0,0.0,0.0,0.0,0.0,0.0,0.0,0.0,0.0,0.0,0.0,
0.4591,4.969842705427963,4.749471199804046,4.592084785510327,0.0,0.0,0.709559991791837,4.770466230247446,0.0,0.0,0.0,0.0,0.0,0.0,0.0,0.0,0.0,0.0,0.0,0.0,0.0,0.0,
0.4739,4.971898430919124,4.751247010973069,4.593765041186907,0.0,0.0,0.7103098128011958,4.7723034943597,0.0,0.0,0.0,0.0,0.0,0.0,0.0,0.0,0.0,0.0,0.0,0.0,0.0,0.0,
0.4887,4.974023079509859,4.753082250670912,4.595501507356128,0.0,0.0,0.711085226074718,4.774202279178966,0.0,0.0,0.0,0.0,0.0,0.0,0.0,0.0,0.0,0.0,0.0,0.0,0.0,0.0,
0.5035,4.976217011228167,4.754977219153647,4.59729446621198,0.0,0.0,0.7118864079446848,4.776162898864598,0.0,0.0,0.0,0.0,0.0,0.0,0.0,0.0,0.0,0.0,0.0,0.0,0.0,0.0,
0.5183,4.978480599243732,4.756932227624982,4.599144210247347,0.0,0.0,0.7127135413381329,4.778185679038687,0.0,0.0,0.0,0.0,0.0,0.0,0.0,0.0,0.0,0.0,0.0,0.0,0.0,0.0,
0.5331,4.980814230071829,4.758947598405234,4.6010510424137765,0.0,0.0,0.7135668158930571,4.780270956963613,0.0,0.0,0.0,0.0,0.0,0.0,0.0,0.0,0.0,0.0,0.0,0.0,0.0,0.0,
0.5479,4.9832183037856455,4.761023665107141,4.603015276287949,0.0,0.0,0.7144464280796728,4.782419081726911,0.0,0.0,0.0,0.0,0.0,0.0,0.0,0.0,0.0,0.0,0.0,0.0,0.0,0.0,
0.5628,4.985710198704364,4.763175421154091,4.605051095231748,0.0,0.0,0.7153587947303717,4.784645571696735,0.0,0.0,0.0,0.0,0.0,0.0,0.0,0.0,0.0,0.0,0.0,0.0,0.0,0.0,
0.5776,4.988256896896534,4.765374342720868,4.607131510099416,0.0,0.0,0.7162918810435188,4.786920916572273,0.0,0.0,0.0,0.0,0.0,0.0,0.0,0.0,0.0,0.0,0.0,0.0,0.0,0.0,
0.5924,4.990875324836342,4.767635033203714,4.609270335306073,0.0,0.0,0.7172519381794014,4.789260231115376,0.0,0.0,0.0,0.0,0.0,0.0,0.0,0.0,0.0,0.0,0.0,0.0,0.0,0.0,
0.6072,4.993565939232633,4.76995787337607,4.611467928813652,0.0,0.0,0.7182391913057636,4.791663913807452,0.0,0.0,0.0,0.0,0.0,0.0,0.0,0.0,0.0,0.0,0.0,0.0,0.0,0.0,
0.622,4.996329211554192,4.772343256299174,4.613724660151647,0.0,0.0,0.7192538731108531,4.794132376001671,0.0,0.0,0.0,0.0,0.0,0.0,0.0,0.0,0.0,0.0,0.0,0.0,0.0,0.0,
0.6368,4.99916562829952,4.774791587545336,4.616040910628897,0.0,0.0,0.7202962239583933,4.796666042157917,0.0,0.0,0.0,0.0,0.0,0.0,0.0,0.0,0.0,0.0,0.0,0.0,0.0,0.0,
0.6516,5.002075691277197,4.777303285430229,4.61841707355342,0.0,0.0,0.7213664920488952,4.799265350086949,0.0,0.0,0.0,0.0,0.0,0.0,0.0,0.0,0.0,0.0,0.0,0.0,0.0,0.0,
0.6664,5.0050599178973565,4.779878781254153,4.6208535544612825,0.0,0.0,0.7224649335874767,4.801930751204265,0.0,0.0,0.0,0.0,0.0,0.0,0.0,0.0,0.0,0.0,0.0,0.0,0.0,0.0,
0.6812,5.0081188414744515,4.78251851955273,4.623350771354034,0.0,0.0,0.7235918129585104,4.804662710793739,0.0,0.0,0.0,0.0,0.0,0.0,0.0,0.0,0.0,0.0,0.0,0.0,0.0,0.0,
0.696,5.011253011541898,4.78522295835748,4.625909154945863,0.0,0.0,0.7247474029071856,4.807461708281747,0.0,0.0,0.0,0.0,0.0,0.0,0.0,0.0,0.0,0.0,0.0,0.0,0.0,0.0,
0.7108,5.0144629941786825,4.787992569466185,4.628529148919878,0.0,0.0,0.7259319847284614,4.810328237521582,0.0,0.0,0.0,0.0,0.0,0.0,0.0,0.0,0.0,0.0,0.0,0.0,0.0,0.0,
0.7257,5.017771838799323,4.790847220395486,4.6312295443966764,0.0,0.0,0.7271541505143825,4.813282867863829,0.0,0.0,0.0,0.0,0.0,0.0,0.0,0.0,0.0,0.0,0.0,0.0,0.0,0.0,
0.7405,5.021135735027075,4.793749096737268,4.633974567587099,0.0,0.0,0.7283977960633903,4.816286466450481,0.0,0.0,0.0,0.0,0.0,0.0,0.0,0.0,0.0,0.0,0.0,0.0,0.0,0.0,
0.7553,5.0245772490297105,4.796717649768427,4.63678261605974,0.0,0.0,0.7296713327860594,4.8193591716192925,0.0,0.0,0.0,0.0,0.0,0.0,0.0,0.0,0.0,0.0,0.0,0.0,0.0,0.0,
0.7701,5.0280970167183705,4.799753409374658,4.6396541882400895,0.0,0.0,0.7309750782848677,4.82250153811104,0.0,0.0,0.0,0.0,0.0,0.0,0.0,0.0,0.0,0.0,0.0,0.0,0.0,0.0,
0.7849,5.0316956923849725,4.802856920727477,4.64258979696422,0.0,0.0,0.7323093597772969,4.825714136692223,0.0,0.0,0.0,0.0,0.0,0.0,0.0,0.0,0.0,0.0,0.0,0.0,0.0,0.0,
0.7997,5.035373949111897,4.806028744623524,4.645589969800884,0.0,0.0,0.7336745143347372,4.828997554512102,0.0,0.0,0.0,0.0,0.0,0.0,0.0,0.0,0.0,0.0,0.0,0.0,0.0,0.0,
0.8145,5.039132479197583,4.809269457836857,4.648655249385957,0.0,0.0,0.7350708891308413,4.832352395473466,0.0,0.0,0.0,0.0,0.0,0.0,0.0,0.0,0.0,0.0,0.0,0.0,0.0,0.0,
0.8293,5.042971994598306,4.812579653484793,4.651786193769897,0.0,0.0,0.7364988416997855,4.835779280617666,0.0,0.0,0.0,0.0,0.0,0.0,0.0,0.0,0.0,0.0,0.0,0.0,0.0,0.0,
0.8441,5.046893227386859,4.815959941407659,4.654983376778452,0.0,0.0,0.7379587402048792,4.839278848524324,0.0,0.0,0.0,0.0,0.0,0.0,0.0,0.0,0.0,0.0,0.0,0.0,0.0,0.0,
0.8589,5.050896930228939,4.819410948563281,4.658247388387468,0.0,0.0,0.7394509637178499,4.842851755726563,0.0,0.0,0.0,0.0,0.0,0.0,0.0,0.0,0.0,0.0,0.0,0.0,0.0,0.0,
0.8737,5.054983876877925,4.822933319436467,4.661578835112011,0.0,0.0,0.7409759025093554,4.846498677142134,0.0,0.0,0.0,0.0,0.0,0.0,0.0,0.0,0.0,0.0,0.0,0.0,0.0,0.0,
0.8886,5.0591833327066045,4.826552249445044,4.6650015429702805,0.0,0.0,0.7425445993275304,4.8502457083739765,0.0,0.0,0.0,0.0,0.0,0.0,0.0,0.0,0.0,0.0,0.0,0.0,0.0,0.0,
0.9034,5.0634397513557055,4.830219847080803,4.668470214070272,0.0,0.0,0.7441364137991742,4.854043270835594,0.0,0.0,0.0,0.0,0.0,0.0,0.0,0.0,0.0,0.0,0.0,0.0,0.0,0.0,
0.9182,5.067781872589944,4.833960856179756,4.6720082477003695,0.0,0.0,0.745762187556352,4.85791699215669,0.0,0.0,0.0,0.0,0.0,0.0,0.0,0.0,0.0,0.0,0.0,0.0,0.0,0.0,
0.933,5.072210560012047,4.837775995888103,4.675616320860909,0.0,0.0,0.7474223588967536,4.86186762558702,0.0,0.0,0.0,0.0,0.0,0.0,0.0,0.0,0.0,0.0,0.0,0.0,0.0,0.0,
0.9478,5.076726701091996,4.841666005180307,4.679295129279883,0.0,0.0,0.7491173789572482,4.865895945184062,0.0,0.0,0.0,0.0,0.0,0.0,0.0,0.0,0.0,0.0,0.0,0.0,0.0,0.0,
0.9626,5.0813312077885255,4.845631643373888,4.68304538790286,0.0,0.0,0.7508477120824849,4.870002746355092,0.0,0.0,0.0,0.0,0.0,0.0,0.0,0.0,0.0,0.0,0.0,0.0,0.0,0.0,
0.9774,5.086025017195409,4.849673690664171,4.686867831402081,0.0,0.0,0.7526138362086114,4.874188846420553,0.0,0.0,0.0,0.0,0.0,0.0,0.0,0.0,0.0,0.0,0.0,0.0,0.0,0.0,
0.9922,5.090809092212934,4.85379294868037,4.690763214705896,0.0,0.0,0.7544162432627789,4.878455085199733,0.0,0.0,0.0,0.0,0.0,0.0,0.0,0.0,0.0,0.0,0.0,0.0,0.0,0.0,
1.007,5.095684422245946,4.857990241063474,4.694732313549079,0.0,0.0,0.7562554395791858,4.8828023256195,0.0,0.0,0.0,0.0,0.0,0.0,0.0,0.0,0.0,0.0,0.0,0.0,0.0,0.0,
1.0218,5.10065202392981,4.862266414067063,4.698775925045412,0.0,0.0,0.7581319463323535,4.887231454347428,0.0,0.0,0.0,0.0,0.0,0.0,0.0,0.0,0.0,0.0,0.0,0.0,0.0,0.0,
1.0366,5.10571294188512,4.866622337182356,4.7028948682829625,0.0,0.0,0.7600462999884813,4.891743382450146,0.0,0.0,0.0,0.0,0.0,0.0,0.0,0.0,0.0,0.0,0.0,0.0,0.0,0.0,
1.0515,5.1109034061935645,4.8710891569487575,4.7071185913624785,0.0,0.0,0.7620123789387464,4.896370384834934,0.0,0.0,0.0,0.0,0.0,0.0,0.0,0.0,0.0,0.0,0.0,0.0,0.0,0.0,
1.0663,5.116154855492821,4.875607839256896,4.711391269892065,0.0,0.0,0.7640043646037205,4.901051321547261,0.0,0.0,0.0,0.0,0.0,0.0,0.0,0.0,0.0,0.0,0.0,0.0,0.0,0.0,
1.0811,5.121502938611761,4.880209032667658,4.715741881683834,0.0,0.0,0.766035907136368,4.905817950987751,0.0,0.0,0.0,0.0,0.0,0.0,0.0,0.0,0.0,0.0,0.0,0.0,0.0,0.0,
1.0959,5.126948820501972,4.884893706568029,4.720171340344443,0.0,0.0,0.7681076091947879,4.910671289138148,0.0,0.0,0.0,0.0,0.0,0.0,0.0,0.0,0.0,0.0,0.0,0.0,0.0,0.0,
1.1107,5.132493698363855,4.889662857111846,4.724680584821034,0.0,0.0,0.7702200912923733,4.915612380098911,0.0,0.0,0.0,0.0,0.0,0.0,0.0,0.0,0.0,0.0,0.0,0.0,0.0,0.0,
1.1255,5.1381388026056465,4.89451750801374,4.729270580158824,0.0,0.0,0.772373992377568,4.92064229692607,0.0,0.0,0.0,0.0,0.0,0.0,0.0,0.0,0.0,0.0,0.0,0.0,0.0,0.0,
1.1403,5.14388539784248,4.89945871137591,4.7339423182907305,0.0,0.0,0.774569970438856,4.92576214250304,0.0,0.0,0.0,0.0,0.0,0.0,0.0,0.0,0.0,0.0,0.0,0.0,0.0,0.0,
1.1551,5.149734783936817,4.9044875485494455,4.738696818860021,0.0,0.0,0.7768087031361454,4.9309730504487606,0.0,0.0,0.0,0.0,0.0,0.0,0.0,0.0,0.0,0.0,0.0,0.0,0.0,0.0,
1.1699,5.155688297083074,4.909605131032084,4.7435351300778725,0.0,0.0,0.7790908884600574,4.936276186064344,0.0,0.0,0.0,0.0,0.0,0.0,0.0,0.0,0.0,0.0,0.0,0.0,0.0,0.0,
1.1847,5.161747310937813,4.914812601403595,4.748458329617463,0.0,0.0,0.7814172454203157,4.9416727473196245,0.0,0.0,0.0,0.0,0.0,0.0,0.0,0.0,0.0,0.0,0.0,0.0,0.0,0.0,
1.1996,5.167955266380361,4.920147247650205,4.753501666530642,0.0,0.0,0.7838046913349117,4.947201393520403,0.0,0.0,0.0,0.0,0.0,0.0,0.0,0.0,0.0,0.0,0.0,0.0,0.0,0.0,
1.2144,5.174230295643069,4.925538678418411,4.758598590988288,0.0,0.0,0.7862219475694826,4.952789188349922,0.0,0.0,0.0,0.0,0.0,0.0,0.0,0.0,0.0,0.0,0.0,0.0,0.0,0.0,
1.2292,5.18061519363123,4.931023629782545,4.763783831118298,0.0,0.0,0.7886856713351139,4.958474218177357,0.0,0.0,0.0,0.0,0.0,0.0,0.0,0.0,0.0,0.0,0.0,0.0,0.0,0.0,
1.244,5.187111496446335,4.936603379076375,4.769058592410301,0.0,0.0,0.7911966734077682,4.9642578226443375,0.0,0.0,0.0,0.0,0.0,0.0,0.0,0.0,0.0,0.0,0.0,0.0,0.0,0.0,
1.2588,5.193720784086884,4.942279240041222,4.774424114910491,0.0,0.0,0.793755789525402,4.970141379679532,0.0,0.0,0.0,0.0,0.0,0.0,0.0,0.0,0.0,0.0,0.0,0.0,0.0,0.0,
1.2736,5.200444681907387,4.948052564033544,4.779881674377901,0.0,0.0,0.7963638812872453,4.976126306772944,0.0,0.0,0.0,0.0,0.0,0.0,0.0,0.0,0.0,0.0,0.0,0.0,0.0,0.0,
1.2884,5.207284862142683,4.953924741286214,4.785432583492688,0.0,0.0,0.799021837095074,4.982214062307196,0.0,0.0,0.0,0.0,0.0,0.0,0.0,0.0,0.0,0.0,0.0,0.0,0.0,0.0,
1.3032,5.214243045500616,4.959897202226468,4.791078193118766,0.0,0.0,0.801730573138782,4.988406146948617,0.0,0.0,0.0,0.0,0.0,0.0,0.0,0.0,0.0,0.0,0.0,0.0,0.0,0.0,
1.318,5.221321002826908,4.965971418853609,4.7968198936246385,0.0,0.0,0.8044910344287542,4.994704105101719,0.0,0.0,0.0,0.0,0.0,0.0,0.0,0.0,0.0,0.0,0.0,0.0,0.0,0.0,
1.3328,5.228520556846147,4.9721489061794655,4.802659116264451,0.0,0.0,0.8073041958776193,5.001109526430021,0.0,0.0,0.0,0.0,0.0,0.0,0.0,0.0,0.0,0.0,0.0,0.0,0.0,0.0,
1.3476,5.235843583982949,4.978431223735326,4.808597334623456,0.0,0.0,0.8101710634341667,5.007624047447244,0.0,0.0,0.0,0.0,0.0,0.0,0.0,0.0,0.0,0.0,0.0,0.0,0.0,0.0,
1.3625,5.243342774535081,4.984863510145779,4.814677213766371,0.0,0.0,0.8131126045084052,5.01429449948241,0.0,0.0,0.0,0.0,0.0,0.0,0.0,0.0,0.0,0.0,0.0,0.0,0.0,0.0,
1.3773,5.250919469276864,4.991361088858726,4.820818716405182,0.0,0.0,0.816090413133494,5.021033091513591,0.0,0.0,0.0,0.0,0.0,0.0,0.0,0.0,0.0,0.0,0.0,0.0,0.0,0.0,
1.3921,5.258625622175062,4.99796847133166,4.827063916039247,0.0,0.0,0.8191251517137523,5.027886003181989,0.0,0.0,0.0,0.0,0.0,0.0,0.0,0.0,0.0,0.0,0.0,0.0,0.0,0.0,
1.4069,5.266463344857309,5.004687412054032,4.833414471779429,0.0,0.0,0.8222179630842229,5.034855076230257,0.0,0.0,0.0,0.0,0.0,0.0,0.0,0.0,0.0,0.0,0.0,0.0,0.0,0.0,
1.4217,5.274434813141667,5.011519718713273,4.839872093401467,0.0,0.0,0.8253700276908169,5.041942208418803,0.0,0.0,0.0,0.0,0.0,0.0,0.0,0.0,0.0,0.0,0.0,0.0,0.0,0.0,
1.4365,5.282542269443428,5.018467254185777,4.8464385432599695,0.0,0.0,0.8285825651082759,5.049149355629725,0.0,0.0,0.0,0.0,0.0,0.0,0.0,0.0,0.0,0.0,0.0,0.0,0.0,0.0,
1.4513,5.290788025300385,5.025531938625435,4.853115638297078,0.0,0.0,0.83185683563612,5.0564785340743,0.0,0.0,0.0,0.0,0.0,0.0,0.0,0.0,0.0,0.0,0.0,0.0,0.0,0.0,
1.4661,5.299174464022846,5.032715751655595,4.859905252150979,0.0,0.0,0.8351941419773826,5.063931822609807,0.0,0.0,0.0,0.0,0.0,0.0,0.0,0.0,0.0,0.0,0.0,0.0,0.0,0.0,
1.4809,5.307704043476567,5.040020734670428,4.866809317370963,0.0,0.0,0.8385958310051361,5.071511365172653,0.0,0.0,0.0,0.0,0.0,0.0,0.0,0.0,0.0,0.0,0.0,0.0,0.0,0.0,
1.4957,5.316379299005798,5.0474489932525,4.8738298277449505,0.0,0.0,0.8420632956224227,5.079219373334416,0.0,0.0,0.0,0.0,0.0,0.0,0.0,0.0,0.0,0.0,0.0,0.0,0.0,0.0,
1.5105,5.325202846505924,5.055002699713356,4.880968840746483,0.0,0.0,0.8455979767214564,5.087058128988588,0.0,0.0,0.0,0.0,0.0,0.0,0.0,0.0,0.0,0.0,0.0,0.0,0.0,0.0,
1.5254,5.3342385442758475,5.062736436610991,4.888277946949943,0.0,0.0,0.8492259496369278,5.095084309278927,0.0,0.0,0.0,0.0,0.0,0.0,0.0,0.0,0.0,0.0,0.0,0.0,0.0,0.0,
1.5402,5.34336791065726,5.07054872261791,4.895661242853125,0.0,0.0,0.8529000688068457,5.103192625376098,0.0,0.0,0.0,0.0,0.0,0.0,0.0,0.0,0.0,0.0,0.0,0.0,0.0,0.0,
1.555,5.352653952921809,5.0784934176350855,4.903169637893716,0.0,0.0,0.8566460472738511,5.11143900281687,0.0,0.0,0.0,0.0,0.0,0.0,0.0,0.0,0.0,0.0,0.0,0.0,0.0,0.0,
1.5698,5.362099643864501,5.086572989577389,4.910805471936616,0.0,0.0,0.8604655400897259,5.119826035126169,0.0,0.0,0.0,0.0,0.0,0.0,0.0,0.0,0.0,0.0,0.0,0.0,0.0,0.0,
1.5846,5.37170805480465,5.094789987948017,4.918571162861994,0.0,0.0,0.8643602618377199,5.128356401871554,0.0,0.0,0.0,0.0,0.0,0.0,0.0,0.0,0.0,0.0,0.0,0.0,0.0,0.0,
1.5994,5.381482359773656,5.10314704729961,4.926469209907064,0.0,0.0,0.8683319893398123,5.1370328723267775,0.0,0.0,0.0,0.0,0.0,0.0,0.0,0.0,0.0,0.0,0.0,0.0,0.0,0.0,
1.6142,5.3914258399323,5.111646890885149,4.934502197192318,0.0,0.0,0.8723825645192115,5.145858309336589,0.0,0.0,0.0,0.0,0.0,0.0,0.0,0.0,0.0,0.0,0.0,0.0,0.0,0.0,
1.629,5.40154188823345,5.120292334511115,4.942672797445082,0.0,0.0,0.8765138974290572,5.1548356733965495,0.0,0.0,0.0,0.0,0.0,0.0,0.0,0.0,0.0,0.0,0.0,0.0,0.0,0.0,
1.6438,5.411834014346726,5.1290862906068755,4.950983775932913,0.0,0.0,0.8807279694586888,5.163968026962172,0.0,0.0,0.0,0.0,0.0,0.0,0.0,0.0,0.0,0.0,0.0,0.0,0.0,0.0,
1.6586,5.422305849862615,5.138031772524158,4.959437994622194,0.0,0.0,0.8850268367300603,5.173258539002989,0.0,0.0,0.0,0.0,0.0,0.0,0.0,0.0,0.0,0.0,0.0,0.0,0.0,0.0,
1.6734,5.432961153795769,5.147131899083755,4.968038416576723,0.0,0.0,0.8894126336980099,5.182710489818748,0.0,0.0,0.0,0.0,0.0,0.0,0.0,0.0,0.0,0.0,0.0,0.0,0.0,0.0,
1.6883,5.44387772599904,5.156452997944611,4.976847745042287,0.0,0.0,0.8939181214660717,5.192392822995313,0.0,0.0,0.0,0.0,0.0,0.0,0.0,0.0,0.0,0.0,0.0,0.0,0.0,0.0,
1.7031,5.454913090197048,5.165873317418314,4.985750931815717,0.0,0.0,0.8984851397862861,5.202179113143694,0.0,0.0,0.0,0.0,0.0,0.0,0.0,0.0,0.0,0.0,0.0,0.0,0.0,0.0,
1.7179,5.4661440531075405,5.175458344179637,4.994809888257828,0.0,0.0,0.903146017030598,5.2121374285150015,0.0,0.0,0.0,0.0,0.0,0.0,0.0,0.0,0.0,0.0,0.0,0.0,0.0,0.0,
1.7327,5.477574946279362,5.18521167082591,5.0040280320748,0.0,0.0,0.9079032422637453,5.222271549726691,0.0,0.0,0.0,0.0,0.0,0.0,0.0,0.0,0.0,0.0,0.0,0.0,0.0,0.0,
1.7475,5.489210261532843,5.19513702254939,5.013408908350145,0.0,0.0,0.9127594045364701,5.232585397477459,0.0,0.0,0.0,0.0,0.0,0.0,0.0,0.0,0.0,0.0,0.0,0.0,0.0,0.0,
1.7623,5.501054658765721,5.205238263580764,5.022956195795774,0.0,0.0,0.9177171980679945,5.243083039380753,0.0,0.0,0.0,0.0,0.0,0.0,0.0,0.0,0.0,0.0,0.0,0.0,0.0,0.0,
1.7771,5.513112974247317,5.215519404035124,5.032673713395535,0.0,0.0,0.9227794277666599,5.2537686972259925,0.0,0.0,0.0,0.0,0.0,0.0,0.0,0.0,0.0,0.0,0.0,0.0,0.0,0.0,
