energies(eV),real_xx,real_yy,real_zz,real_xy,real_yz,real_xz,real_ave,imag_xx,imag_yy,imag_zz,imag_xy,imag_yz,imag_xz,imag_ave,absorption_xx,absorption_yy,absorption_zz,absorption_xy,absorption_yz,absorption_xz,absorption_ave,band_gap
0.0,3.5364240601358046,3.5364240601358046,3.2582759413293467,0.0,0.0,0.0,3.443708020533652,0.0,0.0,0.0,0.0,0.0,0.0,0.0,0.0,0.0,0.0,0.0,0.0,0.0,0.0,4.3801000000000005
0.0179,3.5364381083766783,3.5364381083766783,3.2582847573439495,0.0,0.0,0.0,3.443720324699102,0.0,0.0,0.0,0.0,0.0,0.0,0.0,0.0,0.0,0.0,0.0,0.0,0.0,0.0,
0.0359,3.536480569017009,3.536480569017009,3.2583114033417817,0.0,0.0,0.0,3.443757513791933,0.0,0.0,0.0,0.0,0.0,0.0,0.0,0.0,0.0,0.0,0.0,0.0,0.0,0.0,
0.0538,3.536550974898509,3.536550974898509,3.2583555852622146,0.0,0.0,0.0,3.4438191783530776,0.0,0.0,0.0,0.0,0.0,0.0,0.0,0.0,0.0,0.0,0.0,0.0,0.0,0.0,
0.0717,3.5366494911044444,3.5366494911044444,3.2584174052135646,0.0,0.0,0.0,3.443905462474151,0.0,0.0,0.0,0.0,0.0,0.0,0.0,0.0,0.0,0.0,0.0,0.0,0.0,0.0,
0.0897,3.5367769148678496,3.5367769148678496,3.258497361348065,0.0,0.0,0.0,3.444017063694588,0.0,0.0,0.0,0.0,0.0,0.0,0.0,0.0,0.0,0.0,0.0,0.0,0.0,0.0,
0.1076,3.5369318442627136,3.5369318442627136,3.258594571286671,0.0,0.0,0.0,3.4441527532706995,0.0,0.0,0.0,0.0,0.0,0.0,0.0,0.0,0.0,0.0,0.0,0.0,0.0,0.0,
0.1255,3.5371149255511214,3.5371149255511214,3.2587094372747227,0.0,0.0,0.0,3.4443130961256556,0.0,0.0,0.0,0.0,0.0,0.0,0.0,0.0,0.0,0.0,0.0,0.0,0.0,0.0,
0.1435,3.5373274380890742,3.5373274380890742,3.258842758009216,0.0,0.0,0.0,3.444499211395788,0.0,0.0,0.0,0.0,0.0,0.0,0.0,0.0,0.0,0.0,0.0,0.0,0.0,0.0,
0.1614,3.537567043827865,3.537567043827865,3.258993062200952,0.0,0.0,0.0,3.4447090499522273,0.0,0.0,0.0,0.0,0.0,0.0,0.0,0.0,0.0,0.0,0.0,0.0,0.0,0.0,
0.1793,3.537834870879289,3.537834870879289,3.2591610525176518,0.0,0.0,0.0,3.444943598092076,0.0,0.0,0.0,0.0,0.0,0.0,0.0,0.0,0.0,0.0,0.0,0.0,0.0,0.0,
0.1973,3.538132682025479,3.538132682025479,3.2593478287591195,0.0,0.0,0.0,3.445204397603359,0.0,0.0,0.0,0.0,0.0,0.0,0.0,0.0,0.0,0.0,0.0,0.0,0.0,0.0,
0.2152,3.53845720083271,3.53845720083271,3.2595513297384273,0.0,0.0,0.0,3.445488577134616,0.0,0.0,0.0,0.0,0.0,0.0,0.0,0.0,0.0,0.0,0.0,0.0,0.0,0.0,
0.2331,3.538810038428123,3.538810038428123,3.259772559042223,0.0,0.0,0.0,3.44579754529949,0.0,0.0,0.0,0.0,0.0,0.0,0.0,0.0,0.0,0.0,0.0,0.0,0.0,0.0,
0.2511,3.5391934428230956,3.5391934428230956,3.260012918344174,0.0,0.0,0.0,3.4461332679967884,0.0,0.0,0.0,0.0,0.0,0.0,0.0,0.0,0.0,0.0,0.0,0.0,0.0,0.0,
0.269,3.539603196022339,3.539603196022339,3.260269755173888,0.0,0.0,0.0,3.4464920490728552,0.0,0.0,0.0,0.0,0.0,0.0,0.0,0.0,0.0,0.0,0.0,0.0,0.0,0.0,
0.2869,3.5400413938327984,3.5400413938327984,3.260544374746061,0.0,0.0,0.0,3.446875720803886,0.0,0.0,0.0,0.0,0.0,0.0,0.0,0.0,0.0,0.0,0.0,0.0,0.0,0.0,
0.3049,3.5405107718036044,3.5405107718036044,3.2608384815939195,0.0,0.0,0.0,3.447286675067043,0.0,0.0,0.0,0.0,0.0,0.0,0.0,0.0,0.0,0.0,0.0,0.0,0.0,0.0,
0.3228,3.541006166278007,3.541006166278007,3.261148830176744,0.0,0.0,0.0,3.447720387577586,0.0,0.0,0.0,0.0,0.0,0.0,0.0,0.0,0.0,0.0,0.0,0.0,0.0,0.0,
0.3407,3.5415301599112596,3.5415301599112596,3.2614770282606593,0.0,0.0,0.0,3.448179116027726,0.0,0.0,0.0,0.0,0.0,0.0,0.0,0.0,0.0,0.0,0.0,0.0,0.0,0.0,
0.3587,3.5420859786113943,3.5420859786113943,3.261825084441027,0.0,0.0,0.0,3.448665680554605,0.0,0.0,0.0,0.0,0.0,0.0,0.0,0.0,0.0,0.0,0.0,0.0,0.0,0.0,
0.3766,3.542667508025212,3.542667508025212,3.262189157915103,0.0,0.0,0.0,3.4491747246551756,0.0,0.0,0.0,0.0,0.0,0.0,0.0,0.0,0.0,0.0,0.0,0.0,0.0,0.0,
0.3945,3.543277820335665,3.543277820335665,3.2625711601400362,0.0,0.0,0.0,3.4497089336037887,0.0,0.0,0.0,0.0,0.0,0.0,0.0,0.0,0.0,0.0,0.0,0.0,0.0,0.0,
0.4125,3.54392063515248,3.54392063515248,3.2629734051958006,0.0,0.0,0.0,3.4502715585002535,0.0,0.0,0.0,0.0,0.0,0.0,0.0,0.0,0.0,0.0,0.0,0.0,0.0,0.0,
0.4304,3.5445888814411055,3.5445888814411055,3.263391454416067,0.0,0.0,0.0,3.4508564057660926,0.0,0.0,0.0,0.0,0.0,0.0,0.0,0.0,0.0,0.0,0.0,0.0,0.0,0.0,
0.4483,3.5452861241110467,3.5452861241110467,3.2638275243077923,0.0,0.0,0.0,3.4514665908432955,0.0,0.0,0.0,0.0,0.0,0.0,0.0,0.0,0.0,0.0,0.0,0.0,0.0,0.0,
0.4663,3.5460165803489185,3.5460165803489185,3.264284236081188,0.0,0.0,0.0,3.4521057989263415,0.0,0.0,0.0,0.0,0.0,0.0,0.0,0.0,0.0,0.0,0.0,0.0,0.0,0.0,
0.4842,3.546772215486473,3.546772215486473,3.2647565501892872,0.0,0.0,0.0,3.452766993720745,0.0,0.0,0.0,0.0,0.0,0.0,0.0,0.0,0.0,0.0,0.0,0.0,0.0,0.0,
0.5021,3.5475570908884557,3.5475570908884557,3.2652469897699143,0.0,0.0,0.0,3.453453723848942,0.0,0.0,0.0,0.0,0.0,0.0,0.0,0.0,0.0,0.0,0.0,0.0,0.0,0.0,
0.5201,3.548375925738281,3.548375925738281,3.2657584850363497,0.0,0.0,0.0,3.4541701121709707,0.0,0.0,0.0,0.0,0.0,0.0,0.0,0.0,0.0,0.0,0.0,0.0,0.0,0.0,
0.538,3.549219713793781,3.549219713793781,3.2662853921217025,0.0,0.0,0.0,3.4549082732364216,0.0,0.0,0.0,0.0,0.0,0.0,0.0,0.0,0.0,0.0,0.0,0.0,0.0,0.0,
0.5559,3.5500930171454335,3.5500930171454335,3.266830542601872,0.0,0.0,0.0,3.45567219229758,0.0,0.0,0.0,0.0,0.0,0.0,0.0,0.0,0.0,0.0,0.0,0.0,0.0,0.0,
0.5739,3.551001061952708,3.551001061952708,3.2673971777976685,0.0,0.0,0.0,3.4564664339010283,0.0,0.0,0.0,0.0,0.0,0.0,0.0,0.0,0.0,0.0,0.0,0.0,0.0,0.0,
0.5918,3.551933861447531,3.551933861447531,3.267979045653091,0.0,0.0,0.0,3.4572822561827175,0.0,0.0,0.0,0.0,0.0,0.0,0.0,0.0,0.0,0.0,0.0,0.0,0.0,0.0,
0.6097,3.5528964832725776,3.5528964832725776,3.268579288219915,0.0,0.0,0.0,3.4581240849216903,0.0,0.0,0.0,0.0,0.0,0.0,0.0,0.0,0.0,0.0,0.0,0.0,0.0,0.0,
0.6277,3.5538946661180533,3.5538946661180533,3.269201460267652,0.0,0.0,0.0,3.458996930834586,0.0,0.0,0.0,0.0,0.0,0.0,0.0,0.0,0.0,0.0,0.0,0.0,0.0,0.0,
0.6456,3.5549174326996793,3.5549174326996793,3.269838697243523,0.0,0.0,0.0,3.4598911875476275,0.0,0.0,0.0,0.0,0.0,0.0,0.0,0.0,0.0,0.0,0.0,0.0,0.0,0.0,
0.6635,3.555970361610472,3.555970361610472,3.2704944539483627,0.0,0.0,0.0,3.460811725723102,0.0,0.0,0.0,0.0,0.0,0.0,0.0,0.0,0.0,0.0,0.0,0.0,0.0,0.0,
0.6815,3.557059710220131,3.557059710220131,3.2711726011842,0.0,0.0,0.0,3.461764007208154,0.0,0.0,0.0,0.0,0.0,0.0,0.0,0.0,0.0,0.0,0.0,0.0,0.0,0.0,
0.6994,3.5581734996691248,3.5581734996691248,3.2718656571454057,0.0,0.0,0.0,3.4627375521612187,0.0,0.0,0.0,0.0,0.0,0.0,0.0,0.0,0.0,0.0,0.0,0.0,0.0,0.0,
0.7173,3.5593178254887365,3.5593178254887365,3.2725773918961836,0.0,0.0,0.0,3.4637376809578857,0.0,0.0,0.0,0.0,0.0,0.0,0.0,0.0,0.0,0.0,0.0,0.0,0.0,0.0,
0.7353,3.560499470491571,3.560499470491571,3.273311995103884,0.0,0.0,0.0,3.4647703120290085,0.0,0.0,0.0,0.0,0.0,0.0,0.0,0.0,0.0,0.0,0.0,0.0,0.0,0.0,
0.7532,3.5617054420812586,3.5617054420812586,3.274061362494646,0.0,0.0,0.0,3.4658240822190542,0.0,0.0,0.0,0.0,0.0,0.0,0.0,0.0,0.0,0.0,0.0,0.0,0.0,0.0,
0.7711,3.562942359325289,3.562942359325289,3.274829582157807,0.0,0.0,0.0,3.4669047669361284,0.0,0.0,0.0,0.0,0.0,0.0,0.0,0.0,0.0,0.0,0.0,0.0,0.0,0.0,
0.7891,3.5642175378803165,3.5642175378803165,3.275621165714912,0.0,0.0,0.0,3.468018747158515,0.0,0.0,0.0,0.0,0.0,0.0,0.0,0.0,0.0,0.0,0.0,0.0,0.0,0.0,
0.807,3.565516958111307,3.565516958111307,3.2764273807372404,0.0,0.0,0.0,3.4691537656532847,0.0,0.0,0.0,0.0,0.0,0.0,0.0,0.0,0.0,0.0,0.0,0.0,0.0,0.0,
0.8249,3.5668477698524397,3.5668477698524397,3.277252636355324,0.0,0.0,0.0,3.470316058686734,0.0,0.0,0.0,0.0,0.0,0.0,0.0,0.0,0.0,0.0,0.0,0.0,0.0,0.0,
0.8429,3.568217829668853,3.568217829668853,3.278101769497711,0.0,0.0,0.0,3.471512476278472,0.0,0.0,0.0,0.0,0.0,0.0,0.0,0.0,0.0,0.0,0.0,0.0,0.0,0.0,
0.8608,3.5696120764031614,3.5696120764031614,3.2789654134096304,0.0,0.0,0.0,3.472729855405318,0.0,0.0,0.0,0.0,0.0,0.0,0.0,0.0,0.0,0.0,0.0,0.0,0.0,0.0,
0.8787,3.5710381985443105,3.5710381985443105,3.279848301540967,0.0,0.0,0.0,3.473974899543196,0.0,0.0,0.0,0.0,0.0,0.0,0.0,0.0,0.0,0.0,0.0,0.0,0.0,0.0,
0.8967,3.5725046023219917,3.5725046023219917,3.280755599752684,0.0,0.0,0.0,3.475254934798889,0.0,0.0,0.0,0.0,0.0,0.0,0.0,0.0,0.0,0.0,0.0,0.0,0.0,0.0,
0.9146,3.5739951693449195,3.5739951693449195,3.281677300293583,0.0,0.0,0.0,3.47655587966114,0.0,0.0,0.0,0.0,0.0,0.0,0.0,0.0,0.0,0.0,0.0,0.0,0.0,0.0,
0.9325,3.5755181353302166,3.5755181353302166,3.2826184644815632,0.0,0.0,0.0,3.4778849117139985,0.0,0.0,0.0,0.0,0.0,0.0,0.0,0.0,0.0,0.0,0.0,0.0,0.0,0.0,
0.9505,3.5770824656509888,3.5770824656509888,3.283584591017535,0.0,0.0,0.0,3.479249840773171,0.0,0.0,0.0,0.0,0.0,0.0,0.0,0.0,0.0,0.0,0.0,0.0,0.0,0.0,
0.9684,3.5786709676920956,3.5786709676920956,3.2845650239684128,0.0,0.0,0.0,3.4806356531175346,0.0,0.0,0.0,0.0,0.0,0.0,0.0,0.0,0.0,0.0,0.0,0.0,0.0,0.0,
0.9863,3.580292433688264,3.580292433688264,3.2855651563485244,0.0,0.0,0.0,3.482050007908351,0.0,0.0,0.0,0.0,0.0,0.0,0.0,0.0,0.0,0.0,0.0,0.0,0.0,0.0,
1.0043,3.5819563983921197,3.5819563983921197,3.286590823898878,0.0,0.0,0.0,3.4835012068943723,0.0,0.0,0.0,0.0,0.0,0.0,0.0,0.0,0.0,0.0,0.0,0.0,0.0,0.0,
1.0222,3.5836445766407716,3.5836445766407716,3.287630714786304,0.0,0.0,0.0,3.484973289355949,0.0,0.0,0.0,0.0,0.0,0.0,0.0,0.0,0.0,0.0,0.0,0.0,0.0,0.0,
1.0401,3.5853663272257457,3.5853663272257457,3.2886905578402246,0.0,0.0,0.0,3.4864744040972386,0.0,0.0,0.0,0.0,0.0,0.0,0.0,0.0,0.0,0.0,0.0,0.0,0.0,0.0,
1.0581,3.587131765310325,3.587131765310325,3.2897765303455873,0.0,0.0,0.0,3.4880133536554125,0.0,0.0,0.0,0.0,0.0,0.0,0.0,0.0,0.0,0.0,0.0,0.0,0.0,0.0,
1.076,3.5889214934652234,3.5889214934652234,3.290876656299547,0.0,0.0,0.0,3.489573214409998,0.0,0.0,0.0,0.0,0.0,0.0,0.0,0.0,0.0,0.0,0.0,0.0,0.0,0.0,
1.0939,3.5907454478649683,3.5907454478649683,3.2919970047662797,0.0,0.0,0.0,3.491162633498739,0.0,0.0,0.0,0.0,0.0,0.0,0.0,0.0,0.0,0.0,0.0,0.0,0.0,0.0,
1.1119,3.592614335951198,3.592614335951198,3.2931440993949015,0.0,0.0,0.0,3.492790923765766,0.0,0.0,0.0,0.0,0.0,0.0,0.0,0.0,0.0,0.0,0.0,0.0,0.0,0.0,
1.1298,3.5945076268483978,3.5945076268483978,3.2943052911710473,0.0,0.0,0.0,3.4944401816226143,0.0,0.0,0.0,0.0,0.0,0.0,0.0,0.0,0.0,0.0,0.0,0.0,0.0,0.0,
1.1477,3.5964358457680476,3.5964358457680476,3.295486994126681,0.0,0.0,0.0,3.496119561887592,0.0,0.0,0.0,0.0,0.0,0.0,0.0,0.0,0.0,0.0,0.0,0.0,0.0,0.0,
1.1657,3.5984103051801335,3.5984103051801335,3.2966960834251666,0.0,0.0,0.0,3.497838897928478,0.0,0.0,0.0,0.0,0.0,0.0,0.0,0.0,0.0,0.0,0.0,0.0,0.0,0.0,
1.1836,3.6004093180489862,3.6004093180489862,3.2979192276039266,0.0,0.0,0.0,3.4995792879006333,0.0,0.0,0.0,0.0,0.0,0.0,0.0,0.0,0.0,0.0,0.0,0.0,0.0,0.0,
1.2015,3.602444011149852,3.602444011149852,3.299163190722608,0.0,0.0,0.0,3.5013504043407706,0.0,0.0,0.0,0.0,0.0,0.0,0.0,0.0,0.0,0.0,0.0,0.0,0.0,0.0,
1.2195,3.60452631566327,3.60452631566327,3.3004352049532084,0.0,0.0,0.0,3.50316261209325,0.0,0.0,0.0,0.0,0.0,0.0,0.0,0.0,0.0,0.0,0.0,0.0,0.0,0.0,
1.2374,3.6066333640662123,3.6066333640662123,3.3017212463294343,0.0,0.0,0.0,3.504995991487286,0.0,0.0,0.0,0.0,0.0,0.0,0.0,0.0,0.0,0.0,0.0,0.0,0.0,0.0,
1.2553,3.6087768981463735,3.6087768981463735,3.303028434339414,0.0,0.0,0.0,3.506860743544054,0.0,0.0,0.0,0.0,0.0,0.0,0.0,0.0,0.0,0.0,0.0,0.0,0.0,0.0,
1.2733,3.6109694824644225,3.6109694824644225,3.3043643640188876,0.0,0.0,0.0,3.5087677763159113,0.0,0.0,0.0,0.0,0.0,0.0,0.0,0.0,0.0,0.0,0.0,0.0,0.0,0.0,
1.2912,3.613187042982593,3.613187042982593,3.3057143081967353,0.0,0.0,0.0,3.510696131387307,0.0,0.0,0.0,0.0,0.0,0.0,0.0,0.0,0.0,0.0,0.0,0.0,0.0,0.0,
1.3091,3.6154419509259164,3.6154419509259164,3.3070857475473994,0.0,0.0,0.0,3.5126565497997437,0.0,0.0,0.0,0.0,0.0,0.0,0.0,0.0,0.0,0.0,0.0,0.0,0.0,0.0,
1.3271,3.617747419952294,3.617747419952294,3.308486646203348,0.0,0.0,0.0,3.5146604953693115,0.0,0.0,0.0,0.0,0.0,0.0,0.0,0.0,0.0,0.0,0.0,0.0,0.0,0.0,
1.345,3.62007814168715,3.62007814168715,3.3099015624135353,0.0,0.0,0.0,3.516685948595945,0.0,0.0,0.0,0.0,0.0,0.0,0.0,0.0,0.0,0.0,0.0,0.0,0.0,0.0,
1.3629,3.622447132253307,3.622447132253307,3.3113383441705975,0.0,0.0,0.0,3.5187442028924036,0.0,0.0,0.0,0.0,0.0,0.0,0.0,0.0,0.0,0.0,0.0,0.0,0.0,0.0,
1.3809,3.6248682712368128,3.6248682712368128,3.3128053313336405,0.0,0.0,0.0,3.5208472912690887,0.0,0.0,0.0,0.0,0.0,0.0,0.0,0.0,0.0,0.0,0.0,0.0,0.0,0.0,
1.3988,3.6273149862061427,3.6273149862061427,3.3142863554915323,0.0,0.0,0.0,3.5229721093012727,0.0,0.0,0.0,0.0,0.0,0.0,0.0,0.0,0.0,0.0,0.0,0.0,0.0,0.0,
1.4167,3.629800954743181,3.629800954743181,3.3157896384797194,0.0,0.0,0.0,3.525130515988694,0.0,0.0,0.0,0.0,0.0,0.0,0.0,0.0,0.0,0.0,0.0,0.0,0.0,0.0,
1.4347,3.6323407403796857,3.6323407403796857,3.317323902931578,0.0,0.0,0.0,3.527335127896983,0.0,0.0,0.0,0.0,0.0,0.0,0.0,0.0,0.0,0.0,0.0,0.0,0.0,0.0,
1.4526,3.6349064748961624,3.6349064748961624,3.3188722409570435,0.0,0.0,0.0,3.5295617302497893,0.0,0.0,0.0,0.0,0.0,0.0,0.0,0.0,0.0,0.0,0.0,0.0,0.0,0.0,
1.4705,3.637512515067431,3.637512515067431,3.320443255172081,0.0,0.0,0.0,3.531822761768981,0.0,0.0,0.0,0.0,0.0,0.0,0.0,0.0,0.0,0.0,0.0,0.0,0.0,0.0,
1.4885,3.640174127655009,3.640174127655009,3.3220460584721265,0.0,0.0,0.0,3.5341314379273814,0.0,0.0,0.0,0.0,0.0,0.0,0.0,0.0,0.0,0.0,0.0,0.0,0.0,0.0,
1.5064,3.642862114786538,3.642862114786538,3.3236629898941934,0.0,0.0,0.0,3.5364624064890897,0.0,0.0,0.0,0.0,0.0,0.0,0.0,0.0,0.0,0.0,0.0,0.0,0.0,0.0,
1.5243,3.6455915314151057,3.6455915314151057,3.325303040207874,0.0,0.0,0.0,3.538828701012695,0.0,0.0,0.0,0.0,0.0,0.0,0.0,0.0,0.0,0.0,0.0,0.0,0.0,0.0,
1.5423,3.6483783681704858,3.6483783681704858,3.326975720523172,0.0,0.0,0.0,3.541244152288048,0.0,0.0,0.0,0.0,0.0,0.0,0.0,0.0,0.0,0.0,0.0,0.0,0.0,0.0,
1.5602,3.6511920613941315,3.6511920613941315,3.3286626023956063,0.0,0.0,0.0,3.5436822417279568,0.0,0.0,0.0,0.0,0.0,0.0,0.0,0.0,0.0,0.0,0.0,0.0,0.0,0.0,
1.5781,3.6540483845409537,3.6540483845409537,3.3303730725810627,0.0,0.0,0.0,3.546156613887657,0.0,0.0,0.0,0.0,0.0,0.0,0.0,0.0,0.0,0.0,0.0,0.0,0.0,0.0,
1.5961,3.6569640741989127,3.6569640741989127,3.332117048847989,0.0,0.0,0.0,3.5486817324152717,0.0,0.0,0.0,0.0,0.0,0.0,0.0,0.0,0.0,0.0,0.0,0.0,0.0,0.0,
1.614,3.6599071623745276,3.6599071623745276,3.3338753200046645,0.0,0.0,0.0,3.551229881584573,0.0,0.0,0.0,0.0,0.0,0.0,0.0,0.0,0.0,0.0,0.0,0.0,0.0,0.0,
1.6319,3.6628941627818628,3.6628941627818628,3.3356576771116857,0.0,0.0,0.0,3.553815334225137,0.0,0.0,0.0,0.0,0.0,0.0,0.0,0.0,0.0,0.0,0.0,0.0,0.0,0.0,
1.6499,3.665942581615273,3.665942581615273,3.337474453560666,0.0,0.0,0.0,3.556453205597071,0.0,0.0,0.0,0.0,0.0,0.0,0.0,0.0,0.0,0.0,0.0,0.0,0.0,0.0,
1.6678,3.669019005421208,3.669019005421208,3.3393056392430616,0.0,0.0,0.0,3.5591145500284926,0.0,0.0,0.0,0.0,0.0,0.0,0.0,0.0,0.0,0.0,0.0,0.0,0.0,0.0,
1.6857,3.6721407114697215,3.6721407114697215,3.3411614383574055,0.0,0.0,0.0,3.5618142870989495,0.0,0.0,0.0,0.0,0.0,0.0,0.0,0.0,0.0,0.0,0.0,0.0,0.0,0.0,
1.7037,3.6753260008857467,3.6753260008857467,3.343052609435747,0.0,0.0,0.0,3.5645682037357465,0.0,0.0,0.0,0.0,0.0,0.0,0.0,0.0,0.0,0.0,0.0,0.0,0.0,0.0,
1.7216,3.678539970878404,3.678539970878404,3.344958326329108,0.0,0.0,0.0,3.567346089361972,0.0,0.0,0.0,0.0,0.0,0.0,0.0,0.0,0.0,0.0,0.0,0.0,0.0,0.0,
1.7395,3.6818006872262043,3.6818006872262043,3.3468892157533845,0.0,0.0,0.0,3.570163530068598,0.0,0.0,0.0,0.0,0.0,0.0,0.0,0.0,0.0,0.0,0.0,0.0,0.0,0.0,
1.7575,3.6851272731153526,3.6851272731153526,3.348856471485833,0.0,0.0,0.0,3.573037005905513,0.0,0.0,0.0,0.0,0.0,0.0,0.0,0.0,0.0,0.0,0.0,0.0,0.0,0.0,
1.7754,3.6884832895951263,3.6884832895951263,3.3508384332047907,0.0,0.0,0.0,3.575935004131681,0.0,0.0,0.0,0.0,0.0,0.0,0.0,0.0,0.0,0.0,0.0,0.0,0.0,0.0,
1.7933,3.691887617689655,3.691887617689655,3.35284616010347,0.0,0.0,0.0,3.5788737984942602,0.0,0.0,0.0,0.0,0.0,0.0,0.0,0.0,0.0,0.0,0.0,0.0,0.0,0.0,
1.8113,3.695360231727832,3.695360231727832,3.354891291934899,0.0,0.0,0.0,3.5818705851301877,0.0,0.0,0.0,0.0,0.0,0.0,0.0,0.0,0.0,0.0,0.0,0.0,0.0,0.0,
1.8292,3.6988631066199003,3.6988631066199003,3.3569513150043506,0.0,0.0,0.0,3.584892509414717,0.0,0.0,0.0,0.0,0.0,0.0,0.0,0.0,0.0,0.0,0.0,0.0,0.0,0.0,
1.8471,3.702415967300047,3.702415967300047,3.3590377315608224,0.0,0.0,0.0,3.587956555386972,0.0,0.0,0.0,0.0,0.0,0.0,0.0,0.0,0.0,0.0,0.0,0.0,0.0,0.0,
1.8651,3.7060396704318235,3.7060396704318235,3.361162638731133,0.0,0.0,0.0,3.5910806598649265,0.0,0.0,0.0,0.0,0.0,0.0,0.0,0.0,0.0,0.0,0.0,0.0,0.0,0.0,
1.883,3.7096945514185307,3.7096945514185307,3.363302649114529,0.0,0.0,0.0,3.5942305839838635,0.0,0.0,0.0,0.0,0.0,0.0,0.0,0.0,0.0,0.0,0.0,0.0,0.0,0.0,
1.9009,3.7134012098542177,3.7134012098542177,3.365469719253815,0.0,0.0,0.0,3.59742404632075,0.0,0.0,0.0,0.0,0.0,0.0,0.0,0.0,0.0,0.0,0.0,0.0,0.0,0.0,
1.9189,3.7171814182175162,3.7171814182175162,3.367676415761511,0.0,0.0,0.0,3.6006797507321813,0.0,0.0,0.0,0.0,0.0,0.0,0.0,0.0,0.0,0.0,0.0,0.0,0.0,0.0,
1.9368,3.720993815392779,3.720993815392779,3.3698984559946883,0.0,0.0,0.0,3.6039620289267487,0.0,0.0,0.0,0.0,0.0,0.0,0.0,0.0,0.0,0.0,0.0,0.0,0.0,0.0,
1.9547,3.7248599086450485,3.7248599086450485,3.372148262733308,0.0,0.0,0.0,3.6072893600078015,0.0,0.0,0.0,0.0,0.0,0.0,0.0,0.0,0.0,0.0,0.0,0.0,0.0,0.0,
1.9727,3.728802422234533,3.728802422234533,3.374438884951536,0.0,0.0,0.0,3.610681243140201,0.0,0.0,0.0,0.0,0.0,0.0,0.0,0.0,0.0,0.0,0.0,0.0,0.0,0.0,
1.9906,3.732778237589686,3.732778237589686,3.3767451219486633,0.0,0.0,0.0,3.614100532376012,0.0,0.0,0.0,0.0,0.0,0.0,0.0,0.0,0.0,0.0,0.0,0.0,0.0,0.0,
2.0085,3.736809805114885,3.736809805114885,3.379079875440257,0.0,0.0,0.0,3.617566495223342,0.0,0.0,0.0,0.0,0.0,0.0,0.0,0.0,0.0,0.0,0.0,0.0,0.0,0.0,
2.0265,3.74092083952487,3.74092083952487,3.3814566904580396,0.0,0.0,0.0,3.621099456502593,0.0,0.0,0.0,0.0,0.0,0.0,0.0,0.0,0.0,0.0,0.0,0.0,0.0,0.0,
2.0444,3.7450663996208533,3.7450663996208533,3.3838494240646817,0.0,0.0,0.0,3.6246607411021294,0.0,0.0,0.0,0.0,0.0,0.0,0.0,0.0,0.0,0.0,0.0,0.0,0.0,0.0,
2.0623,3.7492699170904724,3.7492699170904724,3.3862714704199797,0.0,0.0,0.0,3.628270434866975,0.0,0.0,0.0,0.0,0.0,0.0,0.0,0.0,0.0,0.0,0.0,0.0,0.0,0.0,
2.0803,3.753556138728785,3.753556138728785,3.388736885190633,0.0,0.0,0.0,3.631949720882734,0.0,0.0,0.0,0.0,0.0,0.0,0.0,0.0,0.0,0.0,0.0,0.0,0.0,0.0,
2.0982,3.757878230962615,3.757878230962615,3.3912185575693083,0.0,0.0,0.0,3.635658339831513,0.0,0.0,0.0,0.0,0.0,0.0,0.0,0.0,0.0,0.0,0.0,0.0,0.0,0.0,
2.1161,3.762260647826432,3.762260647826432,3.393730388539789,0.0,0.0,0.0,3.6394172280642176,0.0,0.0,0.0,0.0,0.0,0.0,0.0,0.0,0.0,0.0,0.0,0.0,0.0,0.0,
2.1341,3.7667292130501697,3.7667292130501697,3.396286959930477,0.0,0.0,0.0,3.643248462010272,0.0,0.0,0.0,0.0,0.0,0.0,0.0,0.0,0.0,0.0,0.0,0.0,0.0,0.0,
2.152,3.771235125985837,3.771235125985837,3.3988601658763624,0.0,0.0,0.0,3.647110139282679,0.0,0.0,0.0,0.0,0.0,0.0,0.0,0.0,0.0,0.0,0.0,0.0,0.0,0.0,
2.1699,3.7758039072718326,3.7758039072718326,3.4014644295032506,0.0,0.0,0.0,3.6510240813489716,0.0,0.0,0.0,0.0,0.0,0.0,0.0,0.0,0.0,0.0,0.0,0.0,0.0,0.0,
2.1879,3.78046250596564,3.78046250596564,3.4041148753526764,0.0,0.0,0.0,3.6550132957613193,0.0,0.0,0.0,0.0,0.0,0.0,0.0,0.0,0.0,0.0,0.0,0.0,0.0,0.0,
2.2058,3.785160074273269,3.785160074273269,3.4067823736505436,0.0,0.0,0.0,3.659034174065694,0.0,0.0,0.0,0.0,0.0,0.0,0.0,0.0,0.0,0.0,0.0,0.0,0.0,0.0,
2.2237,3.7899232471949147,3.7899232471949147,3.4094818859955978,0.0,0.0,0.0,3.6631094601284757,0.0,0.0,0.0,0.0,0.0,0.0,0.0,0.0,0.0,0.0,0.0,0.0,0.0,0.0,
2.2417,3.794780151395004,3.794780151395004,3.412229097302228,0.0,0.0,0.0,3.6672631333640786,0.0,0.0,0.0,0.0,0.0,0.0,0.0,0.0,0.0,0.0,0.0,0.0,0.0,0.0,
2.2596,3.7996778060284537,3.7996778060284537,3.414993823252342,0.0,0.0,0.0,3.6714498117697496,0.0,0.0,0.0,0.0,0.0,0.0,0.0,0.0,0.0,0.0,0.0,0.0,0.0,0.0,
2.2775,3.8046440120622713,3.8046440120622713,3.417791581344153,0.0,0.0,0.0,3.6756932018228987,0.0,0.0,0.0,0.0,0.0,0.0,0.0,0.0,0.0,0.0,0.0,0.0,0.0,0.0,
2.2955,3.8097081303266416,3.8097081303266416,3.4206386357259144,0.0,0.0,0.0,3.680018298793066,0.0,0.0,0.0,0.0,0.0,0.0,0.0,0.0,0.0,0.0,0.0,0.0,0.0,0.0,
2.3134,3.81481495467263,3.81481495467263,3.423503714985304,0.0,0.0,0.0,3.6843778747768545,0.0,0.0,0.0,0.0,0.0,0.0,0.0,0.0,0.0,0.0,0.0,0.0,0.0,0.0,
2.3313,3.81999350787688,3.81999350787688,3.426402911134516,0.0,0.0,0.0,3.688796642296092,0.0,0.0,0.0,0.0,0.0,0.0,0.0,0.0,0.0,0.0,0.0,0.0,0.0,0.0,
