energies(eV),real_xx,real_yy,real_zz,real_xy,real_yz,real_xz,real_ave,imag_xx,imag_yy,imag_zz,imag_xy,imag_yz,imag_xz,imag_ave,absorption_xx,absorption_yy,absorption_zz,absorption_xy,absorption_yz,absorption_xz,absorption_ave,band_gap
0.0,2.2335771991963873,2.2335771991963873,3.237846378341343,0.0,0.0,0.0,2.5683335922447057,0.0,0.0,0.0,0.0,0.0,0.0,0.0,0.0,0.0,0.0,0.0,0.0,0.0,0.0,4.7313
0.0133,2.2335789983823204,2.2335789983823204,3.237852047648373,0.0,0.0,0.0,2.5683366814710045,0.0,0.0,0.0,0.0,0.0,0.0,0.0,0.0,0.0,0.0,0.0,0.0,0.0,0.0,
0.0267,2.2335844502044315,2.2335844502044315,3.237869226638123,0.0,0.0,0.0,2.5683460423489954,0.0,0.0,0.0,0.0,0.0,0.0,0.0,0.0,0.0,0.0,0.0,0.0,0.0,0.0,
0.04,2.2335934734461356,2.2335934734461356,3.2378976596293643,0.0,0.0,0.0,2.568361535507212,0.0,0.0,0.0,0.0,0.0,0.0,0.0,0.0,0.0,0.0,0.0,0.0,0.0,0.0,
0.0533,2.2336060955196664,2.2336060955196664,3.237937433391456,0.0,0.0,0.0,2.568383208143596,0.0,0.0,0.0,0.0,0.0,0.0,0.0,0.0,0.0,0.0,0.0,0.0,0.0,0.0,
0.0667,2.233622452379807,2.233622452379807,3.2379889768963257,0.0,0.0,0.0,2.568411293885313,0.0,0.0,0.0,0.0,0.0,0.0,0.0,0.0,0.0,0.0,0.0,0.0,0.0,0.0,
0.08,2.2336423003561237,2.2336423003561237,3.2380515230034925,0.0,0.0,0.0,2.568445374571913,0.0,0.0,0.0,0.0,0.0,0.0,0.0,0.0,0.0,0.0,0.0,0.0,0.0,0.0,
0.0933,2.2336657485445306,2.2336657485445306,3.2381254163542312,0.0,0.0,0.0,2.568485637814431,0.0,0.0,0.0,0.0,0.0,0.0,0.0,0.0,0.0,0.0,0.0,0.0,0.0,0.0,
0.1067,2.233693014625234,2.233693014625234,3.2382113439881746,0.0,0.0,0.0,2.568532457746214,0.0,0.0,0.0,0.0,0.0,0.0,0.0,0.0,0.0,0.0,0.0,0.0,0.0,0.0,
0.12,2.2337236924118704,2.2337236924118704,3.2383080270152247,0.0,0.0,0.0,2.5685851372796553,0.0,0.0,0.0,0.0,0.0,0.0,0.0,0.0,0.0,0.0,0.0,0.0,0.0,0.0,
0.1333,2.2337579727122936,2.2337579727122936,3.2384160680815772,0.0,0.0,0.0,2.5686440045020547,0.0,0.0,0.0,0.0,0.0,0.0,0.0,0.0,0.0,0.0,0.0,0.0,0.0,0.0,
0.1467,2.2337961549881173,2.2337961549881173,3.2385364125583043,0.0,0.0,0.0,2.5687095741781794,0.0,0.0,0.0,0.0,0.0,0.0,0.0,0.0,0.0,0.0,0.0,0.0,0.0,0.0,
0.16,2.233837670433614,2.233837670433614,3.238667269321446,0.0,0.0,0.0,2.5687808700628914,0.0,0.0,0.0,0.0,0.0,0.0,0.0,0.0,0.0,0.0,0.0,0.0,0.0,0.0,
0.1733,2.2338827916177717,2.2338827916177717,3.23880949925435,0.0,0.0,0.0,2.568858360829964,0.0,0.0,0.0,0.0,0.0,0.0,0.0,0.0,0.0,0.0,0.0,0.0,0.0,0.0,
0.1867,2.233931899860855,2.233931899860855,3.2389643064231066,0.0,0.0,0.0,2.5689427020482722,0.0,0.0,0.0,0.0,0.0,0.0,0.0,0.0,0.0,0.0,0.0,0.0,0.0,0.0,
0.2,2.233984263592723,2.233984263592723,3.239129386791022,0.0,0.0,0.0,2.5690326379921564,0.0,0.0,0.0,0.0,0.0,0.0,0.0,0.0,0.0,0.0,0.0,0.0,0.0,0.0,
0.2133,2.2340402372139287,2.2340402372139287,3.2393058598105107,0.0,0.0,0.0,2.569128778079456,0.0,0.0,0.0,0.0,0.0,0.0,0.0,0.0,0.0,0.0,0.0,0.0,0.0,0.0,
0.2267,2.234100284001701,2.234100284001701,3.239495188706141,0.0,0.0,0.0,2.569231918903181,0.0,0.0,0.0,0.0,0.0,0.0,0.0,0.0,0.0,0.0,0.0,0.0,0.0,0.0,
0.24,2.234163509434907,2.234163509434907,3.239694555654552,0.0,0.0,0.0,2.5693405248414556,0.0,0.0,0.0,0.0,0.0,0.0,0.0,0.0,0.0,0.0,0.0,0.0,0.0,0.0,
0.2533,2.2342303498371807,2.2342303498371807,3.239905339109027,0.0,0.0,0.0,2.5694553462611296,0.0,0.0,0.0,0.0,0.0,0.0,0.0,0.0,0.0,0.0,0.0,0.0,0.0,0.0,
0.2667,2.234301350562388,2.234301350562388,3.2401292620166937,0.0,0.0,0.0,2.569577321047156,0.0,0.0,0.0,0.0,0.0,0.0,0.0,0.0,0.0,0.0,0.0,0.0,0.0,0.0,
0.28,2.2343754539099594,2.2343754539099594,3.2403629916973884,0.0,0.0,0.0,2.5697046331724356,0.0,0.0,0.0,0.0,0.0,0.0,0.0,0.0,0.0,0.0,0.0,0.0,0.0,0.0,
0.2933,2.2344531782394688,2.2344531782394688,3.2406081661374686,0.0,0.0,0.0,2.5698381742054686,0.0,0.0,0.0,0.0,0.0,0.0,0.0,0.0,0.0,0.0,0.0,0.0,0.0,0.0,
0.3067,2.2345351511223703,2.2345351511223703,3.2408667686719492,0.0,0.0,0.0,2.5699790236388966,0.0,0.0,0.0,0.0,0.0,0.0,0.0,0.0,0.0,0.0,0.0,0.0,0.0,0.0,
0.32,2.234620151408368,2.234620151408368,3.2411349504963956,0.0,0.0,0.0,2.5701250844377106,0.0,0.0,0.0,0.0,0.0,0.0,0.0,0.0,0.0,0.0,0.0,0.0,0.0,0.0,
0.3333,2.234708779627045,2.234708779627045,3.2414146097634613,0.0,0.0,0.0,2.5702773896725173,0.0,0.0,0.0,0.0,0.0,0.0,0.0,0.0,0.0,0.0,0.0,0.0,0.0,0.0,
0.3467,2.2348017457299703,2.2348017457299703,3.2417079909632696,0.0,0.0,0.0,2.5704371608077365,0.0,0.0,0.0,0.0,0.0,0.0,0.0,0.0,0.0,0.0,0.0,0.0,0.0,0.0,
0.36,2.2348976648045764,2.2348976648045764,3.2420107277010435,0.0,0.0,0.0,2.570602019103399,0.0,0.0,0.0,0.0,0.0,0.0,0.0,0.0,0.0,0.0,0.0,0.0,0.0,0.0,
0.3733,2.234997219706068,2.234997219706068,3.242324979030588,0.0,0.0,0.0,2.570773139480908,0.0,0.0,0.0,0.0,0.0,0.0,0.0,0.0,0.0,0.0,0.0,0.0,0.0,0.0,
0.3867,2.235101202950187,2.235101202950187,3.242653251467247,0.0,0.0,0.0,2.570951885789207,0.0,0.0,0.0,0.0,0.0,0.0,0.0,0.0,0.0,0.0,0.0,0.0,0.0,0.0,
0.4,2.235208065507204,2.235208065507204,3.242990659359406,0.0,0.0,0.0,2.5711355967912715,0.0,0.0,0.0,0.0,0.0,0.0,0.0,0.0,0.0,0.0,0.0,0.0,0.0,0.0,
0.4133,2.2353185727350704,2.2353185727350704,3.243339623499551,0.0,0.0,0.0,2.571325589656564,0.0,0.0,0.0,0.0,0.0,0.0,0.0,0.0,0.0,0.0,0.0,0.0,0.0,0.0,
0.4267,2.235433599919567,2.235433599919567,3.2437029134020006,0.0,0.0,0.0,2.571523371080378,0.0,0.0,0.0,0.0,0.0,0.0,0.0,0.0,0.0,0.0,0.0,0.0,0.0,0.0,
0.44,2.235551433516183,2.235551433516183,3.244075122289842,0.0,0.0,0.0,2.571725996440736,0.0,0.0,0.0,0.0,0.0,0.0,0.0,0.0,0.0,0.0,0.0,0.0,0.0,0.0,
0.4533,2.235672921584461,2.235672921584461,3.244458933635119,0.0,0.0,0.0,2.571934925601347,0.0,0.0,0.0,0.0,0.0,0.0,0.0,0.0,0.0,0.0,0.0,0.0,0.0,0.0,
0.4667,2.2357990224080204,2.2357990224080204,3.2448573810298997,0.0,0.0,0.0,2.5721518086153137,0.0,0.0,0.0,0.0,0.0,0.0,0.0,0.0,0.0,0.0,0.0,0.0,0.0,0.0,
0.48,2.235927857486912,2.235927857486912,3.245264534499162,0.0,0.0,0.0,2.5723734164909953,0.0,0.0,0.0,0.0,0.0,0.0,0.0,0.0,0.0,0.0,0.0,0.0,0.0,0.0,
0.4933,2.236060357803054,2.236060357803054,3.2456833412400465,0.0,0.0,0.0,2.5726013522820517,0.0,0.0,0.0,0.0,0.0,0.0,0.0,0.0,0.0,0.0,0.0,0.0,0.0,0.0,
0.5067,2.236197564887736,2.236197564887736,3.2461171001071625,0.0,0.0,0.0,2.572837409960878,0.0,0.0,0.0,0.0,0.0,0.0,0.0,0.0,0.0,0.0,0.0,0.0,0.0,0.0,
0.52,2.23633743480163,2.23633743480163,3.246559355648217,0.0,0.0,0.0,2.5730780750838256,0.0,0.0,0.0,0.0,0.0,0.0,0.0,0.0,0.0,0.0,0.0,0.0,0.0,0.0,
0.5333,2.2364809816917672,2.2364809816917672,3.247013319936599,0.0,0.0,0.0,2.5733250944400443,0.0,0.0,0.0,0.0,0.0,0.0,0.0,0.0,0.0,0.0,0.0,0.0,0.0,0.0,
0.5467,2.2366293306093716,2.2366293306093716,3.2474825583817704,0.0,0.0,0.0,2.573580406533505,0.0,0.0,0.0,0.0,0.0,0.0,0.0,0.0,0.0,0.0,0.0,0.0,0.0,0.0,
0.56,2.2367802716479646,2.2367802716479646,3.2479600875659695,0.0,0.0,0.0,2.5738402102872997,0.0,0.0,0.0,0.0,0.0,0.0,0.0,0.0,0.0,0.0,0.0,0.0,0.0,0.0,
0.5733,2.2369349023847453,2.2369349023847453,3.2484493856970764,0.0,0.0,0.0,2.5741063968221893,0.0,0.0,0.0,0.0,0.0,0.0,0.0,0.0,0.0,0.0,0.0,0.0,0.0,0.0,
0.5867,2.237094431685608,2.237094431685608,3.2489542861406013,0.0,0.0,0.0,2.5743810498372723,0.0,0.0,0.0,0.0,0.0,0.0,0.0,0.0,0.0,0.0,0.0,0.0,0.0,0.0,
0.6,2.237256483105001,2.237256483105001,3.24946727481336,0.0,0.0,0.0,2.5746600803411206,0.0,0.0,0.0,0.0,0.0,0.0,0.0,0.0,0.0,0.0,0.0,0.0,0.0,0.0,
0.6133,2.2374222379378175,2.2374222379378175,3.249992097424424,0.0,0.0,0.0,2.574945524433353,0.0,0.0,0.0,0.0,0.0,0.0,0.0,0.0,0.0,0.0,0.0,0.0,0.0,0.0,
0.6267,2.237592989182152,2.237592989182152,3.2505328568071015,0.0,0.0,0.0,2.5752396117238017,0.0,0.0,0.0,0.0,0.0,0.0,0.0,0.0,0.0,0.0,0.0,0.0,0.0,0.0,
0.64,2.2377661932368467,2.2377661932368467,3.251081505298033,0.0,0.0,0.0,2.575537963923909,0.0,0.0,0.0,0.0,0.0,0.0,0.0,0.0,0.0,0.0,0.0,0.0,0.0,0.0,
0.6533,2.2379431154246596,2.2379431154246596,3.2516420575842337,0.0,0.0,0.0,2.575842762811184,0.0,0.0,0.0,0.0,0.0,0.0,0.0,0.0,0.0,0.0,0.0,0.0,0.0,0.0,
0.6667,2.23812513321651,2.23812513321651,3.2522188875908373,0.0,0.0,0.0,2.576156384674619,0.0,0.0,0.0,0.0,0.0,0.0,0.0,0.0,0.0,0.0,0.0,0.0,0.0,0.0,
0.68,2.2383095351938964,2.2383095351938964,3.252803410941531,0.0,0.0,0.0,2.5764741604431083,0.0,0.0,0.0,0.0,0.0,0.0,0.0,0.0,0.0,0.0,0.0,0.0,0.0,0.0,
0.6933,2.238497671040708,2.238497671040708,3.2533999128897264,0.0,0.0,0.0,2.576798418323714,0.0,0.0,0.0,0.0,0.0,0.0,0.0,0.0,0.0,0.0,0.0,0.0,0.0,0.0,
0.7067,2.238691003064493,2.238691003064493,3.2540130401906064,0.0,0.0,0.0,2.577131682106531,0.0,0.0,0.0,0.0,0.0,0.0,0.0,0.0,0.0,0.0,0.0,0.0,0.0,0.0,
0.72,2.2388866513221304,2.2388866513221304,3.2546336684004498,0.0,0.0,0.0,2.577468990348237,0.0,0.0,0.0,0.0,0.0,0.0,0.0,0.0,0.0,0.0,0.0,0.0,0.0,0.0,
0.7333,2.239086050214964,2.239086050214964,3.255266355041206,0.0,0.0,0.0,2.577812818490378,0.0,0.0,0.0,0.0,0.0,0.0,0.0,0.0,0.0,0.0,0.0,0.0,0.0,0.0,
0.7467,2.239290747274837,2.239290747274837,3.2559160215524687,0.0,0.0,0.0,2.5781658387007145,0.0,0.0,0.0,0.0,0.0,0.0,0.0,0.0,0.0,0.0,0.0,0.0,0.0,0.0,
0.76,2.2394976932802835,2.2394976932802835,3.256572999843274,0.0,0.0,0.0,2.578522795467947,0.0,0.0,0.0,0.0,0.0,0.0,0.0,0.0,0.0,0.0,0.0,0.0,0.0,0.0,
0.7733,2.2397084077301397,2.2397084077301397,3.2572421215218155,0.0,0.0,0.0,2.578886312327365,0.0,0.0,0.0,0.0,0.0,0.0,0.0,0.0,0.0,0.0,0.0,0.0,0.0,0.0,
0.7867,2.239924523791986,2.239924523791986,3.25792858468479,0.0,0.0,0.0,2.579259210756254,0.0,0.0,0.0,0.0,0.0,0.0,0.0,0.0,0.0,0.0,0.0,0.0,0.0,0.0,
0.8,2.2401428221655535,2.2401428221655535,3.258622173784755,0.0,0.0,0.0,2.579635939371954,0.0,0.0,0.0,0.0,0.0,0.0,0.0,0.0,0.0,0.0,0.0,0.0,0.0,0.0,
0.8133,2.2403649078509584,2.2403649078509584,3.259327996451369,0.0,0.0,0.0,2.5800192707177616,0.0,0.0,0.0,0.0,0.0,0.0,0.0,0.0,0.0,0.0,0.0,0.0,0.0,0.0,
0.8267,2.2405925000873657,2.2405925000873657,3.260051529532102,0.0,0.0,0.0,2.5804121765689447,0.0,0.0,0.0,0.0,0.0,0.0,0.0,0.0,0.0,0.0,0.0,0.0,0.0,0.0,
0.84,2.2408222086476552,2.2408222086476552,3.260782005979636,0.0,0.0,0.0,2.5808088077583156,0.0,0.0,0.0,0.0,0.0,0.0,0.0,0.0,0.0,0.0,0.0,0.0,0.0,0.0,
0.8533,2.24105572446124,2.24105572446124,3.2615248115005664,0.0,0.0,0.0,2.581212086807682,0.0,0.0,0.0,0.0,0.0,0.0,0.0,0.0,0.0,0.0,0.0,0.0,0.0,0.0,
0.8667,2.241294853299359,2.241294853299359,3.2622857039098228,0.0,0.0,0.0,2.5816251368361804,0.0,0.0,0.0,0.0,0.0,0.0,0.0,0.0,0.0,0.0,0.0,0.0,0.0,0.0,
0.88,2.2415360331117498,2.2415360331117498,3.2630533603783163,0.0,0.0,0.0,2.582041808867272,0.0,0.0,0.0,0.0,0.0,0.0,0.0,0.0,0.0,0.0,0.0,0.0,0.0,0.0,
0.8933,2.2417810412097356,2.2417810412097356,3.263833446867498,0.0,0.0,0.0,2.5824651764289897,0.0,0.0,0.0,0.0,0.0,0.0,0.0,0.0,0.0,0.0,0.0,0.0,0.0,0.0,
0.9067,2.24203177038214,2.24203177038214,3.264632004502212,0.0,0.0,0.0,2.582898515088831,0.0,0.0,0.0,0.0,0.0,0.0,0.0,0.0,0.0,0.0,0.0,0.0,0.0,0.0,
0.92,2.2422844858103534,2.2422844858103534,3.265437150146307,0.0,0.0,0.0,2.583335373922338,0.0,0.0,0.0,0.0,0.0,0.0,0.0,0.0,0.0,0.0,0.0,0.0,0.0,0.0,
0.9333,2.242541051665074,2.242541051665074,3.266254832318873,0.0,0.0,0.0,2.583778978549674,0.0,0.0,0.0,0.0,0.0,0.0,0.0,0.0,0.0,0.0,0.0,0.0,0.0,0.0,
0.9467,2.2428034482638353,2.2428034482638353,3.2670913779261115,0.0,0.0,0.0,2.5842327581512605,0.0,0.0,0.0,0.0,0.0,0.0,0.0,0.0,0.0,0.0,0.0,0.0,0.0,0.0,
0.96,2.243067767024545,2.243067767024545,3.2679343387502886,0.0,0.0,0.0,2.584689957599793,0.0,0.0,0.0,0.0,0.0,0.0,0.0,0.0,0.0,0.0,0.0,0.0,0.0,0.0,
0.9733,2.2433359594802313,2.2433359594802313,3.26878994829897,0.0,0.0,0.0,2.585153955753144,0.0,0.0,0.0,0.0,0.0,0.0,0.0,0.0,0.0,0.0,0.0,0.0,0.0,0.0,
0.9867,2.243610094014061,2.243610094014061,3.269664821862761,0.0,0.0,0.0,2.5856283366302946,0.0,0.0,0.0,0.0,0.0,0.0,0.0,0.0,0.0,0.0,0.0,0.0,0.0,0.0,
1.0,2.2438860872348396,2.2438860872348396,3.2705459411133586,0.0,0.0,0.0,2.5861060385276793,0.0,0.0,0.0,0.0,0.0,0.0,0.0,0.0,0.0,0.0,0.0,0.0,0.0,0.0,
1.0133,2.2441659785665333,2.2441659785665333,3.2714398271083933,0.0,0.0,0.0,2.5865905947471535,0.0,0.0,0.0,0.0,0.0,0.0,0.0,0.0,0.0,0.0,0.0,0.0,0.0,0.0,
1.0267,2.244451925021398,2.244451925021398,3.2723533862609213,0.0,0.0,0.0,2.5870857454345724,0.0,0.0,0.0,0.0,0.0,0.0,0.0,0.0,0.0,0.0,0.0,0.0,0.0,0.0,
1.04,2.24473966730187,2.24473966730187,3.273273024842408,0.0,0.0,0.0,2.5875841198153826,0.0,0.0,0.0,0.0,0.0,0.0,0.0,0.0,0.0,0.0,0.0,0.0,0.0,0.0,
1.0533,2.245031333277841,2.245031333277841,3.274205554156217,0.0,0.0,0.0,2.588089406903966,0.0,0.0,0.0,0.0,0.0,0.0,0.0,0.0,0.0,0.0,0.0,0.0,0.0,0.0,
1.0667,2.2453291691808817,2.2453291691808817,3.2751581746141194,0.0,0.0,0.0,2.5886055043252942,0.0,0.0,0.0,0.0,0.0,0.0,0.0,0.0,0.0,0.0,0.0,0.0,0.0,0.0,
1.08,2.245628738657447,2.245628738657447,3.276116711530823,0.0,0.0,0.0,2.5891247296152393,0.0,0.0,0.0,0.0,0.0,0.0,0.0,0.0,0.0,0.0,0.0,0.0,0.0,0.0,
1.0933,2.245932258605003,2.245932258605003,3.2770882692882544,0.0,0.0,0.0,2.5896509288327536,0.0,0.0,0.0,0.0,0.0,0.0,0.0,0.0,0.0,0.0,0.0,0.0,0.0,0.0,
1.1067,2.246242065092143,2.246242065092143,3.278080345315354,0.0,0.0,0.0,2.59018815849988,0.0,0.0,0.0,0.0,0.0,0.0,0.0,0.0,0.0,0.0,0.0,0.0,0.0,0.0,
1.12,2.2465535435061925,2.2465535435061925,3.2790781781396356,0.0,0.0,0.0,2.59072842171734,0.0,0.0,0.0,0.0,0.0,0.0,0.0,0.0,0.0,0.0,0.0,0.0,0.0,0.0,
1.1333,2.246869000381143,2.246869000381143,3.280089168195373,0.0,0.0,0.0,2.5912757229858863,0.0,0.0,0.0,0.0,0.0,0.0,0.0,0.0,0.0,0.0,0.0,0.0,0.0,0.0,
1.1467,2.2471908622682744,2.2471908622682744,3.2811211130928433,0.0,0.0,0.0,2.5918342792097975,0.0,0.0,0.0,0.0,0.0,0.0,0.0,0.0,0.0,0.0,0.0,0.0,0.0,0.0,
1.16,2.247514335038157,2.247514335038157,3.282158658460989,0.0,0.0,0.0,2.592395776179101,0.0,0.0,0.0,0.0,0.0,0.0,0.0,0.0,0.0,0.0,0.0,0.0,0.0,0.0,
1.1733,2.2478418154980364,2.2478418154980364,3.283209503904943,0.0,0.0,0.0,2.5929643783003384,0.0,0.0,0.0,0.0,0.0,0.0,0.0,0.0,0.0,0.0,0.0,0.0,0.0,0.0,
1.1867,2.248175821356087,2.248175821356087,3.2842817505303805,0.0,0.0,0.0,2.593544464414185,0.0,0.0,0.0,0.0,0.0,0.0,0.0,0.0,0.0,0.0,0.0,0.0,0.0,0.0,
1.2,2.2485113776529104,2.2485113776529104,3.285359444667695,0.0,0.0,0.0,2.5941273999911716,0.0,0.0,0.0,0.0,0.0,0.0,0.0,0.0,0.0,0.0,0.0,0.0,0.0,0.0,
1.2133,2.248850972134081,2.248850972134081,3.2864505883599984,0.0,0.0,0.0,2.594717510876053,0.0,0.0,0.0,0.0,0.0,0.0,0.0,0.0,0.0,0.0,0.0,0.0,0.0,0.0,
1.2267,2.249197214368058,2.249197214368058,3.2875635896766124,0.0,0.0,0.0,2.5953193394709095,0.0,0.0,0.0,0.0,0.0,0.0,0.0,0.0,0.0,0.0,0.0,0.0,0.0,0.0,
1.24,2.249544947195461,2.249544947195461,3.2886818889528615,0.0,0.0,0.0,2.595923927781261,0.0,0.0,0.0,0.0,0.0,0.0,0.0,0.0,0.0,0.0,0.0,0.0,0.0,0.0,
1.2533,2.2498967499942815,2.2498967499942815,3.2898137940898375,0.0,0.0,0.0,2.5965357646928005,0.0,0.0,0.0,0.0,0.0,0.0,0.0,0.0,0.0,0.0,0.0,0.0,0.0,0.0,
1.2667,2.2502553249264152,2.2502553249264152,3.290968023747423,0.0,0.0,0.0,2.597159557866751,0.0,0.0,0.0,0.0,0.0,0.0,0.0,0.0,0.0,0.0,0.0,0.0,0.0,0.0,
1.28,2.2506153312045374,2.2506153312045374,3.292127405264287,0.0,0.0,0.0,2.5977860225577873,0.0,0.0,0.0,0.0,0.0,0.0,0.0,0.0,0.0,0.0,0.0,0.0,0.0,0.0,
1.2933,2.2509794405627024,2.2509794405627024,3.2933005559768946,0.0,0.0,0.0,2.598419812367433,0.0,0.0,0.0,0.0,0.0,0.0,0.0,0.0,0.0,0.0,0.0,0.0,0.0,0.0,
1.3067,2.2513504485199336,2.2513504485199336,3.2944965089260756,0.0,0.0,0.0,2.5990658019886475,0.0,0.0,0.0,0.0,0.0,0.0,0.0,0.0,0.0,0.0,0.0,0.0,0.0,0.0,
1.32,2.251722829173665,2.251722829173665,3.29569747113827,0.0,0.0,0.0,2.5997143764952,0.0,0.0,0.0,0.0,0.0,0.0,0.0,0.0,0.0,0.0,0.0,0.0,0.0,0.0,
1.3333,2.252099347367972,2.252099347367972,3.2969123731246666,0.0,0.0,0.0,2.6003703559535367,0.0,0.0,0.0,0.0,0.0,0.0,0.0,0.0,0.0,0.0,0.0,0.0,0.0,0.0,
1.3466,2.252480014865931,2.252480014865931,3.2981412732458995,0.0,0.0,0.0,2.601033767659254,0.0,0.0,0.0,0.0,0.0,0.0,0.0,0.0,0.0,0.0,0.0,0.0,0.0,0.0,
1.36,2.2528677528256082,2.2528677528256082,3.299393629637799,0.0,0.0,0.0,2.601709711763005,0.0,0.0,0.0,0.0,0.0,0.0,0.0,0.0,0.0,0.0,0.0,0.0,0.0,0.0,
1.3733,2.2532567862622708,2.2532567862622708,3.300650810831985,0.0,0.0,0.0,2.602388127785509,0.0,0.0,0.0,0.0,0.0,0.0,0.0,0.0,0.0,0.0,0.0,0.0,0.0,0.0,
1.3866,2.2536500053143484,2.2536500053143484,3.301922170745472,0.0,0.0,0.0,2.6030740604580562,0.0,0.0,0.0,0.0,0.0,0.0,0.0,0.0,0.0,0.0,0.0,0.0,0.0,0.0,
1.4,2.2540504264007915,2.2540504264007915,3.303217491400896,0.0,0.0,0.0,2.6037727814008265,0.0,0.0,0.0,0.0,0.0,0.0,0.0,0.0,0.0,0.0,0.0,0.0,0.0,0.0,
1.4133,2.2544520857144885,2.2544520857144885,3.3045175026790847,0.0,0.0,0.0,2.604473891369354,0.0,0.0,0.0,0.0,0.0,0.0,0.0,0.0,0.0,0.0,0.0,0.0,0.0,0.0,
1.4266,2.254857968384142,2.254857968384142,3.3058318810526233,0.0,0.0,0.0,2.6051826059403025,0.0,0.0,0.0,0.0,0.0,0.0,0.0,0.0,0.0,0.0,0.0,0.0,0.0,0.0,
1.44,2.2552711869601563,2.2552711869601563,3.3071707368048187,0.0,0.0,0.0,2.6059043702417104,0.0,0.0,0.0,0.0,0.0,0.0,0.0,0.0,0.0,0.0,0.0,0.0,0.0,0.0,
1.4533,2.25568558711811,2.25568558711811,3.308514152731794,0.0,0.0,0.0,2.606628442322671,0.0,0.0,0.0,0.0,0.0,0.0,0.0,0.0,0.0,0.0,0.0,0.0,0.0,0.0,
1.4666,2.2561042498370454,2.2561042498370454,3.309872132179102,0.0,0.0,0.0,2.6073602106177307,0.0,0.0,0.0,0.0,0.0,0.0,0.0,0.0,0.0,0.0,0.0,0.0,0.0,0.0,
1.48,2.2565303847032645,2.2565303847032645,3.3112551182522907,0.0,0.0,0.0,2.6081052958862734,0.0,0.0,0.0,0.0,0.0,0.0,0.0,0.0,0.0,0.0,0.0,0.0,0.0,0.0,
1.4933,2.2569576451144258,2.2569576451144258,3.3126425378697566,0.0,0.0,0.0,2.6088526093662026,0.0,0.0,0.0,0.0,0.0,0.0,0.0,0.0,0.0,0.0,0.0,0.0,0.0,0.0,
1.5066,2.2573892087936187,2.2573892087936187,3.314044725753435,0.0,0.0,0.0,2.609607714446891,0.0,0.0,0.0,0.0,0.0,0.0,0.0,0.0,0.0,0.0,0.0,0.0,0.0,0.0,
1.52,2.257828383302178,2.257828383302178,3.3154724625867815,0.0,0.0,0.0,2.6103764097303794,0.0,0.0,0.0,0.0,0.0,0.0,0.0,0.0,0.0,0.0,0.0,0.0,0.0,0.0,
1.5333,2.2582686279319337,2.2582686279319337,3.3169045102463697,0.0,0.0,0.0,2.611147255370079,0.0,0.0,0.0,0.0,0.0,0.0,0.0,0.0,0.0,0.0,0.0,0.0,0.0,0.0,
1.5466,2.258713218078143,2.258713218078143,3.3183515395260574,0.0,0.0,0.0,2.6119259918941142,0.0,0.0,0.0,0.0,0.0,0.0,0.0,0.0,0.0,0.0,0.0,0.0,0.0,0.0,
1.56,2.259165560251968,2.259165560251968,3.3198246736440926,0.0,0.0,0.0,2.6127185980493426,0.0,0.0,0.0,0.0,0.0,0.0,0.0,0.0,0.0,0.0,0.0,0.0,0.0,0.0,
1.5733,2.2596189177424586,2.2596189177424586,3.3213019998871016,0.0,0.0,0.0,2.6135132784573396,0.0,0.0,0.0,0.0,0.0,0.0,0.0,0.0,0.0,0.0,0.0,0.0,0.0,0.0,
1.5866,2.260076664580498,2.260076664580498,3.3227945300155985,0.0,0.0,0.0,2.6143159530588647,0.0,0.0,0.0,0.0,0.0,0.0,0.0,0.0,0.0,0.0,0.0,0.0,0.0,0.0,
1.6,2.2605423072385347,2.2605423072385347,3.3243137349477356,0.0,0.0,0.0,2.615132783141602,0.0,0.0,0.0,0.0,0.0,0.0,0.0,0.0,0.0,0.0,0.0,0.0,0.0,0.0,
1.6133,2.2610089110349216,2.2610089110349216,3.3258370174347864,0.0,0.0,0.0,2.61595161316821,0.0,0.0,0.0,0.0,0.0,0.0,0.0,0.0,0.0,0.0,0.0,0.0,0.0,0.0,
1.6266,2.261479949636035,2.261479949636035,3.3273757353047433,0.0,0.0,0.0,2.616778544858938,0.0,0.0,0.0,0.0,0.0,0.0,0.0,0.0,0.0,0.0,0.0,0.0,0.0,0.0,
1.64,2.261959030524591,2.261959030524591,3.3289417125568384,0.0,0.0,0.0,2.61761992453534,0.0,0.0,0.0,0.0,0.0,0.0,0.0,0.0,0.0,0.0,0.0,0.0,0.0,0.0,
1.6533,2.2624390190076027,2.2624390190076027,3.3305116570500157,0.0,0.0,0.0,2.618463231688407,0.0,0.0,0.0,0.0,0.0,0.0,0.0,0.0,0.0,0.0,0.0,0.0,0.0,0.0,
1.6666,2.2629234894240513,2.2629234894240513,3.3320972779943894,0.0,0.0,0.0,2.6193147522808307,0.0,0.0,0.0,0.0,0.0,0.0,0.0,0.0,0.0,0.0,0.0,0.0,0.0,0.0,
1.68,2.263416151354702,2.263416151354702,3.333710758075374,0.0,0.0,0.0,2.6201810202615925,0.0,0.0,0.0,0.0,0.0,0.0,0.0,0.0,0.0,0.0,0.0,0.0,0.0,0.0,
1.6933,2.263909667979661,2.263909667979661,3.3353280994762784,0.0,0.0,0.0,2.6210491451452,0.0,0.0,0.0,0.0,0.0,0.0,0.0,0.0,0.0,0.0,0.0,0.0,0.0,0.0,
1.7066,2.264407715386054,2.264407715386054,3.3369613683255452,0.0,0.0,0.0,2.6219255996992175,0.0,0.0,0.0,0.0,0.0,0.0,0.0,0.0,0.0,0.0,0.0,0.0,0.0,0.0,
1.72,2.2649141063802674,2.2649141063802674,3.3386231118325003,0.0,0.0,0.0,2.6228171081976783,0.0,0.0,0.0,0.0,0.0,0.0,0.0,0.0,0.0,0.0,0.0,0.0,0.0,0.0,
1.7333,2.2654212998230108,2.2654212998230108,3.3402886152793156,0.0,0.0,0.0,2.6237104049751125,0.0,0.0,0.0,0.0,0.0,0.0,0.0,0.0,0.0,0.0,0.0,0.0,0.0,0.0,
1.7466,2.265933074664539,2.265933074664539,3.341970307479082,0.0,0.0,0.0,2.624612152269387,0.0,0.0,0.0,0.0,0.0,0.0,0.0,0.0,0.0,0.0,0.0,0.0,0.0,0.0,
