energies(eV),real_xx,real_yy,real_zz,real_xy,real_yz,real_xz,real_ave,imag_xx,imag_yy,imag_zz,imag_xy,imag_yz,imag_xz,imag_ave,absorption_xx,absorption_yy,absorption_zz,absorption_xy,absorption_yz,absorption_xz,absorption_ave,band_gap
0.0,2.1797756526302807,2.170828844837711,2.039005444365658,0.0,0.0,0.0,2.1298699806112165,0.0,0.0,0.0,0.0,0.0,0.0,0.0,0.0,0.0,0.0,0.0,0.0,0.0,0.0,8.531500000000001
0.0167,2.1797770411692454,2.1708302083401403,2.039006563063297,0.0,0.0,0.0,2.129871270857561,0.0,0.0,0.0,0.0,0.0,0.0,0.0,0.0,0.0,0.0,0.0,0.0,0.0,0.0,
0.0335,2.1797812401212258,2.1708343315812795,2.0390099460103372,0.0,0.0,0.0,2.1298751725709475,0.0,0.0,0.0,0.0,0.0,0.0,0.0,0.0,0.0,0.0,0.0,0.0,0.0,0.0,
0.0502,2.1797881995788257,2.1708411655530284,2.0390155529897633,0.0,0.0,0.0,2.1298816393738726,0.0,0.0,0.0,0.0,0.0,0.0,0.0,0.0,0.0,0.0,0.0,0.0,0.0,0.0,
0.067,2.1797980030234934,2.1708507922306257,2.0390234512453866,0.0,0.0,0.0,2.129890748833169,0.0,0.0,0.0,0.0,0.0,0.0,0.0,0.0,0.0,0.0,0.0,0.0,0.0,0.0,
0.0837,2.17981053393462,2.1708630971931493,2.03903354688149,0.0,0.0,0.0,2.129902392669753,0.0,0.0,0.0,0.0,0.0,0.0,0.0,0.0,0.0,0.0,0.0,0.0,0.0,0.0,
0.1004,2.1798258425899113,2.1708781298100366,2.0390458803798523,0.0,0.0,0.0,2.129916617593267,0.0,0.0,0.0,0.0,0.0,0.0,0.0,0.0,0.0,0.0,0.0,0.0,0.0,0.0,
0.1172,2.1798440459533093,2.1708960049340758,2.039060545941715,0.0,0.0,0.0,2.129933532276367,0.0,0.0,0.0,0.0,0.0,0.0,0.0,0.0,0.0,0.0,0.0,0.0,0.0,0.0,
0.1339,2.1798649276655047,2.17091651010484,2.0390773692205526,0.0,0.0,0.0,2.1299529356636326,0.0,0.0,0.0,0.0,0.0,0.0,0.0,0.0,0.0,0.0,0.0,0.0,0.0,0.0,
0.1507,2.179888738211056,2.1709398912872526,2.0390965519760096,0.0,0.0,0.0,2.1299750604914394,0.0,0.0,0.0,0.0,0.0,0.0,0.0,0.0,0.0,0.0,0.0,0.0,0.0,0.0,
0.1674,2.179915194585578,2.170965870576996,2.0391178661605,0.0,0.0,0.0,2.129999643774358,0.0,0.0,0.0,0.0,0.0,0.0,0.0,0.0,0.0,0.0,0.0,0.0,0.0,0.0,
0.1841,2.179944430703958,2.1709945794705603,2.0391414196087325,0.0,0.0,0.0,2.13002680992775,0.0,0.0,0.0,0.0,0.0,0.0,0.0,0.0,0.0,0.0,0.0,0.0,0.0,0.0,
0.2009,2.1799766472153657,2.1710262149946455,2.03916737390857,0.0,0.0,0.0,2.1300567453728605,0.0,0.0,0.0,0.0,0.0,0.0,0.0,0.0,0.0,0.0,0.0,0.0,0.0,0.0,
0.2176,2.1800114612050936,2.1710604011355903,2.03919542051137,0.0,0.0,0.0,2.130089094284018,0.0,0.0,0.0,0.0,0.0,0.0,0.0,0.0,0.0,0.0,0.0,0.0,0.0,0.0,
0.2344,2.180049290281395,2.171097547965563,2.0392258957770717,0.0,0.0,0.0,2.130124244674677,0.0,0.0,0.0,0.0,0.0,0.0,0.0,0.0,0.0,0.0,0.0,0.0,0.0,0.0,
0.2511,2.1800896848207127,2.1711372139648435,2.0392584374112346,0.0,0.0,0.0,2.1301617787322638,0.0,0.0,0.0,0.0,0.0,0.0,0.0,0.0,0.0,0.0,0.0,0.0,0.0,0.0,
0.2678,2.1801328624398426,2.1711796128200893,2.0392932206468197,0.0,0.0,0.0,2.1302018986355837,0.0,0.0,0.0,0.0,0.0,0.0,0.0,0.0,0.0,0.0,0.0,0.0,0.0,0.0,
0.2846,2.180179107570084,2.1712250238263437,2.039330474526108,0.0,0.0,0.0,2.1302448686408453,0.0,0.0,0.0,0.0,0.0,0.0,0.0,0.0,0.0,0.0,0.0,0.0,0.0,0.0,
0.3013,2.1802278705580243,2.1712729072380346,2.039369756169808,0.0,0.0,0.0,2.130290177988622,0.0,0.0,0.0,0.0,0.0,0.0,0.0,0.0,0.0,0.0,0.0,0.0,0.0,0.0,
0.3181,2.180279736336815,2.1713238374307,2.039411536679012,0.0,0.0,0.0,2.1303383701488428,0.0,0.0,0.0,0.0,0.0,0.0,0.0,0.0,0.0,0.0,0.0,0.0,0.0,0.0,
0.3348,2.180334088448424,2.171377209059318,2.0394553193614726,0.0,0.0,0.0,2.130388872289738,0.0,0.0,0.0,0.0,0.0,0.0,0.0,0.0,0.0,0.0,0.0,0.0,0.0,0.0,
0.3515,2.180391228316801,2.1714333181033068,2.0395013469220196,0.0,0.0,0.0,2.130441964447376,0.0,0.0,0.0,0.0,0.0,0.0,0.0,0.0,0.0,0.0,0.0,0.0,0.0,0.0,
0.3683,2.1804515242928777,2.1714925262601,2.0395499159535593,0.0,0.0,0.0,2.1304979888355127,0.0,0.0,0.0,0.0,0.0,0.0,0.0,0.0,0.0,0.0,0.0,0.0,0.0,0.0,
0.385,2.180514259721182,2.1715541297954766,2.0396004490614965,0.0,0.0,0.0,2.1305562795260515,0.0,0.0,0.0,0.0,0.0,0.0,0.0,0.0,0.0,0.0,0.0,0.0,0.0,0.0,
0.4018,2.180580187141847,2.171618867663316,2.039653552285581,0.0,0.0,0.0,2.130617535696915,0.0,0.0,0.0,0.0,0.0,0.0,0.0,0.0,0.0,0.0,0.0,0.0,0.0,0.0,
0.4185,2.180648522966889,2.1716859704052354,2.039708594328586,0.0,0.0,0.0,2.13068102923357,0.0,0.0,0.0,0.0,0.0,0.0,0.0,0.0,0.0,0.0,0.0,0.0,0.0,0.0,
0.4352,2.180719652573307,2.1717558164356454,2.039765885469256,0.0,0.0,0.0,2.130747118159403,0.0,0.0,0.0,0.0,0.0,0.0,0.0,0.0,0.0,0.0,0.0,0.0,0.0,0.0,
0.452,2.1807940284099705,2.1718288500281844,2.039825789975855,0.0,0.0,0.0,2.1308162228046696,0.0,0.0,0.0,0.0,0.0,0.0,0.0,0.0,0.0,0.0,0.0,0.0,0.0,0.0,
0.4687,2.180870766475582,2.1719042031248046,2.0398875956975,0.0,0.0,0.0,2.130887521765962,0.0,0.0,0.0,0.0,0.0,0.0,0.0,0.0,0.0,0.0,0.0,0.0,0.0,0.0,
0.4854,2.180950302585912,2.171982303665981,2.039951653501981,0.0,0.0,0.0,2.130961419917958,0.0,0.0,0.0,0.0,0.0,0.0,0.0,0.0,0.0,0.0,0.0,0.0,0.0,0.0,
0.5022,2.181033139731083,2.1720636455513676,2.0400183683183233,0.0,0.0,0.0,2.1310383845335914,0.0,0.0,0.0,0.0,0.0,0.0,0.0,0.0,0.0,0.0,0.0,0.0,0.0,0.0,
0.5189,2.1811182933437596,2.1721472619743563,2.040086947034969,0.0,0.0,0.0,2.1311175007843617,0.0,0.0,0.0,0.0,0.0,0.0,0.0,0.0,0.0,0.0,0.0,0.0,0.0,0.0,
0.5357,2.1812067848848278,2.1722341559446408,2.0401582121138495,0.0,0.0,0.0,2.131199717647773,0.0,0.0,0.0,0.0,0.0,0.0,0.0,0.0,0.0,0.0,0.0,0.0,0.0,0.0,
0.5524,2.1812975625824884,2.1723232946663638,2.0402313163502344,0.0,0.0,0.0,2.1312840578663623,0.0,0.0,0.0,0.0,0.0,0.0,0.0,0.0,0.0,0.0,0.0,0.0,0.0,0.0,
0.5691,2.1813911465240583,2.1724151888254415,2.040306678408511,0.0,0.0,0.0,2.1313710045860037,0.0,0.0,0.0,0.0,0.0,0.0,0.0,0.0,0.0,0.0,0.0,0.0,0.0,0.0,
0.5859,2.1814881241683626,2.1725104152591443,2.040384771152258,0.0,0.0,0.0,2.1314611035265885,0.0,0.0,0.0,0.0,0.0,0.0,0.0,0.0,0.0,0.0,0.0,0.0,0.0,0.0,
0.6026,2.1815873428837973,2.1726078421366632,2.0404646662102897,0.0,0.0,0.0,2.131553283743583,0.0,0.0,0.0,0.0,0.0,0.0,0.0,0.0,0.0,0.0,0.0,0.0,0.0,0.0,
0.6194,2.1816899928532867,2.1727086381330514,2.040547321763308,0.0,0.0,0.0,2.131648650916549,0.0,0.0,0.0,0.0,0.0,0.0,0.0,0.0,0.0,0.0,0.0,0.0,0.0,0.0,
0.6361,2.181794854028362,2.172811605221161,2.0406317551982043,0.0,0.0,0.0,2.1317460714825756,0.0,0.0,0.0,0.0,0.0,0.0,0.0,0.0,0.0,0.0,0.0,0.0,0.0,0.0,
0.6528,2.1819025310205697,2.1729173370786725,2.0407184531525546,0.0,0.0,0.0,2.1318461070839323,0.0,0.0,0.0,0.0,0.0,0.0,0.0,0.0,0.0,0.0,0.0,0.0,0.0,0.0,
0.6696,2.1820136960431946,2.1730264937590222,2.040807956624131,0.0,0.0,0.0,2.1319493821421163,0.0,0.0,0.0,0.0,0.0,0.0,0.0,0.0,0.0,0.0,0.0,0.0,0.0,0.0,
0.6863,2.1821270278449516,2.173137777865761,2.040899201593219,0.0,0.0,0.0,2.1320546691013105,0.0,0.0,0.0,0.0,0.0,0.0,0.0,0.0,0.0,0.0,0.0,0.0,0.0,0.0,
0.7031,2.1822438859082496,2.1732525243021446,2.0409932823629546,0.0,0.0,0.0,2.132163230857783,0.0,0.0,0.0,0.0,0.0,0.0,0.0,0.0,0.0,0.0,0.0,0.0,0.0,0.0,
0.7198,2.182362881319486,2.173369369236135,2.041089080499923,0.0,0.0,0.0,2.132273777018515,0.0,0.0,0.0,0.0,0.0,0.0,0.0,0.0,0.0,0.0,0.0,0.0,0.0,0.0,
0.7365,2.18248470350888,2.1734889896241354,2.0411871508205213,0.0,0.0,0.0,2.132386947984512,0.0,0.0,0.0,0.0,0.0,0.0,0.0,0.0,0.0,0.0,0.0,0.0,0.0,0.0,
0.7533,2.182610109771911,2.173612129055225,2.0412881026855656,0.0,0.0,0.0,2.1325034471709006,0.0,0.0,0.0,0.0,0.0,0.0,0.0,0.0,0.0,0.0,0.0,0.0,0.0,0.0,
0.77,2.1827376095994806,2.1737373239452413,2.0413907359802383,0.0,0.0,0.0,2.1326218898416536,0.0,0.0,0.0,0.0,0.0,0.0,0.0,0.0,0.0,0.0,0.0,0.0,0.0,0.0,
0.7868,2.1828687324346303,2.1738660760701105,2.041496281592046,0.0,0.0,0.0,2.132743696698929,0.0,0.0,0.0,0.0,0.0,0.0,0.0,0.0,0.0,0.0,0.0,0.0,0.0,0.0,
0.8035,2.18300191982715,2.1739968551383386,2.0416034847974425,0.0,0.0,0.0,2.1328674199209767,0.0,0.0,0.0,0.0,0.0,0.0,0.0,0.0,0.0,0.0,0.0,0.0,0.0,0.0,
0.8202,2.183137946362404,2.17413042171302,2.0417129688265425,0.0,0.0,0.0,2.132993778967322,0.0,0.0,0.0,0.0,0.0,0.0,0.0,0.0,0.0,0.0,0.0,0.0,0.0,0.0,
0.837,2.183277654788342,2.174267603279758,2.041825411661589,0.0,0.0,0.0,2.1331235565765634,0.0,0.0,0.0,0.0,0.0,0.0,0.0,0.0,0.0,0.0,0.0,0.0,0.0,0.0,
0.8537,2.1834193846162715,2.174406769363128,2.0419394765878476,0.0,0.0,0.0,2.1332552101890823,0.0,0.0,0.0,0.0,0.0,0.0,0.0,0.0,0.0,0.0,0.0,0.0,0.0,0.0,
0.8705,2.183564835995701,2.17454958933868,2.042056531597954,0.0,0.0,0.0,2.1333903189774452,0.0,0.0,0.0,0.0,0.0,0.0,0.0,0.0,0.0,0.0,0.0,0.0,0.0,0.0,
0.8872,2.183712280184284,2.1746943657189783,2.042175185149956,0.0,0.0,0.0,2.1335272770177394,0.0,0.0,0.0,0.0,0.0,0.0,0.0,0.0,0.0,0.0,0.0,0.0,0.0,0.0,
0.9039,2.1838625773016282,2.174841943043349,2.0422961291521724,0.0,0.0,0.0,2.1336668831657164,0.0,0.0,0.0,0.0,0.0,0.0,0.0,0.0,0.0,0.0,0.0,0.0,0.0,0.0,
0.9207,2.1840166559614422,2.174993233096726,2.0424201104964466,0.0,0.0,0.0,2.1338099998515383,0.0,0.0,0.0,0.0,0.0,0.0,0.0,0.0,0.0,0.0,0.0,0.0,0.0,0.0,
0.9374,2.1841726848890106,2.175146437726312,2.0425456553044854,0.0,0.0,0.0,2.1339549259732693,0.0,0.0,0.0,0.0,0.0,0.0,0.0,0.0,0.0,0.0,0.0,0.0,0.0,0.0,
0.9542,2.184332535771862,2.175303394717834,2.042674269254297,0.0,0.0,0.0,2.134103399914664,0.0,0.0,0.0,0.0,0.0,0.0,0.0,0.0,0.0,0.0,0.0,0.0,0.0,0.0,
0.9709,2.1844943087349034,2.1754622385685134,2.0428044233981373,0.0,0.0,0.0,2.134253656900518,0.0,0.0,0.0,0.0,0.0,0.0,0.0,0.0,0.0,0.0,0.0,0.0,0.0,0.0,
0.9876,2.184658949854218,2.175623898205428,2.042936878616908,0.0,0.0,0.0,2.1344065755588515,0.0,0.0,0.0,0.0,0.0,0.0,0.0,0.0,0.0,0.0,0.0,0.0,0.0,0.0,
1.0044,2.184827474066197,2.1757893701581805,2.0430724510303913,0.0,0.0,0.0,2.134563098418256,0.0,0.0,0.0,0.0,0.0,0.0,0.0,0.0,0.0,0.0,0.0,0.0,0.0,0.0,
1.0211,2.184997878417825,2.1759566877268868,2.043209528973603,0.0,0.0,0.0,2.134721365039438,0.0,0.0,0.0,0.0,0.0,0.0,0.0,0.0,0.0,0.0,0.0,0.0,0.0,0.0,
1.0379,2.1851722070532364,2.176127858002732,2.043349756450306,0.0,0.0,0.0,2.134883273835425,0.0,0.0,0.0,0.0,0.0,0.0,0.0,0.0,0.0,0.0,0.0,0.0,0.0,0.0,
1.0546,2.185348388037567,2.1763008465640263,2.043491466459807,0.0,0.0,0.0,2.1350469003538,0.0,0.0,0.0,0.0,0.0,0.0,0.0,0.0,0.0,0.0,0.0,0.0,0.0,0.0,
1.0713,2.185527453869441,2.176476667179828,2.0436354891801862,0.0,0.0,0.0,2.1352132034098186,0.0,0.0,0.0,0.0,0.0,0.0,0.0,0.0,0.0,0.0,0.0,0.0,0.0,0.0,
1.0881,2.1857105063091495,2.1766564016128953,2.0437827103081077,0.0,0.0,0.0,2.1353832060767175,0.0,0.0,0.0,0.0,0.0,0.0,0.0,0.0,0.0,0.0,0.0,0.0,0.0,0.0,
1.1048,2.1858953697459658,2.17683791366162,2.0439313797084475,0.0,0.0,0.0,2.1355548877053443,0.0,0.0,0.0,0.0,0.0,0.0,0.0,0.0,0.0,0.0,0.0,0.0,0.0,0.0,
1.1216,2.1860842617875225,2.1770233807040063,2.0440832804121136,0.0,0.0,0.0,2.1357303076345473,0.0,0.0,0.0,0.0,0.0,0.0,0.0,0.0,0.0,0.0,0.0,0.0,0.0,0.0,
1.1383,2.1862749374245185,2.177210598410449,2.0442366066576705,0.0,0.0,0.0,2.1359073808308793,0.0,0.0,0.0,0.0,0.0,0.0,0.0,0.0,0.0,0.0,0.0,0.0,0.0,0.0,
1.155,2.1864685160885973,2.1774006658895066,2.044392258275643,0.0,0.0,0.0,2.1360871467512488,0.0,0.0,0.0,0.0,0.0,0.0,0.0,0.0,0.0,0.0,0.0,0.0,0.0,0.0,
1.1718,2.1866661869102444,2.17759475066949,2.044551190919514,0.0,0.0,0.0,2.1362707094997497,0.0,0.0,0.0,0.0,0.0,0.0,0.0,0.0,0.0,0.0,0.0,0.0,0.0,0.0,
1.1885,2.186865600553052,2.1777905460061784,2.044711515239487,0.0,0.0,0.0,2.1364558872662394,0.0,0.0,0.0,0.0,0.0,0.0,0.0,0.0,0.0,0.0,0.0,0.0,0.0,0.0,
1.2053,2.1870691491848486,2.1779904006331767,2.044875154056802,0.0,0.0,0.0,2.1366449012916093,0.0,0.0,0.0,0.0,0.0,0.0,0.0,0.0,0.0,0.0,0.0,0.0,0.0,0.0,
1.222,2.1872744136180566,2.1781919392371583,2.04504016208003,0.0,0.0,0.0,2.1368355049784147,0.0,0.0,0.0,0.0,0.0,0.0,0.0,0.0,0.0,0.0,0.0,0.0,0.0,0.0,
1.2387,2.1874826007730475,2.1783963468077125,2.0452075091785042,0.0,0.0,0.0,2.1370288189197546,0.0,0.0,0.0,0.0,0.0,0.0,0.0,0.0,0.0,0.0,0.0,0.0,0.0,0.0,
1.2555,2.187694987742663,2.1786048772157924,2.0453782213739427,0.0,0.0,0.0,2.137226028777466,0.0,0.0,0.0,0.0,0.0,0.0,0.0,0.0,0.0,0.0,0.0,0.0,0.0,0.0,
1.2722,2.187909050306722,2.178815052045832,2.0455502692952883,0.0,0.0,0.0,2.1374247905492805,0.0,0.0,0.0,0.0,0.0,0.0,0.0,0.0,0.0,0.0,0.0,0.0,0.0,0.0,
1.2889,2.188126048143652,2.1790281080739717,2.045724665016919,0.0,0.0,0.0,2.1376262737448477,0.0,0.0,0.0,0.0,0.0,0.0,0.0,0.0,0.0,0.0,0.0,0.0,0.0,0.0,
1.3057,2.188347311406157,2.179245351251839,2.045902476975291,0.0,0.0,0.0,2.1378317132110958,0.0,0.0,0.0,0.0,0.0,0.0,0.0,0.0,0.0,0.0,0.0,0.0,0.0,0.0,
1.3224,2.188570210391908,2.1794641996234905,2.046081591406966,0.0,0.0,0.0,2.1380386671407883,0.0,0.0,0.0,0.0,0.0,0.0,0.0,0.0,0.0,0.0,0.0,0.0,0.0,0.0,
1.3392,2.1887974190327477,2.1796872784961128,2.0462641565084345,0.0,0.0,0.0,2.1382496180124315,0.0,0.0,0.0,0.0,0.0,0.0,0.0,0.0,0.0,0.0,0.0,0.0,0.0,0.0,
1.3559,2.1890262369747844,2.17991193656466,2.046448002017799,0.0,0.0,0.0,2.138462058519081,0.0,0.0,0.0,0.0,0.0,0.0,0.0,0.0,0.0,0.0,0.0,0.0,0.0,0.0,
1.3726,2.1892580123703325,2.1801394974463353,2.0466342107322557,0.0,0.0,0.0,2.138677240182975,0.0,0.0,0.0,0.0,0.0,0.0,0.0,0.0,0.0,0.0,0.0,0.0,0.0,0.0,
1.3894,2.189494164379407,2.180371354453653,2.0468239221813813,0.0,0.0,0.0,2.138896480338147,0.0,0.0,0.0,0.0,0.0,0.0,0.0,0.0,0.0,0.0,0.0,0.0,0.0,0.0,
1.4061,2.189731886371457,2.180604751966918,2.047014881158631,0.0,0.0,0.0,2.1391171731656686,0.0,0.0,0.0,0.0,0.0,0.0,0.0,0.0,0.0,0.0,0.0,0.0,0.0,0.0,
1.4229,2.1899740301220634,2.180842489848766,2.047209377931397,0.0,0.0,0.0,2.1393419659674087,0.0,0.0,0.0,0.0,0.0,0.0,0.0,0.0,0.0,0.0,0.0,0.0,0.0,0.0,
1.4396,2.1902177177999755,2.181081742595229,2.0474051004131857,0.0,0.0,0.0,2.1395681869361303,0.0,0.0,0.0,0.0,0.0,0.0,0.0,0.0,0.0,0.0,0.0,0.0,0.0,0.0,
1.4563,2.190464386708758,2.1813239213246405,2.0476032025935837,0.0,0.0,0.0,2.1397971702089937,0.0,0.0,0.0,0.0,0.0,0.0,0.0,0.0,0.0,0.0,0.0,0.0,0.0,0.0,
1.4731,2.190715545731503,2.181570507407826,2.0478048955910855,0.0,0.0,0.0,2.1400303162434717,0.0,0.0,0.0,0.0,0.0,0.0,0.0,0.0,0.0,0.0,0.0,0.0,0.0,0.0,
1.4898,2.1909682099086387,2.1818185701962634,2.048007781783285,0.0,0.0,0.0,2.1402648539627287,0.0,0.0,0.0,0.0,0.0,0.0,0.0,0.0,0.0,0.0,0.0,0.0,0.0,0.0,
1.5066,2.1912254102940807,2.182071085505915,2.0482142945027406,0.0,0.0,0.0,2.1405035967675787,0.0,0.0,0.0,0.0,0.0,0.0,0.0,0.0,0.0,0.0,0.0,0.0,0.0,0.0,
1.5233,2.1914840901398374,2.182325052231275,2.048421978839337,0.0,0.0,0.0,2.1407437070701496,0.0,0.0,0.0,0.0,0.0,0.0,0.0,0.0,0.0,0.0,0.0,0.0,0.0,0.0,
1.54,2.19174577662666,2.1825819696991298,2.0486320604777153,0.0,0.0,0.0,2.140986602267835,0.0,0.0,0.0,0.0,0.0,0.0,0.0,0.0,0.0,0.0,0.0,0.0,0.0,0.0,
1.5568,2.1920120691259495,2.1828434080842025,2.0488458226545836,0.0,0.0,0.0,2.141233766621579,0.0,0.0,0.0,0.0,0.0,0.0,0.0,0.0,0.0,0.0,0.0,0.0,0.0,0.0,
1.5735,2.1922798028512838,2.1831062602495948,2.0490607242928918,0.0,0.0,0.0,2.14148226246459,0.0,0.0,0.0,0.0,0.0,0.0,0.0,0.0,0.0,0.0,0.0,0.0,0.0,0.0,
1.5903,2.192552189668096,2.1833736794584704,2.049279342851574,0.0,0.0,0.0,2.1417350706593803,0.0,0.0,0.0,0.0,0.0,0.0,0.0,0.0,0.0,0.0,0.0,0.0,0.0,0.0,
1.607,2.192825992374372,2.1836424875058302,2.0494990795313317,0.0,0.0,0.0,2.141989186470511,0.0,0.0,0.0,0.0,0.0,0.0,0.0,0.0,0.0,0.0,0.0,0.0,0.0,0.0,
1.6237,2.1931028288036902,2.1839142726826157,2.0497212322481544,0.0,0.0,0.0,2.14224611124482,0.0,0.0,0.0,0.0,0.0,0.0,0.0,0.0,0.0,0.0,0.0,0.0,0.0,0.0,
1.6405,2.1933843896316167,2.184190694762325,2.0499471569205094,0.0,0.0,0.0,2.1425074137714835,0.0,0.0,0.0,0.0,0.0,0.0,0.0,0.0,0.0,0.0,0.0,0.0,0.0,0.0,
1.6572,2.1936673286477615,2.1844684685634865,2.050174167910584,0.0,0.0,0.0,2.142769988373944,0.0,0.0,0.0,0.0,0.0,0.0,0.0,0.0,0.0,0.0,0.0,0.0,0.0,0.0,
1.674,2.193955040163205,2.184750926388592,2.050404987933165,0.0,0.0,0.0,2.1430369848283206,0.0,0.0,0.0,0.0,0.0,0.0,0.0,0.0,0.0,0.0,0.0,0.0,0.0,0.0,
1.6907,2.194244104884391,2.185034711337601,2.050636873166261,0.0,0.0,0.0,2.1433052297960846,0.0,0.0,0.0,0.0,0.0,0.0,0.0,0.0,0.0,0.0,0.0,0.0,0.0,0.0,
1.7074,2.194536232124249,2.1853215014708747,2.0508711943279487,0.0,0.0,0.0,2.1435763093076905,0.0,0.0,0.0,0.0,0.0,0.0,0.0,0.0,0.0,0.0,0.0,0.0,0.0,0.0,
1.7242,2.194833204730255,2.185613047006049,2.051109380616948,0.0,0.0,0.0,2.143851877451084,0.0,0.0,0.0,0.0,0.0,0.0,0.0,0.0,0.0,0.0,0.0,0.0,0.0,0.0,
1.7409,2.195131493369248,2.18590588306187,2.0513486006597517,0.0,0.0,0.0,2.14412865903029,0.0,0.0,0.0,0.0,0.0,0.0,0.0,0.0,0.0,0.0,0.0,0.0,0.0,0.0,
1.7577,2.1954346765355304,2.1862035226729826,2.0515917236262586,0.0,0.0,0.0,2.144409974278257,0.0,0.0,0.0,0.0,0.0,0.0,0.0,0.0,0.0,0.0,0.0,0.0,0.0,0.0,
1.7744,2.1957391511037283,2.18650242854876,2.051835859468926,0.0,0.0,0.0,2.144692479707138,0.0,0.0,0.0,0.0,0.0,0.0,0.0,0.0,0.0,0.0,0.0,0.0,0.0,0.0,
1.7911,2.1960467187448316,2.186804369375017,2.052082452313737,0.0,0.0,0.0,2.1449778468111953,0.0,0.0,0.0,0.0,0.0,0.0,0.0,0.0,0.0,0.0,0.0,0.0,0.0,0.0,
1.8079,2.196359255399285,2.187111186710755,2.0523330052738924,0.0,0.0,0.0,2.1452678157946443,0.0,0.0,0.0,0.0,0.0,0.0,0.0,0.0,0.0,0.0,0.0,0.0,0.0,0.0,
1.8246,2.1966730468079048,2.1874192342181193,2.052584539995037,0.0,0.0,0.0,2.145558940340354,0.0,0.0,0.0,0.0,0.0,0.0,0.0,0.0,0.0,0.0,0.0,0.0,0.0,0.0,
1.8414,2.1969918574920735,2.1877322074601318,2.052840073372688,0.0,0.0,0.0,2.1458547127749648,0.0,0.0,0.0,0.0,0.0,0.0,0.0,0.0,0.0,0.0,0.0,0.0,0.0,0.0,
1.8581,2.1973118986488185,2.1880463869573648,2.053096567860017,0.0,0.0,0.0,2.1461516178220665,0.0,0.0,0.0,0.0,0.0,0.0,0.0,0.0,0.0,0.0,0.0,0.0,0.0,0.0,
1.8748,2.197635065239503,2.1883636329292546,2.053355541632599,0.0,0.0,0.0,2.1464514132671186,0.0,0.0,0.0,0.0,0.0,0.0,0.0,0.0,0.0,0.0,0.0,0.0,0.0,0.0,
1.8916,2.197963327273295,2.1886858792266546,2.0536185723889964,0.0,0.0,0.0,2.1467559262963154,0.0,0.0,0.0,0.0,0.0,0.0,0.0,0.0,0.0,0.0,0.0,0.0,0.0,0.0,
1.9083,2.198292783654612,2.1890092961940057,2.0538825334768562,0.0,0.0,0.0,2.147061537775158,0.0,0.0,0.0,0.0,0.0,0.0,0.0,0.0,0.0,0.0,0.0,0.0,0.0,0.0,
1.9251,2.1986273868848802,2.1893377638251,2.0541505908608793,0.0,0.0,0.0,2.1473719138569534,0.0,0.0,0.0,0.0,0.0,0.0,0.0,0.0,0.0,0.0,0.0,0.0,0.0,0.0,
1.9418,2.198963160529376,2.189667378548055,2.054419558148567,0.0,0.0,0.0,2.147683365741999,0.0,0.0,0.0,0.0,0.0,0.0,0.0,0.0,0.0,0.0,0.0,0.0,0.0,0.0,
1.9585,2.1993020938272223,2.1900000930776935,2.054691028243611,0.0,0.0,0.0,2.147997738382842,0.0,0.0,0.0,0.0,0.0,0.0,0.0,0.0,0.0,0.0,0.0,0.0,0.0,0.0,
1.9753,2.1996462518883937,2.190337934561941,2.0549666541382168,0.0,0.0,0.0,2.1483169468628502,0.0,0.0,0.0,0.0,0.0,0.0,0.0,0.0,0.0,0.0,0.0,0.0,0.0,0.0,
1.992,2.199991544760274,2.1906768880592407,2.0552431594913205,0.0,0.0,0.0,2.1486371974369454,0.0,0.0,0.0,0.0,0.0,0.0,0.0,0.0,0.0,0.0,0.0,0.0,0.0,0.0,
2.0088,2.2003421149896027,2.191021020005747,2.055523860755078,0.0,0.0,0.0,2.148962331916809,0.0,0.0,0.0,0.0,0.0,0.0,0.0,0.0,0.0,0.0,0.0,0.0,0.0,0.0,
2.0255,2.2006937964442983,2.1913662407250376,2.0558054212706196,0.0,0.0,0.0,2.1492884861466517,0.0,0.0,0.0,0.0,0.0,0.0,0.0,0.0,0.0,0.0,0.0,0.0,0.0,0.0,
2.0422,2.2010486736852544,2.1917145964441564,2.0560895093859353,0.0,0.0,0.0,2.149617593171782,0.0,0.0,0.0,0.0,0.0,0.0,0.0,0.0,0.0,0.0,0.0,0.0,0.0,0.0,
2.059,2.2014089080133528,2.1920682086698022,2.0563778541335624,0.0,0.0,0.0,2.1499516569389057,0.0,0.0,0.0,0.0,0.0,0.0,0.0,0.0,0.0,0.0,0.0,0.0,0.0,0.0,
2.0757,2.2017702184848984,2.1924228750957306,2.05666702801755,0.0,0.0,0.0,2.150286707199393,0.0,0.0,0.0,0.0,0.0,0.0,0.0,0.0,0.0,0.0,0.0,0.0,0.0,0.0,
2.0924,2.2021347473561237,2.1927806985453455,2.0569587449940165,0.0,0.0,0.0,2.1506247302984955,0.0,0.0,0.0,0.0,0.0,0.0,0.0,0.0,0.0,0.0,0.0,0.0,0.0,0.0,
2.1092,2.202504714167204,2.1931438576514606,2.0572547800761125,0.0,0.0,0.0,2.150967783964926,0.0,0.0,0.0,0.0,0.0,0.0,0.0,0.0,0.0,0.0,0.0,0.0,0.0,0.0,
2.1259,2.2028757223531974,2.1935080366894537,2.0575516143755745,0.0,0.0,0.0,2.1513117911394084,0.0,0.0,0.0,0.0,0.0,0.0,0.0,0.0,0.0,0.0,0.0,0.0,0.0,0.0,
2.1427,2.203252223072443,2.1938776048237596,2.0578528082298977,0.0,0.0,0.0,2.1516608787087,0.0,0.0,0.0,0.0,0.0,0.0,0.0,0.0,0.0,0.0,0.0,0.0,0.0,0.0,
2.1594,2.203629742139216,2.194248170191096,2.058154781444598,0.0,0.0,0.0,2.15201089792497,0.0,0.0,0.0,0.0,0.0,0.0,0.0,0.0,0.0,0.0,0.0,0.0,0.0,0.0,
2.1761,2.2040105189238597,2.1946219308726307,2.0584593246465364,0.0,0.0,0.0,2.1523639248143422,0.0,0.0,0.0,0.0,0.0,0.0,0.0,0.0,0.0,0.0,0.0,0.0,0.0,0.0,
