energies(eV),real_xx,real_yy,real_zz,real_xy,real_yz,real_xz,real_ave,imag_xx,imag_yy,imag_zz,imag_xy,imag_yz,imag_xz,imag_ave,absorption_xx,absorption_yy,absorption_zz,absorption_xy,absorption_yz,absorption_xz,absorption_ave,band_gap
0.0,5.161280246130427,5.256831968985477,5.1320592565803125,0.0,0.0,0.05597079774401209,5.183390490565405,0.0,0.0,0.0,0.0,0.0,0.0,0.0,0.0,0.0,0.0,0.0,0.0,0.0,0.0,2.0055000000000005
0.0191,5.161357754971618,5.25695215327112,5.132165056183947,0.0,0.0,0.05595791589470736,5.183491654808895,0.0,0.0,0.0,0.0,0.0,0.0,0.0,0.0,0.0,0.0,0.0,0.0,0.0,0.0,
0.0383,5.161591943195533,5.257315302757174,5.132484739005783,0.0,0.0,0.05591898649404693,5.183797328319496,0.0,0.0,0.0,0.0,0.0,0.0,0.0,0.0,0.0,0.0,0.0,0.0,0.0,0.0,
0.0574,5.1619804797936,5.2579178625346,5.133015170173552,0.0,0.0,0.05585437411058393,5.18430450416725,0.0,0.0,0.0,0.0,0.0,0.0,0.0,0.0,0.0,0.0,0.0,0.0,0.0,0.0,
0.0766,5.162527615469939,5.258766525189456,5.133762231965972,0.0,0.0,0.05576333333630488,5.185018790875122,0.0,0.0,0.0,0.0,0.0,0.0,0.0,0.0,0.0,0.0,0.0,0.0,0.0,0.0,
0.0957,5.163227904695489,5.259852984051303,5.1347185993945095,0.0,0.0,0.05564671659585083,5.185933162713767,0.0,0.0,0.0,0.0,0.0,0.0,0.0,0.0,0.0,0.0,0.0,0.0,0.0,0.0,
0.1148,5.164084115848997,5.261181712479808,5.135888193899122,0.0,0.0,0.05550399442297417,5.187051340742642,0.0,0.0,0.0,0.0,0.0,0.0,0.0,0.0,0.0,0.0,0.0,0.0,0.0,0.0,
0.134,5.1651023610127735,5.262762420285392,5.137279541916722,0.0,0.0,0.05533406176884886,5.18838144107163,0.0,0.0,0.0,0.0,0.0,0.0,0.0,0.0,0.0,0.0,0.0,0.0,0.0,0.0,
0.1531,5.166272508174539,5.264579641061071,5.138879005932752,0.0,0.0,0.055138508833874215,5.189910385056121,0.0,0.0,0.0,0.0,0.0,0.0,0.0,0.0,0.0,0.0,0.0,0.0,0.0,0.0,
0.1723,5.167607363692837,5.266653569196819,5.140704332598404,0.0,0.0,0.05491507785543281,5.19165508849602,0.0,0.0,0.0,0.0,0.0,0.0,0.0,0.0,0.0,0.0,0.0,0.0,0.0,0.0,
0.1914,5.169093648269536,5.268963919632848,5.1427376369567535,0.0,0.0,0.0546658584747417,5.193598401619712,0.0,0.0,0.0,0.0,0.0,0.0,0.0,0.0,0.0,0.0,0.0,0.0,0.0,0.0,
0.2105,5.170738600976016,5.2715223257393315,5.144989122880301,0.0,0.0,0.05438949069856072,5.195750016531883,0.0,0.0,0.0,0.0,0.0,0.0,0.0,0.0,0.0,0.0,0.0,0.0,0.0,0.0,
0.2297,5.172552866301756,5.274345788940111,5.147473711891403,0.0,0.0,0.05408401488200252,5.198124122377757,0.0,0.0,0.0,0.0,0.0,0.0,0.0,0.0,0.0,0.0,0.0,0.0,0.0,0.0,
0.2488,5.174518404322467,5.277406712908147,5.150167076650403,0.0,0.0,0.05375228472237795,5.200697397960339,0.0,0.0,0.0,0.0,0.0,0.0,0.0,0.0,0.0,0.0,0.0,0.0,0.0,0.0,
0.2679,5.176645181063714,5.280721125816685,5.153083274955397,0.0,0.0,0.05339242301589385,5.203483193945265,0.0,0.0,0.0,0.0,0.0,0.0,0.0,0.0,0.0,0.0,0.0,0.0,0.0,0.0,
0.2871,5.178946625810607,5.284310547656755,5.156241188189302,0.0,0.0,0.05300193017958242,5.206499453885555,0.0,0.0,0.0,0.0,0.0,0.0,0.0,0.0,0.0,0.0,0.0,0.0,0.0,0.0,
0.3062,5.181399868830286,5.288139929099496,5.159609925179615,0.0,0.0,0.052584448624535346,5.209716574369799,0.0,0.0,0.0,0.0,0.0,0.0,0.0,0.0,0.0,0.0,0.0,0.0,0.0,0.0,
0.3254,5.184031795453035,5.2922519099984875,5.163226936544044,0.0,0.0,0.05213514431790663,5.213170213998522,0.0,0.0,0.0,0.0,0.0,0.0,0.0,0.0,0.0,0.0,0.0,0.0,0.0,0.0,
0.3445,5.186816265217957,5.296606369366309,5.16705686687525,0.0,0.0,0.05165820315137555,5.216826500486505,0.0,0.0,0.0,0.0,0.0,0.0,0.0,0.0,0.0,0.0,0.0,0.0,0.0,0.0,
0.3636,5.189767912598318,5.30122693227237,5.1711204300634,0.0,0.0,0.05115083417449769,5.220705091644696,0.0,0.0,0.0,0.0,0.0,0.0,0.0,0.0,0.0,0.0,0.0,0.0,0.0,0.0,
0.3828,5.1929049692313995,5.306143003642371,5.175443410099683,0.0,0.0,0.05060957083093214,5.224830460991151,0.0,0.0,0.0,0.0,0.0,0.0,0.0,0.0,0.0,0.0,0.0,0.0,0.0,0.0,
0.4019,5.196196305823441,5.311306682473998,5.179983607574339,0.0,0.0,0.05003944488797114,5.229162198623926,0.0,0.0,0.0,0.0,0.0,0.0,0.0,0.0,0.0,0.0,0.0,0.0,0.0,0.0,
0.4211,5.199678042347761,5.316775582262473,5.184791596901693,0.0,0.0,0.04943383553551409,5.233748407170642,0.0,0.0,0.0,0.0,0.0,0.0,0.0,0.0,0.0,0.0,0.0,0.0,0.0,0.0,
0.4402,5.203315653484403,5.322496471986476,5.189820493109872,0.0,0.0,0.04879836333832465,5.238544206193583,0.0,0.0,0.0,0.0,0.0,0.0,0.0,0.0,0.0,0.0,0.0,0.0,0.0,0.0,
0.4593,5.207128658195338,5.328501054264876,5.1950980772493915,0.0,0.0,0.04812923131595529,5.243575929903201,0.0,0.0,0.0,0.0,0.0,0.0,0.0,0.0,0.0,0.0,0.0,0.0,0.0,0.0,
0.4785,5.211140358476537,5.334827214786694,5.200657545503454,0.0,0.0,0.04742189163185309,5.248875039588895,0.0,0.0,0.0,0.0,0.0,0.0,0.0,0.0,0.0,0.0,0.0,0.0,0.0,0.0,
0.4976,5.21531102203854,5.341413491290335,5.2064447823996005,0.0,0.0,0.046682890189653305,5.254389765242824,0.0,0.0,0.0,0.0,0.0,0.0,0.0,0.0,0.0,0.0,0.0,0.0,0.0,0.0,
0.5168,5.219686503497885,5.348333568275015,5.212524424947695,0.0,0.0,0.04590361186362151,5.2601814989068645,0.0,0.0,0.0,0.0,0.0,0.0,0.0,0.0,0.0,0.0,0.0,0.0,0.0,0.0,
0.5359,5.224223507640065,5.355520307023405,5.21883737541273,0.0,0.0,0.045091252628631485,5.2661937300254,0.0,0.0,0.0,0.0,0.0,0.0,0.0,0.0,0.0,0.0,0.0,0.0,0.0,0.0,
0.555,5.228946737628043,5.36301416090477,5.225419057697821,0.0,0.0,0.0442408788537657,5.272459985410212,0.0,0.0,0.0,0.0,0.0,0.0,0.0,0.0,0.0,0.0,0.0,0.0,0.0,0.0,
0.5742,5.233884925822921,5.370862306128236,5.2323107726371365,0.0,0.0,0.04334670406793429,5.279019334862765,0.0,0.0,0.0,0.0,0.0,0.0,0.0,0.0,0.0,0.0,0.0,0.0,0.0,0.0,
0.5933,5.238989285733107,5.378988780280656,5.239445684673814,0.0,0.0,0.0424169548795158,5.285807916895859,0.0,0.0,0.0,0.0,0.0,0.0,0.0,0.0,0.0,0.0,0.0,0.0,0.0,0.0,
0.6125,5.244316071476678,5.387484814601182,5.246903755719092,0.0,0.0,0.041440739181331544,5.292901547265651,0.0,0.0,0.0,0.0,0.0,0.0,0.0,0.0,0.0,0.0,0.0,0.0,0.0,0.0,
0.6316,5.249812719657986,5.396268322464675,5.254612784601196,0.0,0.0,0.04042701363700631,5.300231275574618,0.0,0.0,0.0,0.0,0.0,0.0,0.0,0.0,0.0,0.0,0.0,0.0,0.0,0.0,
0.6507,5.255509517419462,5.405389417047316,5.262616615400986,0.0,0.0,0.039369529221796914,5.3078385166225885,0.0,0.0,0.0,0.0,0.0,0.0,0.0,0.0,0.0,0.0,0.0,0.0,0.0,0.0,
0.6699,5.261441099360597,5.414905641305557,5.270965573840094,0.0,0.0,0.03826104854339659,5.315770771502083,0.0,0.0,0.0,0.0,0.0,0.0,0.0,0.0,0.0,0.0,0.0,0.0,0.0,0.0,
0.689,5.267549050849177,5.424725328255339,5.279579073214493,0.0,0.0,0.03711169481335598,5.323951150773003,0.0,0.0,0.0,0.0,0.0,0.0,0.0,0.0,0.0,0.0,0.0,0.0,0.0,0.0,
0.7081,5.273867250246952,5.43490494205738,5.288506484318947,0.0,0.0,0.03591431905828173,5.332426225541092,0.0,0.0,0.0,0.0,0.0,0.0,0.0,0.0,0.0,0.0,0.0,0.0,0.0,0.0,
0.7273,5.2804341554858745,5.445508898267832,5.297804105716424,0.0,0.0,0.03466068265044317,5.34124905315671,0.0,0.0,0.0,0.0,0.0,0.0,0.0,0.0,0.0,0.0,0.0,0.0,0.0,0.0,
0.7464,5.287185243485988,5.4564354047103,5.307382498929554,0.0,0.0,0.033362174115217254,5.35033438237528,0.0,0.0,0.0,0.0,0.0,0.0,0.0,0.0,0.0,0.0,0.0,0.0,0.0,0.0,
0.7656,5.2941953025787365,5.467808047851374,5.317349806420272,0.0,0.0,0.032003422403520485,5.359784385616794,0.0,0.0,0.0,0.0,0.0,0.0,0.0,0.0,0.0,0.0,0.0,0.0,0.0,0.0,
0.7847,5.301395573675955,5.479517938373379,5.327610391528767,0.0,0.0,0.030596722560030175,5.369507967859367,0.0,0.0,0.0,0.0,0.0,0.0,0.0,0.0,0.0,0.0,0.0,0.0,0.0,0.0,
0.8038,5.308826429814484,5.4916333137562665,5.338223852404367,0.0,0.0,0.02913318561644772,5.379561198658372,0.0,0.0,0.0,0.0,0.0,0.0,0.0,0.0,0.0,0.0,0.0,0.0,0.0,0.0,
0.823,5.316533294346,5.504231435101477,5.349257631929045,0.0,0.0,0.02760262169927097,5.390007453792173,0.0,0.0,0.0,0.0,0.0,0.0,0.0,0.0,0.0,0.0,0.0,0.0,0.0,0.0,
0.8421,5.324440791542057,5.517192202180198,5.360606312890089,0.0,0.0,0.026018789969576274,5.400746435537447,0.0,0.0,0.0,0.0,0.0,0.0,0.0,0.0,0.0,0.0,0.0,0.0,0.0,0.0,
0.8613,5.332636898532618,5.530663118992468,5.3723988108748015,0.0,0.0,0.024362783522624217,5.411899609466629,0.0,0.0,0.0,0.0,0.0,0.0,0.0,0.0,0.0,0.0,0.0,0.0,0.0,0.0,
0.8804,5.341041627802856,5.544516180954309,5.384522820115318,0.0,0.0,0.022649416777740846,5.423360209624161,0.0,0.0,0.0,0.0,0.0,0.0,0.0,0.0,0.0,0.0,0.0,0.0,0.0,0.0,
0.8995,5.349702646360899,5.558833296441504,5.3970497888108895,0.0,0.0,0.020867670639918096,5.435195243871097,0.0,0.0,0.0,0.0,0.0,0.0,0.0,0.0,0.0,0.0,0.0,0.0,0.0,0.0,
0.9187,5.358673272779238,5.573706792181874,5.410060202605304,0.0,0.0,0.019004944991679606,5.447480089188805,0.0,0.0,0.0,0.0,0.0,0.0,0.0,0.0,0.0,0.0,0.0,0.0,0.0,0.0,
0.9378,5.367866279302353,5.588996105505622,5.423430823293104,0.0,0.0,0.017077768204572456,5.460097736033693,0.0,0.0,0.0,0.0,0.0,0.0,0.0,0.0,0.0,0.0,0.0,0.0,0.0,0.0,
0.957,5.377384496998195,5.604876578272724,5.437314692191524,0.0,0.0,0.015062898126411059,5.473191922487481,0.0,0.0,0.0,0.0,0.0,0.0,0.0,0.0,0.0,0.0,0.0,0.0,0.0,0.0,
0.9761,5.3871356263845875,5.621198744212333,5.451580828378054,0.0,0.0,0.012978104872335264,5.486638399658325,0.0,0.0,0.0,0.0,0.0,0.0,0.0,0.0,0.0,0.0,0.0,0.0,0.0,0.0,
0.9952,5.397175677285721,5.638060723516896,5.466314703473808,0.0,0.0,0.010809706288824241,5.500517034758808,0.0,0.0,0.0,0.0,0.0,0.0,0.0,0.0,0.0,0.0,0.0,0.0,0.0,0.0,
1.0144,5.407567084452782,5.655572885098778,5.481612391910781,0.0,0.0,0.008542063982683642,5.5149174538207815,0.0,0.0,0.0,0.0,0.0,0.0,0.0,0.0,0.0,0.0,0.0,0.0,0.0,0.0,
1.0335,5.418209546503944,5.673571540359773,5.497330558158953,0.0,0.0,0.006194974565433156,5.529703881674223,0.0,0.0,0.0,0.0,0.0,0.0,0.0,0.0,0.0,0.0,0.0,0.0,0.0,0.0,
1.0526,5.429164718897807,5.6921661165534685,5.513564439770526,0.0,0.0,0.0037528206036169195,5.5449650917406,0.0,0.0,0.0,0.0,0.0,0.0,0.0,0.0,0.0,0.0,0.0,0.0,0.0,0.0,
1.0718,5.440501252877243,5.711479663705683,5.530421052429528,0.0,0.0,0.0011977419972720466,5.560800656337484,0.0,0.0,0.0,0.0,0.0,0.0,0.0,0.0,0.0,0.0,0.0,0.0,0.0,0.0,
1.0909,5.452110311043438,5.7313330935600915,5.547743700476184,0.0,0.0,-0.0014482149712507515,5.577062368359904,0.0,0.0,0.0,0.0,0.0,0.0,0.0,0.0,0.0,0.0,0.0,0.0,4207.702088291256,0.0,
1.1101,5.46412326796624,5.751957834322997,5.565733902926838,0.0,0.0,-0.004217645282093593,5.593938335072025,0.0,0.0,0.0,0.0,0.0,0.0,0.0,0.0,0.0,0.0,0.0,0.0,7307.0260174531395,0.0,
1.1292,5.476425261320785,5.773163792488719,5.584225426541245,0.0,0.0,-0.007086862429333483,5.61127149345025,0.0,0.0,0.0,0.0,0.0,0.0,0.0,0.0,0.0,0.0,0.0,0.0,9634.77098288443,0.0,
1.1483,5.4890887468333025,5.79508273878673,5.603332780604278,0.0,0.0,-0.010075469709519544,5.629168088741437,0.0,0.0,0.0,0.0,0.0,0.0,0.0,0.0,0.0,0.0,0.0,0.0,11682.385712404439,0.0,
1.1675,5.502194365263078,5.817862982552001,5.623184747505593,0.0,0.0,-0.013205931883244693,5.647747365106891,0.0,0.0,0.0,0.0,0.0,0.0,0.0,0.0,0.0,0.0,0.0,0.0,13598.310109336822,0.0,
1.1866,5.515617678674188,5.84129672026665,5.643599762193627,0.0,0.0,-0.016451871214406884,5.666838053711488,0.0,0.0,0.0,0.0,0.0,0.0,0.0,0.0,0.0,0.0,0.0,0.0,15426.077892889043,0.0,
1.2058,5.529512103356808,5.86566086710994,5.664818572413261,0.0,0.0,-0.019853968988542865,5.6866638476266695,0.0,0.0,0.0,0.0,0.0,0.0,0.0,0.0,0.0,0.0,0.0,0.0,17220.369839488747,0.0,
1.2249,5.543746414874099,5.890734914434712,5.686648625731976,0.0,0.0,-0.02338388104845431,5.707043318346929,0.0,0.0,0.0,0.0,0.0,0.0,0.0,0.0,0.0,0.0,0.0,0.0,18984.643953132334,0.0,
1.244,5.5584061699488085,5.916678886059988,5.7092287671389865,0.0,0.0,-0.027066506043025084,5.728104607715927,0.0,0.0,0.0,0.0,0.0,0.0,0.0,0.0,0.0,0.0,0.0,0.0,20743.402976742596,0.0,
1.2632,5.573586707330312,5.943673353106026,5.732715547231496,0.0,0.0,-0.03093047393734779,5.749991869222612,0.0,0.0,0.0,0.0,0.0,0.0,0.0,0.0,0.0,0.0,0.0,0.0,22516.917140854657,0.0,
1.2823,5.589145977487159,5.971477298266809,5.756898696837786,0.0,0.0,-0.034944210819054605,5.772507324197252,0.0,0.0,0.0,0.0,0.0,0.0,0.0,0.0,0.0,0.0,0.0,0.0,24295.21720135401,0.0,
1.3015,5.6052641007838675,6.000425024199171,5.782068389350024,0.0,0.0,-0.039159106818926294,5.795919171444353,0.0,0.0,0.0,0.0,0.0,0.0,0.0,0.0,0.0,0.0,0.0,0.0,26103.821228211913,0.0,
1.3206,5.621791333169506,6.0302607700244,5.808001633034138,0.0,0.0,-0.04354122894271057,5.820017912076015,0.0,0.0,0.0,0.0,0.0,0.0,0.0,0.0,0.0,0.0,0.0,0.0,27929.62854041826,0.0,
1.3397,5.63882960229877,6.061181406862597,5.834868983610128,0.0,0.0,-0.048122715553495315,5.844959997590499,0.0,0.0,0.0,0.0,0.0,0.0,0.0,0.0,0.0,0.0,0.0,0.0,29786.957515881244,0.0,
1.3589,5.656492822664935,6.093410021526971,5.8628635615680755,0.0,0.0,-0.0529406938266018,5.870922135253327,0.0,0.0,0.0,0.0,0.0,0.0,0.0,0.0,0.0,0.0,0.0,0.0,31690.262631105426,0.0,
1.378,5.674618954491238,6.1266670420469,5.891741851945104,0.0,0.0,-0.057957366004886914,5.897675949494413,0.0,0.0,0.0,0.0,0.0,0.0,0.0,0.0,0.0,0.0,0.0,0.0,33623.82083485633,0.0,
1.3972,5.693421410696459,6.161361377002574,5.9218582290180235,0.0,0.0,-0.06323870814317097,5.925547005572352,0.0,0.0,0.0,0.0,0.0,0.0,0.0,0.0,0.0,0.0,0.0,0.0,35611.77305634864,0.0,
1.4163,5.712729408873251,6.197196362769745,5.952954464618512,0.0,0.0,-0.0687441144312189,5.954293412087169,0.0,0.0,0.0,0.0,0.0,0.0,0.0,0.0,0.0,0.0,0.0,0.0,37637.13366309718,0.0,
1.4354,5.732666087785537,6.234418716039708,5.985244003045762,0.0,0.0,-0.07451596146075444,5.984109602290335,0.0,0.0,0.0,0.0,0.0,0.0,0.0,0.0,0.0,0.0,0.0,0.0,39713.770520781545,0.0,
1.4546,5.753369729699483,6.273309676423551,6.018969987231626,0.0,0.0,-0.08060349724725664,6.0152164644515524,0.0,0.0,0.0,0.0,0.0,0.0,0.0,0.0,0.0,0.0,0.0,0.0,41856.609980049696,0.0,
1.4737,5.774655613679009,6.313545115784249,6.053850581140064,0.0,0.0,-0.08696156181157119,6.047350436867774,0.0,0.0,0.0,0.0,0.0,0.0,0.0,0.0,0.0,0.0,0.0,0.0,44046.993917398315,0.0,
1.4928,5.796662974576923,6.355410852632387,6.090132888411345,0.0,0.0,-0.09364082714578459,6.080735571873551,0.0,0.0,0.0,0.0,0.0,0.0,0.0,0.0,0.0,0.0,0.0,0.0,46299.65686546423,0.0,
1.512,5.8195487843292835,6.399234169697968,6.128099683940567,0.0,0.0,-0.10070043418428185,6.115627545989272,0.0,0.0,0.0,0.0,0.0,0.0,0.0,0.0,0.0,0.0,0.0,0.0,48630.7523096016,0.0,
1.5311,5.843113398948028,6.444661349415955,6.167443754074455,0.0,0.0,-0.10809028792869109,6.151739500812813,0.0,0.0,0.0,0.0,0.0,0.0,0.0,0.0,0.0,0.0,0.0,0.0,51019.995823671816,0.0,
1.5503,5.867645788590245,6.492280525035385,6.2086737123255835,0.0,0.0,-0.11591351902141903,6.189533341983737,0.0,0.0,0.0,0.0,0.0,0.0,0.0,0.0,0.0,0.0,0.0,0.0,53496.616836735746,0.0,
1.5694,5.892935865891443,6.541717244904771,6.251464608396015,0.0,0.0,-0.12411658021348629,6.228705906397409,0.0,0.0,0.0,0.0,0.0,0.0,0.0,0.0,0.0,0.0,0.0,0.0,56039.21901155958,0.0,
1.5885,5.919158351619303,6.593346407093835,6.296140330188746,0.0,0.0,-0.1327696335746496,6.269548362967295,0.0,0.0,0.0,0.0,0.0,0.0,0.0,0.0,0.0,0.0,0.0,0.0,58665.141547146806,0.0,
1.6077,5.946511942171216,6.64760131947555,6.343075062318129,0.0,0.0,-0.14195526574357684,6.312396107988298,0.0,0.0,0.0,0.0,0.0,0.0,0.0,0.0,0.0,0.0,0.0,0.0,61393.76827478977,0.0,
1.6268,5.974770422720585,6.704075682969264,6.391916724598338,0.0,0.0,-0.15161469589563278,6.3569209434293965,0.0,0.0,0.0,0.0,0.0,0.0,0.0,0.0,0.0,0.0,0.0,0.0,64201.96768602145,0.0,
1.646,6.00429441762164,6.763536558954078,6.443328193741064,0.0,0.0,-0.16189002120771498,6.403719723438928,0.0,0.0,0.0,0.0,0.0,0.0,0.0,0.0,0.0,0.0,0.0,0.0,67124.8605127457,0.0,
1.6651,6.034846938886693,6.825556708656911,6.496939678648586,0.0,0.0,-0.17271912914141002,6.4524477753973954,0.0,0.0,0.0,0.0,0.0,0.0,0.0,0.0,0.0,0.0,0.0,0.0,70138.1111540917,0.0,
1.6842,6.066656135008528,6.890649915635005,6.553195173064687,0.0,0.0,-0.18420356215610695,6.503500407902739,0.0,0.0,0.0,0.0,0.0,0.0,0.0,0.0,0.0,0.0,0.0,0.0,73263.25342170718,0.0,
1.7034,6.099984665087078,6.959417301074784,6.6126140762504395,0.0,0.0,-0.1964641232375635,6.557338680804101,0.0,0.0,0.0,0.0,0.0,0.0,0.0,0.0,0.0,0.0,0.0,0.0,76524.72815796177,0.0,
1.7225,6.134580417679508,7.0314034384147766,6.674803138815983,0.0,0.0,-0.20943458908797175,6.613595664970089,0.0,0.0,0.0,0.0,0.0,0.0,0.0,0.0,0.0,0.0,0.0,0.0,79896.35387858625,0.0,
1.7417,6.170912137512714,7.107654896818393,6.7406671305173935,0.0,0.0,-0.22331993241006934,6.6730780549495,0.0,0.0,0.0,0.0,0.0,0.0,0.0,0.0,0.0,0.0,0.0,0.0,83422.00450662701,0.0,
1.7608,6.208719473797573,7.18770255934276,6.809801949376181,0.0,0.0,-0.23805246075609623,6.735407994172171,0.0,0.0,0.0,0.0,0.0,0.0,0.0,0.0,0.0,0.0,0.0,0.0,87074.28008985707,0.0,
1.7799,6.2483194216426075,7.27229664661719,6.882857328638241,0.0,0.0,-0.25378836052155335,6.801157798966013,0.0,0.0,0.0,0.0,0.0,0.0,0.0,0.0,0.0,0.0,0.0,0.0,90881.39371001042,0.0,
1.7991,6.2900834801433865,7.3623293826715,6.960606312298099,0.0,0.0,-0.2707160180471597,6.871006391704328,0.0,0.0,0.0,0.0,0.0,0.0,0.0,0.0,0.0,0.0,0.0,0.0,94875.87748840773,0.0,
1.8182,6.3337456955126985,7.457328634033722,7.042644810597837,0.0,0.0,-0.28876963730082394,6.944573046714752,0.0,0.0,0.0,0.0,0.0,0.0,0.0,0.0,0.0,0.0,0.0,0.0,99028.66912900688,0.0,
1.8374,6.379957243943228,7.558822664400733,7.130297672897489,0.0,0.0,-0.3082648747828732,7.023025860413817,0.0,0.0,0.0,0.0,0.0,0.0,0.0,0.0,0.0,0.0,0.0,0.0,103397.31431645855,0.0,
1.8565,6.428457579883788,7.666360129508148,7.223182053103117,0.0,0.0,-0.32914232795698745,7.105999920831684,0.0,0.0,0.0,0.0,0.0,0.0,0.0,0.0,0.0,0.0,0.0,0.0,107951.91408829433,0.0,
1.8756,6.479734958930214,7.781147419915462,7.322349328588449,0.0,0.0,-0.3516641736104189,7.194410569144708,0.0,0.0,0.0,0.0,0.0,0.0,0.0,0.0,0.0,0.0,0.0,0.0,112732.15587793583,0.0,
1.8948,6.534377660050507,7.904653264592822,7.4290815162878046,0.0,0.0,-0.3761526639786708,7.289370813643711,0.0,0.0,0.0,0.0,0.0,0.0,0.0,0.0,0.0,0.0,0.0,0.0,117784.72502512643,0.0,
1.9139,6.592164150283925,8.036531046309744,7.5430967079911015,0.0,0.0,-0.4025737284062559,7.390597301528256,0.0,0.0,0.0,0.0,0.0,0.0,0.0,0.0,0.0,0.0,0.0,0.0,123079.43182154464,0.0,
1.933,6.653780722951786,8.178501580486838,7.665906381218175,0.0,0.0,-0.43130702156025297,7.4993962282189335,0.0,0.0,0.0,0.0,0.0,0.0,0.0,0.0,0.0,0.0,0.0,0.0,128667.43508022407,0.0,
1.9522,6.72007577587916,8.332702884208029,7.799394027156278,0.0,0.0,-0.46282645055719385,7.617390895747822,0.0,0.0,0.0,0.0,0.0,0.0,0.0,0.0,0.0,0.0,0.0,0.0,134609.87448015582,0.0,
1.9713,6.790956595491067,8.499094768886572,7.943571339806341,0.0,0.0,-0.49716355284280156,7.74454090139466,0.0,0.0,0.0,0.0,0.0,0.0,0.0,0.0,0.0,0.0,0.0,0.0,140878.879499661,0.0,
1.9905,6.867906258132412,8.681329317192498,8.101668942322128,0.0,0.0,-0.5351109507567704,7.88363483921568,0.0,0.0,0.0,0.0,0.0,0.0,0.0,0.0,0.0,0.0,0.0,0.0,147580.04098945795,0.0,
2.0096,6.951044117089789,8.879835641771233,8.274153350593934,0.0,0.0,-0.5767920041190419,8.035011036484986,0.0,0.0,0.0,0.0,0.0,0.0,0.0,0.0,0.0,0.0,0.0,0.0,154690.18650378558,0.0,
2.0287,7.041926410155306,9.098410646469231,8.464459259990097,0.0,0.0,-0.6230240170557139,8.201598772204878,0.0,0.0,0.0,0.0,0.0,0.0,0.0,0.0,0.0,0.0,0.0,0.0,162298.21707530008,0.0,
2.0479,7.142635863020617,9.342058933425491,8.67715418616174,0.0,0.0,-0.6748666448452416,8.387282994202616,0.0,0.0,0.0,0.0,0.0,0.0,0.0,0.0,0.0,0.0,0.0,0.0,170514.4754063329,0.0,
2.067,7.254192630388796,9.613023452143162,8.914513200237817,0.0,0.0,-0.7327487241751012,8.593909760923259,0.0,0.0,0.0,0.0,0.0,0.0,0.0,0.0,0.0,0.0,0.0,0.0,179333.54662357408,0.0,
2.0862,7.380665067338968,9.920563002230342,9.185152320595819,0.0,0.0,-0.7985082970595894,8.828793463388376,0.0,0.0,0.0,0.0,0.0,0.0,0.0,0.0,0.0,0.0,0.0,0.0,188946.64420049978,0.0,
2.1053,7.524889108405084,10.270245406517459,9.494788263887811,0.0,0.0,-0.8730325302418507,9.096640926270119,0.0,0.0,0.0,0.0,0.0,0.0,0.0,0.0,0.0,0.0,0.0,0.0,199375.9312919489,0.0,
2.1244,7.693546896269861,10.675906031297101,9.856993352276087,0.0,0.0,-0.9587427974250328,9.408815426614348,0.0,0.0,0.0,0.0,0.0,0.0,0.0,0.0,0.0,0.0,0.0,0.0,210829.25557139242,0.0,
2.1436,7.8954473506470615,11.156973528139764,10.291096147174384,0.0,0.0,-1.0596278553789633,9.781172341987071,0.0,0.0,0.0,0.0,0.0,0.0,0.0,0.0,0.0,0.0,0.0,0.0,223647.45319972112,0.0,
2.1627,8.12642843614691,11.72156020675249,10.80388195733461,0.0,0.0,-1.1838779563973245,10.217290200078004,0.0374,0.0335,0.0259,0.0,0.0,0.0145,0.032266666666666666,1437.9056981206572,1072.4114994521392,863.6133492961288,0.0,0.0,238507.1570990914,1106.3575572446778,
