energies(eV),real_xx,real_yy,real_zz,real_xy,real_yz,real_xz,real_ave,imag_xx,imag_yy,imag_zz,imag_xy,imag_yz,imag_xz,imag_ave,absorption_xx,absorption_yy,absorption_zz,absorption_xy,absorption_yz,absorption_xz,absorption_ave,band_gap
0.0,3.9453690091611544,3.9453690091611544,3.722773386398752,0.0,0.0,0.0,3.871170468240354,0.0,0.0,0.0,0.0,0.0,0.0,0.0,0.0,0.0,0.0,0.0,0.0,0.0,0.0,2.3279
0.0163,3.945385392913692,3.945385392913692,3.722787887399763,0.0,0.0,0.0,3.871186224409049,0.0,0.0,0.0,0.0,0.0,0.0,0.0,0.0,0.0,0.0,0.0,0.0,0.0,0.0,
0.0326,3.9454345462214104,3.9454345462214104,3.722831392435159,0.0,0.0,0.0,3.8712334949593266,0.0,0.0,0.0,0.0,0.0,0.0,0.0,0.0,0.0,0.0,0.0,0.0,0.0,0.0,
0.049,3.9455170790424026,3.9455170790424026,3.722904442034214,0.0,0.0,0.0,3.8713128667063397,0.0,0.0,0.0,0.0,0.0,0.0,0.0,0.0,0.0,0.0,0.0,0.0,0.0,0.0,
0.0653,3.945631995199008,3.945631995199008,3.7230061555794416,0.0,0.0,0.0,3.8714233819924857,0.0,0.0,0.0,0.0,0.0,0.0,0.0,0.0,0.0,0.0,0.0,0.0,0.0,0.0,
0.0816,3.9457797117811233,3.9457797117811233,3.723136903764059,0.0,0.0,0.0,3.8715654424421015,0.0,0.0,0.0,0.0,0.0,0.0,0.0,0.0,0.0,0.0,0.0,0.0,0.0,0.0,
0.0979,3.9459602472917563,3.9459602472917563,3.723296704934297,0.0,0.0,0.0,3.8717390665059366,0.0,0.0,0.0,0.0,0.0,0.0,0.0,0.0,0.0,0.0,0.0,0.0,0.0,0.0,
0.1142,3.9461736243564056,3.9461736243564056,3.7234855815263668,0.0,0.0,0.0,3.8719442767463925,0.0,0.0,0.0,0.0,0.0,0.0,0.0,0.0,0.0,0.0,0.0,0.0,0.0,0.0,
0.1306,3.9464214819440024,3.9464214819440024,3.7237049872478454,0.0,0.0,0.0,3.8721826503786168,0.0,0.0,0.0,0.0,0.0,0.0,0.0,0.0,0.0,0.0,0.0,0.0,0.0,0.0,
0.1469,3.9467008284738796,3.9467008284738796,3.723952277240379,0.0,0.0,0.0,3.872451311396046,0.0,0.0,0.0,0.0,0.0,0.0,0.0,0.0,0.0,0.0,0.0,0.0,0.0,0.0,
0.1632,3.9470131095047503,3.9470131095047503,3.7242287348507617,0.0,0.0,0.0,3.872751651286754,0.0,0.0,0.0,0.0,0.0,0.0,0.0,0.0,0.0,0.0,0.0,0.0,0.0,0.0,
0.1795,3.9473583642942573,3.9473583642942573,3.7245343990324753,0.0,0.0,0.0,3.8730837092069965,0.0,0.0,0.0,0.0,0.0,0.0,0.0,0.0,0.0,0.0,0.0,0.0,0.0,0.0,
0.1958,3.947736636290086,3.947736636290086,3.7248693129054757,0.0,0.0,0.0,3.873447528495216,0.0,0.0,0.0,0.0,0.0,0.0,0.0,0.0,0.0,0.0,0.0,0.0,0.0,0.0,
0.2122,3.9481505988410124,3.9481505988410124,3.7252358487238593,0.0,0.0,0.0,3.8738456821352947,0.0,0.0,0.0,0.0,0.0,0.0,0.0,0.0,0.0,0.0,0.0,0.0,0.0,0.0,
0.2285,3.9485952557884194,3.9485952557884194,3.72562958833525,0.0,0.0,0.0,3.8742733666373628,0.0,0.0,0.0,0.0,0.0,0.0,0.0,0.0,0.0,0.0,0.0,0.0,0.0,0.0,
0.2448,3.949073085982079,3.949073085982079,3.7260527325785513,0.0,0.0,0.0,3.874732968180903,0.0,0.0,0.0,0.0,0.0,0.0,0.0,0.0,0.0,0.0,0.0,0.0,0.0,0.0,
0.2611,3.9495841498649917,3.9495841498649917,3.7265053415033953,0.0,0.0,0.0,3.8752245470777926,0.0,0.0,0.0,0.0,0.0,0.0,0.0,0.0,0.0,0.0,0.0,0.0,0.0,0.0,
0.2774,3.9501285121843677,3.9501285121843677,3.7269874794559166,0.0,0.0,0.0,3.8757481679415506,0.0,0.0,0.0,0.0,0.0,0.0,0.0,0.0,0.0,0.0,0.0,0.0,0.0,0.0,
0.2938,3.950709889506905,3.950709889506905,3.7275024460898245,0.0,0.0,0.0,3.8763074083678783,0.0,0.0,0.0,0.0,0.0,0.0,0.0,0.0,0.0,0.0,0.0,0.0,0.0,0.0,
0.3101,3.9513212656985726,3.9513212656985726,3.728044034750852,0.0,0.0,0.0,3.8768955220493324,0.0,0.0,0.0,0.0,0.0,0.0,0.0,0.0,0.0,0.0,0.0,0.0,0.0,0.0,
0.3264,3.9519661611823067,3.9519661611823067,3.7286153720832362,0.0,0.0,0.0,3.877515898149283,0.0,0.0,0.0,0.0,0.0,0.0,0.0,0.0,0.0,0.0,0.0,0.0,0.0,0.0,
0.3427,3.952644658256969,3.952644658256969,3.729216539996006,0.0,0.0,0.0,3.878168618836648,0.0,0.0,0.0,0.0,0.0,0.0,0.0,0.0,0.0,0.0,0.0,0.0,0.0,0.0,
0.359,3.953356843689803,3.953356843689803,3.7298476248815806,0.0,0.0,0.0,3.8788537707537287,0.0,0.0,0.0,0.0,0.0,0.0,0.0,0.0,0.0,0.0,0.0,0.0,0.0,0.0,
0.3754,3.9541074896780057,3.9541074896780057,3.730512866252645,0.0,0.0,0.0,3.879575948536219,0.0,0.0,0.0,0.0,0.0,0.0,0.0,0.0,0.0,0.0,0.0,0.0,0.0,0.0,
0.3917,3.954887538330396,3.954887538330396,3.7312042474085114,0.0,0.0,0.0,3.8803264413564342,0.0,0.0,0.0,0.0,0.0,0.0,0.0,0.0,0.0,0.0,0.0,0.0,0.0,0.0,
0.408,3.9557015634856576,3.9557015634856576,3.731925832703251,0.0,0.0,0.0,3.8811096532248555,0.0,0.0,0.0,0.0,0.0,0.0,0.0,0.0,0.0,0.0,0.0,0.0,0.0,0.0,
0.4243,3.9565496702265417,3.9565496702265417,3.7326777269642735,0.0,0.0,0.0,3.8819256891391185,0.0,0.0,0.0,0.0,0.0,0.0,0.0,0.0,0.0,0.0,0.0,0.0,0.0,0.0,
0.4407,3.9574374869530495,3.9574374869530495,3.7334649333313576,0.0,0.0,0.0,3.8827799690791522,0.0,0.0,0.0,0.0,0.0,0.0,0.0,0.0,0.0,0.0,0.0,0.0,0.0,0.0,
0.457,3.958354301739556,3.958354301739556,3.7342779666785675,0.0,0.0,0.0,3.8836621900525596,0.0,0.0,0.0,0.0,0.0,0.0,0.0,0.0,0.0,0.0,0.0,0.0,0.0,0.0,
0.4733,3.9593055424317325,3.9593055424317325,3.7351216528538056,0.0,0.0,0.0,3.88457757923909,0.0,0.0,0.0,0.0,0.0,0.0,0.0,0.0,0.0,0.0,0.0,0.0,0.0,0.0,
0.4896,3.9602913332023673,3.9602913332023673,3.7359961160063997,0.0,0.0,0.0,3.8855262608037116,0.0,0.0,0.0,0.0,0.0,0.0,0.0,0.0,0.0,0.0,0.0,0.0,0.0,0.0,
0.5059,3.9613118031285066,3.9613118031285066,3.7369014852684734,0.0,0.0,0.0,3.8865083638418287,0.0,0.0,0.0,0.0,0.0,0.0,0.0,0.0,0.0,0.0,0.0,0.0,0.0,0.0,
0.5223,3.962373668110399,3.962373668110399,3.7378437357533594,0.0,0.0,0.0,3.887530357324719,0.0,0.0,0.0,0.0,0.0,0.0,0.0,0.0,0.0,0.0,0.0,0.0,0.0,0.0,
0.5386,3.9634641183732273,3.9634641183732273,3.7388115166411064,0.0,0.0,0.0,3.8885799177958535,0.0,0.0,0.0,0.0,0.0,0.0,0.0,0.0,0.0,0.0,0.0,0.0,0.0,0.0,
0.5549,3.9645896659699944,3.9645896659699944,3.739810622549097,0.0,0.0,0.0,3.8896633181630285,0.0,0.0,0.0,0.0,0.0,0.0,0.0,0.0,0.0,0.0,0.0,0.0,0.0,0.0,
0.5712,3.965750460261786,3.965750460261786,3.7408412033043628,0.0,0.0,0.0,3.890780707942645,0.0,0.0,0.0,0.0,0.0,0.0,0.0,0.0,0.0,0.0,0.0,0.0,0.0,0.0,
0.5875,3.966946655845948,3.966946655845948,3.741903414099408,0.0,0.0,0.0,3.891932241930435,0.0,0.0,0.0,0.0,0.0,0.0,0.0,0.0,0.0,0.0,0.0,0.0,0.0,0.0,
0.6039,3.968186079512317,3.968186079512317,3.743004225700282,0.0,0.0,0.0,3.893125461574972,0.0,0.0,0.0,0.0,0.0,0.0,0.0,0.0,0.0,0.0,0.0,0.0,0.0,0.0,
0.6202,3.9694537824993126,3.9694537824993126,3.7441303806307054,0.0,0.0,0.0,3.894345981876443,0.0,0.0,0.0,0.0,0.0,0.0,0.0,0.0,0.0,0.0,0.0,0.0,0.0,0.0,
0.6365,3.970757383819482,3.970757383819482,3.7452886653292166,0.0,0.0,0.0,3.8956011443227267,0.0,0.0,0.0,0.0,0.0,0.0,0.0,0.0,0.0,0.0,0.0,0.0,0.0,0.0,
0.6528,3.9720970598318575,3.9720970598318575,3.746479257391007,0.0,0.0,0.0,3.8968911256849075,0.0,0.0,0.0,0.0,0.0,0.0,0.0,0.0,0.0,0.0,0.0,0.0,0.0,0.0,
0.6691,3.9734729925396635,3.9734729925396635,3.747702340249357,0.0,0.0,0.0,3.898216108442895,0.0,0.0,0.0,0.0,0.0,0.0,0.0,0.0,0.0,0.0,0.0,0.0,0.0,0.0,
0.6855,3.9748941474474595,3.9748941474474595,3.7489659086110687,0.0,0.0,0.0,3.899584734501996,0.0,0.0,0.0,0.0,0.0,0.0,0.0,0.0,0.0,0.0,0.0,0.0,0.0,0.0,
0.7018,3.976343387976949,3.976343387976949,3.7502547495588066,0.0,0.0,0.0,3.900980508504235,0.0,0.0,0.0,0.0,0.0,0.0,0.0,0.0,0.0,0.0,0.0,0.0,0.0,0.0,
0.7181,3.977829467253656,3.977829467253656,3.7515766689753494,0.0,0.0,0.0,3.902411867827554,0.0,0.0,0.0,0.0,0.0,0.0,0.0,0.0,0.0,0.0,0.0,0.0,0.0,0.0,
0.7344,3.9793525908480154,3.9793525908480154,3.7529318747953457,0.0,0.0,0.0,3.903879018830459,0.0,0.0,0.0,0.0,0.0,0.0,0.0,0.0,0.0,0.0,0.0,0.0,0.0,0.0,
0.7507,3.9809129704710573,3.9809129704710573,3.754320581370242,0.0,0.0,0.0,3.905382174104119,0.0,0.0,0.0,0.0,0.0,0.0,0.0,0.0,0.0,0.0,0.0,0.0,0.0,0.0,
0.7671,3.982520742984083,3.982520742984083,3.7557518406932933,0.0,0.0,0.0,3.9069311088871532,0.0,0.0,0.0,0.0,0.0,0.0,0.0,0.0,0.0,0.0,0.0,0.0,0.0,0.0,
0.7834,3.984156526903136,3.984156526903136,3.7572084271486013,0.0,0.0,0.0,3.908507160318291,0.0,0.0,0.0,0.0,0.0,0.0,0.0,0.0,0.0,0.0,0.0,0.0,0.0,0.0,
0.7997,3.98583024139604,3.98583024139604,3.7586991986996034,0.0,0.0,0.0,3.9101198938305615,0.0,0.0,0.0,0.0,0.0,0.0,0.0,0.0,0.0,0.0,0.0,0.0,0.0,0.0,
0.816,3.98754212393171,3.98754212393171,3.760224396761386,0.0,0.0,0.0,3.911769548208269,0.0,0.0,0.0,0.0,0.0,0.0,0.0,0.0,0.0,0.0,0.0,0.0,0.0,0.0,
0.8323,3.9892924187205243,3.9892924187205243,3.7617842698709767,0.0,0.0,0.0,3.9134563691040083,0.0,0.0,0.0,0.0,0.0,0.0,0.0,0.0,0.0,0.0,0.0,0.0,0.0,0.0,
0.8487,3.9910924719077627,3.9910924719077627,3.7633889662658917,0.0,0.0,0.0,3.9151913033604724,0.0,0.0,0.0,0.0,0.0,0.0,0.0,0.0,0.0,0.0,0.0,0.0,0.0,0.0,
0.865,3.9929205910698657,3.9929205910698657,3.7650191811108833,0.0,0.0,0.0,3.9169534544168716,0.0,0.0,0.0,0.0,0.0,0.0,0.0,0.0,0.0,0.0,0.0,0.0,0.0,0.0,
0.8813,3.9947878985843244,3.9947878985843244,3.766684862646988,0.0,0.0,0.0,3.918753553271879,0.0,0.0,0.0,0.0,0.0,0.0,0.0,0.0,0.0,0.0,0.0,0.0,0.0,0.0,
0.8976,3.9966946670687324,3.9966946670687324,3.768386289594772,0.0,0.0,0.0,3.9205918745774126,0.0,0.0,0.0,0.0,0.0,0.0,0.0,0.0,0.0,0.0,0.0,0.0,0.0,0.0,
0.9139,3.9986411766087437,3.9986411766087437,3.7701237486552213,0.0,0.0,0.0,3.9224687006242362,0.0,0.0,0.0,0.0,0.0,0.0,0.0,0.0,0.0,0.0,0.0,0.0,0.0,0.0,
0.9303,4.0006400264187025,4.0006400264187025,3.7719085295630435,0.0,0.0,0.0,3.924396194133483,0.0,0.0,0.0,0.0,0.0,0.0,0.0,0.0,0.0,0.0,0.0,0.0,0.0,0.0,
0.9466,4.0026671373335905,4.0026671373335905,3.773719171523709,0.0,0.0,0.0,3.9263511487302964,0.0,0.0,0.0,0.0,0.0,0.0,0.0,0.0,0.0,0.0,0.0,0.0,0.0,0.0,
0.9629,4.004734877911343,4.004734877911343,3.7755667574888854,0.0,0.0,0.0,3.9283455044371904,0.0,0.0,0.0,0.0,0.0,0.0,0.0,0.0,0.0,0.0,0.0,0.0,0.0,0.0,
0.9792,4.006843559848614,4.006843559848614,3.777451608142663,0.0,0.0,0.0,3.93037957594663,0.0,0.0,0.0,0.0,0.0,0.0,0.0,0.0,0.0,0.0,0.0,0.0,0.0,0.0,
0.9955,4.008993503188986,4.008993503188986,3.779374053195828,0.0,0.0,0.0,3.9324536865245996,0.0,0.0,0.0,0.0,0.0,0.0,0.0,0.0,0.0,0.0,0.0,0.0,0.0,0.0,
1.0119,4.011198610560752,4.011198610560752,3.7813465762709657,0.0,0.0,0.0,3.9345812657974903,0.0,0.0,0.0,0.0,0.0,0.0,0.0,0.0,0.0,0.0,0.0,0.0,0.0,0.0,
1.0282,4.013432329500843,4.013432329500843,3.78334547250219,0.0,0.0,0.0,3.936736710501292,0.0,0.0,0.0,0.0,0.0,0.0,0.0,0.0,0.0,0.0,0.0,0.0,0.0,0.0,
1.0445,4.015708324217753,4.015708324217753,3.785383011056367,0.0,0.0,0.0,3.938933219830625,0.0,0.0,0.0,0.0,0.0,0.0,0.0,0.0,0.0,0.0,0.0,0.0,0.0,0.0,
1.0608,4.018026950248755,4.018026950248755,3.7874595602659453,0.0,0.0,0.0,3.9411711535878187,0.0,0.0,0.0,0.0,0.0,0.0,0.0,0.0,0.0,0.0,0.0,0.0,0.0,0.0,
1.0771,4.020388572545448,4.020388572545448,3.7895754987701507,0.0,0.0,0.0,3.9434508812870157,0.0,0.0,0.0,0.0,0.0,0.0,0.0,0.0,0.0,0.0,0.0,0.0,0.0,0.0,
1.0935,4.022808454917069,4.022808454917069,3.791744564649932,0.0,0.0,0.0,3.9457871581613566,0.0,0.0,0.0,0.0,0.0,0.0,0.0,0.0,0.0,0.0,0.0,0.0,0.0,0.0,
1.1098,4.025257473111674,4.025257473111674,3.793940708095228,0.0,0.0,0.0,3.9481518847728587,0.0,0.0,0.0,0.0,0.0,0.0,0.0,0.0,0.0,0.0,0.0,0.0,0.0,0.0,
1.1261,4.027750643813138,4.027750643813138,3.796177444098951,0.0,0.0,0.0,3.9505595772417426,0.0,0.0,0.0,0.0,0.0,0.0,0.0,0.0,0.0,0.0,0.0,0.0,0.0,0.0,
1.1424,4.030288372192857,4.030288372192857,3.79845519560993,0.0,0.0,0.0,3.9530106466652146,0.0,0.0,0.0,0.0,0.0,0.0,0.0,0.0,0.0,0.0,0.0,0.0,0.0,0.0,
1.1587,4.032871074139668,4.032871074139668,3.8007743974573778,0.0,0.0,0.0,3.955505515245571,0.0,0.0,0.0,0.0,0.0,0.0,0.0,0.0,0.0,0.0,0.0,0.0,0.0,0.0,
1.1751,4.035515440899342,4.035515440899342,3.8031501122287046,0.0,0.0,0.0,3.958060331342463,0.0,0.0,0.0,0.0,0.0,0.0,0.0,0.0,0.0,0.0,0.0,0.0,0.0,0.0,
1.1914,4.038189664592716,4.038189664592716,3.8055538298592833,0.0,0.0,0.0,3.9606443863482386,0.0,0.0,0.0,0.0,0.0,0.0,0.0,0.0,0.0,0.0,0.0,0.0,0.0,0.0,
1.2077,4.040910179620706,4.040910179620706,3.8080003801776794,0.0,0.0,0.0,3.963273579806364,0.0,0.0,0.0,0.0,0.0,0.0,0.0,0.0,0.0,0.0,0.0,0.0,0.0,0.0,
1.224,4.043677447881505,4.043677447881505,3.8104902493404817,0.0,0.0,0.0,3.965948381701164,0.0,0.0,0.0,0.0,0.0,0.0,0.0,0.0,0.0,0.0,0.0,0.0,0.0,0.0,
1.2404,4.0465093571941155,4.0465093571941155,3.8130396177232773,0.0,0.0,0.0,3.968686110703836,0.0,0.0,0.0,0.0,0.0,0.0,0.0,0.0,0.0,0.0,0.0,0.0,0.0,0.0,
1.2567,4.049371861511665,4.049371861511665,3.815617912402441,0.0,0.0,0.0,3.9714538784752573,0.0,0.0,0.0,0.0,0.0,0.0,0.0,0.0,0.0,0.0,0.0,0.0,0.0,0.0,
1.273,4.052282583250349,4.052282583250349,3.818241072453274,0.0,0.0,0.0,3.974268746317991,0.0,0.0,0.0,0.0,0.0,0.0,0.0,0.0,0.0,0.0,0.0,0.0,0.0,0.0,
1.2893,4.055242035914002,4.055242035914002,3.8209096421836897,0.0,0.0,0.0,3.977131238003898,0.0,0.0,0.0,0.0,0.0,0.0,0.0,0.0,0.0,0.0,0.0,0.0,0.0,0.0,
1.3056,4.058250746881249,4.058250746881249,3.82362418163232,0.0,0.0,0.0,3.980041891798273,0.0,0.0,0.0,0.0,0.0,0.0,0.0,0.0,0.0,0.0,0.0,0.0,0.0,0.0,
1.322,4.0613281765482245,4.0613281765482245,3.8264023511451715,0.0,0.0,0.0,3.98301956808054,0.0,0.0,0.0,0.0,0.0,0.0,0.0,0.0,0.0,0.0,0.0,0.0,0.0,0.0,
1.3383,4.064437354627968,4.064437354627968,3.829210866815118,0.0,0.0,0.0,3.9860285253570176,0.0,0.0,0.0,0.0,0.0,0.0,0.0,0.0,0.0,0.0,0.0,0.0,0.0,0.0,
1.3546,4.067597464385926,4.067597464385926,3.8320671359463345,0.0,0.0,0.0,3.989087354906063,0.0,0.0,0.0,0.0,0.0,0.0,0.0,0.0,0.0,0.0,0.0,0.0,0.0,0.0,
1.3709,4.070809093338274,4.070809093338274,3.8349717871870053,0.0,0.0,0.0,3.9921966579545174,0.0,0.0,0.0,0.0,0.0,0.0,0.0,0.0,0.0,0.0,0.0,0.0,0.0,0.0,
1.3872,4.074072845259114,4.074072845259114,3.837925467844657,0.0,0.0,0.0,3.9953570527876288,0.0,0.0,0.0,0.0,0.0,0.0,0.0,0.0,0.0,0.0,0.0,0.0,0.0,0.0,
1.4036,4.077409851415455,4.077409851415455,3.840947424967545,0.0,0.0,0.0,3.998589042599485,0.0,0.0,0.0,0.0,0.0,0.0,0.0,0.0,0.0,0.0,0.0,0.0,0.0,0.0,
1.4199,4.0807800578881395,4.0807800578881395,3.8440014956787856,0.0,0.0,0.0,4.0018538704850215,0.0,0.0,0.0,0.0,0.0,0.0,0.0,0.0,0.0,0.0,0.0,0.0,0.0,0.0,
1.4362,4.084204305884796,4.084204305884796,3.8471066609973104,0.0,0.0,0.0,4.005171757588967,0.0,0.0,0.0,0.0,0.0,0.0,0.0,0.0,0.0,0.0,0.0,0.0,0.0,0.0,
1.4525,4.087683270073747,4.087683270073747,3.8502636500854974,0.0,0.0,0.0,4.00854339674433,0.0,0.0,0.0,0.0,0.0,0.0,0.0,0.0,0.0,0.0,0.0,0.0,0.0,0.0,
1.4688,4.091217644406662,4.091217644406662,3.8534732144962254,0.0,0.0,0.0,4.0119695011031835,0.0,0.0,0.0,0.0,0.0,0.0,0.0,0.0,0.0,0.0,0.0,0.0,0.0,0.0,
1.4852,4.094830345137803,4.094830345137803,3.856756313209557,0.0,0.0,0.0,4.015472334495054,0.0,0.0,0.0,0.0,0.0,0.0,0.0,0.0,0.0,0.0,0.0,0.0,0.0,0.0,
1.5015,4.098478053423841,4.098478053423841,3.860073711577087,0.0,0.0,0.0,4.019009939474923,0.0,0.0,0.0,0.0,0.0,0.0,0.0,0.0,0.0,0.0,0.0,0.0,0.0,0.0,
1.5178,4.102183381307215,4.102183381307215,3.863446088285782,0.0,0.0,0.0,4.022604283633404,0.0,0.0,0.0,0.0,0.0,0.0,0.0,0.0,0.0,0.0,0.0,0.0,0.0,0.0,
1.5341,4.105947107399336,4.105947107399336,3.8668742937369696,0.0,0.0,0.0,4.026256169511881,0.0,0.0,0.0,0.0,0.0,0.0,0.0,0.0,0.0,0.0,0.0,0.0,0.0,0.0,
1.5504,4.1097700334989735,4.1097700334989735,3.8703592055439517,0.0,0.0,0.0,4.029966424180633,0.0,0.0,0.0,0.0,0.0,0.0,0.0,0.0,0.0,0.0,0.0,0.0,0.0,0.0,
1.5668,4.113676994298666,4.113676994298666,3.873923642660468,0.0,0.0,0.0,4.033759210419267,0.0,0.0,0.0,0.0,0.0,0.0,0.0,0.0,0.0,0.0,0.0,0.0,0.0,0.0,
1.5831,4.117621199337082,4.117621199337082,3.8775250767073777,0.0,0.0,0.0,4.037589158460514,0.0,0.0,0.0,0.0,0.0,0.0,0.0,0.0,0.0,0.0,0.0,0.0,0.0,0.0,
1.5994,4.121627163768716,4.121627163768716,3.881186030847529,0.0,0.0,0.0,4.041480119461654,0.0,0.0,0.0,0.0,0.0,0.0,0.0,0.0,0.0,0.0,0.0,0.0,0.0,0.0,
1.6157,4.125695791991104,4.125695791991104,3.884907503681925,0.0,0.0,0.0,4.045433029221377,0.0,0.0,0.0,0.0,0.0,0.0,0.0,0.0,0.0,0.0,0.0,0.0,0.0,0.0,
1.632,4.129828016728522,4.129828016728522,3.888690527357328,0.0,0.0,0.0,4.049448853604791,0.0,0.0,0.0,0.0,0.0,0.0,0.0,0.0,0.0,0.0,0.0,0.0,0.0,0.0,
1.6484,4.134050748670413,4.134050748670413,3.892559957475135,0.0,0.0,0.0,4.053553818271987,0.0,0.0,0.0,0.0,0.0,0.0,0.0,0.0,0.0,0.0,0.0,0.0,0.0,0.0,
1.6647,4.1383134893777145,4.1383134893777145,3.8964697154528265,0.0,0.0,0.0,4.057698898069418,0.0,0.0,0.0,0.0,0.0,0.0,0.0,0.0,0.0,0.0,0.0,0.0,0.0,0.0,
1.681,4.142642813701793,4.142642813701793,3.9004443445567314,0.0,0.0,0.0,4.061909990653439,0.0,0.0,0.0,0.0,0.0,0.0,0.0,0.0,0.0,0.0,0.0,0.0,0.0,0.0,
1.6973,4.147039780868146,4.147039780868146,3.9044850272955163,0.0,0.0,0.0,4.066188196343936,0.0,0.0,0.0,0.0,0.0,0.0,0.0,0.0,0.0,0.0,0.0,0.0,0.0,0.0,
1.7136,4.1515054853623905,4.1515054853623905,3.9085929882122112,0.0,0.0,0.0,4.070534652978997,0.0,0.0,0.0,0.0,0.0,0.0,0.0,0.0,0.0,0.0,0.0,0.0,0.0,0.0,
1.73,4.156069102234791,4.156069102234791,3.912795332910024,0.0,0.0,0.0,4.074977845793202,0.0,0.0,0.0,0.0,0.0,0.0,0.0,0.0,0.0,0.0,0.0,0.0,0.0,0.0,
1.7463,4.160676153869566,4.160676153869566,3.917042135008351,0.0,0.0,0.0,4.079464814249161,0.0,0.0,0.0,0.0,0.0,0.0,0.0,0.0,0.0,0.0,0.0,0.0,0.0,0.0,
1.7626,4.165355462709471,4.165355462709471,3.92136017066143,0.0,0.0,0.0,4.084023698693457,0.0,0.0,0.0,0.0,0.0,0.0,0.0,0.0,0.0,0.0,0.0,0.0,0.0,0.0,
1.7789,4.170108282474521,4.170108282474521,3.9257508546142144,0.0,0.0,0.0,4.088655806521086,0.0,0.0,0.0,0.0,0.0,0.0,0.0,0.0,0.0,0.0,0.0,0.0,0.0,0.0,
1.7952,4.174935911786768,4.174935911786768,3.9302156553007466,0.0,0.0,0.0,4.093362492958094,0.0,0.0,0.0,0.0,0.0,0.0,0.0,0.0,0.0,0.0,0.0,0.0,0.0,0.0,
1.8116,4.179870019004918,4.179870019004918,3.9347841898483433,0.0,0.0,0.0,4.098174742619393,0.0,0.0,0.0,0.0,0.0,0.0,0.0,0.0,0.0,0.0,0.0,0.0,0.0,0.0,
1.8279,4.184851835121448,4.184851835121448,3.939402337254121,0.0,0.0,0.0,4.103035335832339,0.0,0.0,0.0,0.0,0.0,0.0,0.0,0.0,0.0,0.0,0.0,0.0,0.0,0.0,
1.8442,4.189912659783031,4.189912659783031,3.944099368567334,0.0,0.0,0.0,4.107974896044466,0.0,0.0,0.0,0.0,0.0,0.0,0.0,0.0,0.0,0.0,0.0,0.0,0.0,0.0,
1.8605,4.195053997238095,4.195053997238095,3.948876997942137,0.0,0.0,0.0,4.112994997472776,0.0,0.0,0.0,0.0,0.0,0.0,0.0,0.0,0.0,0.0,0.0,0.0,0.0,0.0,
1.8768,4.200277410571124,4.200277410571124,3.9537370097125764,0.0,0.0,0.0,4.118097276951608,0.0,0.0,0.0,0.0,0.0,0.0,0.0,0.0,0.0,0.0,0.0,0.0,0.0,0.0,
1.8932,4.205617345990321,4.205617345990321,3.958711859278895,0.0,0.0,0.0,4.123315517086512,0.0,0.0,0.0,0.0,0.0,0.0,0.0,0.0,0.0,0.0,0.0,0.0,0.0,0.0,
1.9095,4.2110103828279115,4.2110103828279115,3.963742825233696,0.0,0.0,0.0,4.12858786362984,0.0,0.0,0.0,0.0,0.0,0.0,0.0,0.0,0.0,0.0,0.0,0.0,0.0,0.0,
1.9258,4.216490585632695,4.216490585632695,3.968862003012682,0.0,0.0,0.0,4.133947724759357,0.0,0.0,0.0,0.0,0.0,0.0,0.0,0.0,0.0,0.0,0.0,0.0,0.0,0.0,
1.9421,4.222059791810208,4.222059791810208,3.9740715027326234,0.0,0.0,0.0,4.139397028784347,0.0,0.0,0.0,0.0,0.0,0.0,0.0,0.0,0.0,0.0,0.0,0.0,0.0,0.0,
1.9585,4.227754928160033,4.227754928160033,3.979406346980513,0.0,0.0,0.0,4.14497206776686,0.0,0.0,0.0,0.0,0.0,0.0,0.0,0.0,0.0,0.0,0.0,0.0,0.0,0.0,
1.9748,4.233508555242718,4.233508555242718,3.9848037939773637,0.0,0.0,0.0,4.150606968154267,0.0,0.0,0.0,0.0,0.0,0.0,0.0,0.0,0.0,0.0,0.0,0.0,0.0,0.0,
1.9911,4.2393572136832,4.2393572136832,3.9902985003480347,0.0,0.0,0.0,4.156337642571478,0.0,0.0,0.0,0.0,0.0,0.0,0.0,0.0,0.0,0.0,0.0,0.0,0.0,0.0,
2.0074,4.245303096998951,4.245303096998951,3.9958929941891945,0.0,0.0,0.0,4.162166396062365,0.0,0.0,0.0,0.0,0.0,0.0,0.0,0.0,0.0,0.0,0.0,0.0,0.0,0.0,
2.0237,4.251348504619003,4.251348504619003,4.0015899266073625,0.0,0.0,0.0,4.168095645281789,0.0,0.0,0.0,0.0,0.0,0.0,0.0,0.0,0.0,0.0,0.0,0.0,0.0,0.0,
2.0401,4.257533883809285,4.257533883809285,4.007428007455401,0.0,0.0,0.0,4.1741652583579905,0.0,0.0,0.0,0.0,0.0,0.0,0.0,0.0,0.0,0.0,0.0,0.0,0.0,0.0,
2.0564,4.263786353858433,4.263786353858433,4.013338981115753,0.0,0.0,0.0,4.18030389627754,0.0,0.0,0.0,0.0,0.0,0.0,0.0,0.0,0.0,0.0,0.0,0.0,0.0,0.0,
2.0727,4.27014598761877,4.27014598761877,4.019361198944524,0.0,0.0,0.0,4.1865510580606875,0.0,0.0,0.0,0.0,0.0,0.0,0.0,0.0,0.0,0.0,0.0,0.0,0.0,0.0,
2.089,4.276615603604164,4.276615603604164,4.0254979053328555,0.0,0.0,0.0,4.192909704180394,0.0,0.0,0.0,0.0,0.0,0.0,0.0,0.0,0.0,0.0,0.0,0.0,0.0,0.0,
2.1053,4.283198179958289,4.283198179958289,4.031752523817406,0.0,0.0,0.0,4.199382961244662,0.0,0.0,0.0,0.0,0.0,0.0,0.0,0.0,0.0,0.0,0.0,0.0,0.0,0.0,
2.1217,4.289938331265654,4.289938331265654,4.038168172912184,0.0,0.0,0.0,4.206014945147831,0.0,0.0,0.0,0.0,0.0,0.0,0.0,0.0,0.0,0.0,0.0,0.0,0.0,0.0,
2.138,4.296757224161642,4.296757224161642,4.044670463588522,0.0,0.0,0.0,4.212728303970602,0.0,0.0,0.0,0.0,0.0,0.0,0.0,0.0,0.0,0.0,0.0,0.0,0.0,0.0,
