energies(eV),real_xx,real_yy,real_zz,real_xy,real_yz,real_xz,real_ave,imag_xx,imag_yy,imag_zz,imag_xy,imag_yz,imag_xz,imag_ave,absorption_xx,absorption_yy,absorption_zz,absorption_xy,absorption_yz,absorption_xz,absorption_ave,band_gap
0.0,3.356087706818584,3.356087706818584,3.7052005161806036,0.0,0.0,0.0,3.472458643272591,0.0,0.0,0.0,0.0,0.0,0.0,0.0,0.0,0.0,0.0,0.0,0.0,0.0,0.0,3.8297
0.0168,3.3560942194666716,3.3560942194666716,3.705208682909929,0.0,0.0,0.0,3.4724657072810907,0.0,0.0,0.0,0.0,0.0,0.0,0.0,0.0,0.0,0.0,0.0,0.0,0.0,0.0,
0.0336,3.3561137577886737,3.3561137577886737,3.705233183613009,0.0,0.0,0.0,3.4724868997301193,0.0,0.0,0.0,0.0,0.0,0.0,0.0,0.0,0.0,0.0,0.0,0.0,0.0,0.0,
0.0504,3.3561463229178345,3.3561463229178345,3.7052740198352443,0.0,0.0,0.0,3.4725222218903045,0.0,0.0,0.0,0.0,0.0,0.0,0.0,0.0,0.0,0.0,0.0,0.0,0.0,0.0,
0.0672,3.356191916743148,3.356191916743148,3.7053311941527967,0.0,0.0,0.0,3.4725716758796974,0.0,0.0,0.0,0.0,0.0,0.0,0.0,0.0,0.0,0.0,0.0,0.0,0.0,0.0,
0.084,3.3562505419098434,3.3562505419098434,3.705404710173021,0.0,0.0,0.0,3.4726352646642358,0.0,0.0,0.0,0.0,0.0,0.0,0.0,0.0,0.0,0.0,0.0,0.0,0.0,0.0,
0.1008,3.356322201819902,3.356322201819902,3.7054945725354496,0.0,0.0,0.0,3.4727129920584177,0.0,0.0,0.0,0.0,0.0,0.0,0.0,0.0,0.0,0.0,0.0,0.0,0.0,0.0,
0.1176,3.3564069006327846,3.3564069006327846,3.705600786912792,0.0,0.0,0.0,3.4728048627261203,0.0,0.0,0.0,0.0,0.0,0.0,0.0,0.0,0.0,0.0,0.0,0.0,0.0,0.0,
0.1344,3.3565046432664256,3.3565046432664256,3.705723360012257,0.0,0.0,0.0,3.472910882181703,0.0,0.0,0.0,0.0,0.0,0.0,0.0,0.0,0.0,0.0,0.0,0.0,0.0,0.0,
0.1512,3.356615435398221,3.356615435398221,3.7058622995771,0.0,0.0,0.0,3.473031056791181,0.0,0.0,0.0,0.0,0.0,0.0,0.0,0.0,0.0,0.0,0.0,0.0,0.0,0.0,
0.168,3.3567392834663314,3.3567392834663314,3.706017614388466,0.0,0.0,0.0,3.47316539377371,0.0,0.0,0.0,0.0,0.0,0.0,0.0,0.0,0.0,0.0,0.0,0.0,0.0,0.0,
0.1848,3.3568761946711225,3.3568761946711225,3.706189314267383,0.0,0.0,0.0,3.473313901203209,0.0,0.0,0.0,0.0,0.0,0.0,0.0,0.0,0.0,0.0,0.0,0.0,0.0,0.0,
0.2016,3.3570261769766354,3.3570261769766354,3.706377410077046,0.0,0.0,0.0,3.4734765880101057,0.0,0.0,0.0,0.0,0.0,0.0,0.0,0.0,0.0,0.0,0.0,0.0,0.0,0.0,
0.2184,3.3571892391124947,3.3571892391124947,3.7065819137253873,0.0,0.0,0.0,3.473653463983459,0.0,0.0,0.0,0.0,0.0,0.0,0.0,0.0,0.0,0.0,0.0,0.0,0.0,0.0,
0.2352,3.3573653905756915,3.3573653905756915,3.7068028381678233,0.0,0.0,0.0,3.4738445397730686,0.0,0.0,0.0,0.0,0.0,0.0,0.0,0.0,0.0,0.0,0.0,0.0,0.0,0.0,
0.252,3.3575546416327784,3.3575546416327784,3.7070401974102496,0.0,0.0,0.0,3.4740498268919353,0.0,0.0,0.0,0.0,0.0,0.0,0.0,0.0,0.0,0.0,0.0,0.0,0.0,0.0,
0.2688,3.3577570033221003,3.3577570033221003,3.7072940065123676,0.0,0.0,0.0,3.4742693377188565,0.0,0.0,0.0,0.0,0.0,0.0,0.0,0.0,0.0,0.0,0.0,0.0,0.0,0.0,
0.2856,3.357972487456244,3.357972487456244,3.707564281591182,0.0,0.0,0.0,3.4745030855012238,0.0,0.0,0.0,0.0,0.0,0.0,0.0,0.0,0.0,0.0,0.0,0.0,0.0,0.0,
0.3024,3.358201106624669,3.358201106624669,3.7078510398247415,0.0,0.0,0.0,3.4747510843580263,0.0,0.0,0.0,0.0,0.0,0.0,0.0,0.0,0.0,0.0,0.0,0.0,0.0,0.0,
0.3192,3.358442874196418,3.358442874196418,3.7081542994562913,0.0,0.0,0.0,3.475013349283042,0.0,0.0,0.0,0.0,0.0,0.0,0.0,0.0,0.0,0.0,0.0,0.0,0.0,0.0,
0.336,3.358697804323271,3.358697804323271,3.7084740797983753,0.0,0.0,0.0,3.475289896148306,0.0,0.0,0.0,0.0,0.0,0.0,0.0,0.0,0.0,0.0,0.0,0.0,0.0,0.0,
0.3527,3.3589642770482206,3.3589642770482206,3.7088083503461324,0.0,0.0,0.0,3.475578968147525,0.0,0.0,0.0,0.0,0.0,0.0,0.0,0.0,0.0,0.0,0.0,0.0,0.0,0.0,
0.3695,3.3592454993077925,3.3592454993077925,3.709161135695426,0.0,0.0,0.0,3.475884044770337,0.0,0.0,0.0,0.0,0.0,0.0,0.0,0.0,0.0,0.0,0.0,0.0,0.0,0.0,
0.3863,3.35953993120522,3.35953993120522,3.7095305060188517,0.0,0.0,0.0,3.476203456143097,0.0,0.0,0.0,0.0,0.0,0.0,0.0,0.0,0.0,0.0,0.0,0.0,0.0,0.0,
0.4031,3.359847590051382,3.359847590051382,3.70991648494827,0.0,0.0,0.0,3.476537221683678,0.0,0.0,0.0,0.0,0.0,0.0,0.0,0.0,0.0,0.0,0.0,0.0,0.0,0.0,
0.4199,3.3601684939574095,3.3601684939574095,3.710319097210285,0.0,0.0,0.0,3.476885361708368,0.0,0.0,0.0,0.0,0.0,0.0,0.0,0.0,0.0,0.0,0.0,0.0,0.0,0.0,
0.4367,3.3605026618387033,3.3605026618387033,3.7107383686321955,0.0,0.0,0.0,3.477247897436534,0.0,0.0,0.0,0.0,0.0,0.0,0.0,0.0,0.0,0.0,0.0,0.0,0.0,0.0,
0.4535,3.3608501134192297,3.3608501134192297,3.7111743261480994,0.0,0.0,0.0,3.4776248509955194,0.0,0.0,0.0,0.0,0.0,0.0,0.0,0.0,0.0,0.0,0.0,0.0,0.0,0.0,
0.4703,3.361210869236064,3.361210869236064,3.7116269978054146,0.0,0.0,0.0,3.4780162454258474,0.0,0.0,0.0,0.0,0.0,0.0,0.0,0.0,0.0,0.0,0.0,0.0,0.0,0.0,
0.4871,3.361584950643937,3.361584950643937,3.712096412771545,0.0,0.0,0.0,3.478422104686473,0.0,0.0,0.0,0.0,0.0,0.0,0.0,0.0,0.0,0.0,0.0,0.0,0.0,0.0,
0.5039,3.361972379820173,3.361972379820173,3.71258260134094,0.0,0.0,0.0,3.4788424536604285,0.0,0.0,0.0,0.0,0.0,0.0,0.0,0.0,0.0,0.0,0.0,0.0,0.0,0.0,
0.5207,3.3623731797697514,3.3623731797697514,3.7130855949423753,0.0,0.0,0.0,3.479277318160626,0.0,0.0,0.0,0.0,0.0,0.0,0.0,0.0,0.0,0.0,0.0,0.0,0.0,0.0,
0.5375,3.362787374330554,3.362787374330554,3.7136054261466684,0.0,0.0,0.0,3.479726724935926,0.0,0.0,0.0,0.0,0.0,0.0,0.0,0.0,0.0,0.0,0.0,0.0,0.0,0.0,
0.5543,3.363214988178881,3.363214988178881,3.7141421286744136,0.0,0.0,0.0,3.480190701677392,0.0,0.0,0.0,0.0,0.0,0.0,0.0,0.0,0.0,0.0,0.0,0.0,0.0,0.0,
0.5711,3.363656046835097,3.363656046835097,3.714695737404375,0.0,0.0,0.0,3.4806692770248566,0.0,0.0,0.0,0.0,0.0,0.0,0.0,0.0,0.0,0.0,0.0,0.0,0.0,0.0,
0.5879,3.3641105766695762,3.3641105766695762,3.7152662883819416,0.0,0.0,0.0,3.481162480573698,0.0,0.0,0.0,0.0,0.0,0.0,0.0,0.0,0.0,0.0,0.0,0.0,0.0,0.0,
0.6047,3.364578604908856,3.364578604908856,3.7158538188279664,0.0,0.0,0.0,3.481670342881893,0.0,0.0,0.0,0.0,0.0,0.0,0.0,0.0,0.0,0.0,0.0,0.0,0.0,0.0,
0.6215,3.365060159641873,3.365060159641873,3.7164583671479297,0.0,0.0,0.0,3.4821928954772257,0.0,0.0,0.0,0.0,0.0,0.0,0.0,0.0,0.0,0.0,0.0,0.0,0.0,0.0,
0.6383,3.3655552698266558,3.3655552698266558,3.717079972941497,0.0,0.0,0.0,3.4827301708649365,0.0,0.0,0.0,0.0,0.0,0.0,0.0,0.0,0.0,0.0,0.0,0.0,0.0,0.0,
0.6551,3.3660639652970437,3.3660639652970437,3.717718677012294,0.0,0.0,0.0,3.483282202535461,0.0,0.0,0.0,0.0,0.0,0.0,0.0,0.0,0.0,0.0,0.0,0.0,0.0,0.0,
0.6719,3.3665862767697714,3.3665862767697714,3.718374521378059,0.0,0.0,0.0,3.483849024972534,0.0,0.0,0.0,0.0,0.0,0.0,0.0,0.0,0.0,0.0,0.0,0.0,0.0,0.0,
0.6887,3.367122235851683,3.367122235851683,3.7190475492811923,0.0,0.0,0.0,3.484430673661519,0.0,0.0,0.0,0.0,0.0,0.0,0.0,0.0,0.0,0.0,0.0,0.0,0.0,0.0,
0.7055,3.3676718750473182,3.3676718750473182,3.7197378051996,0.0,0.0,0.0,3.485027185098079,0.0,0.0,0.0,0.0,0.0,0.0,0.0,0.0,0.0,0.0,0.0,0.0,0.0,0.0,
0.7223,3.3682352277666325,3.3682352277666325,3.7204453348579416,0.0,0.0,0.0,3.485638596797069,0.0,0.0,0.0,0.0,0.0,0.0,0.0,0.0,0.0,0.0,0.0,0.0,0.0,0.0,
0.7391,3.368812328332967,3.368812328332967,3.721170185239154,0.0,0.0,0.0,3.4862649473016964,0.0,0.0,0.0,0.0,0.0,0.0,0.0,0.0,0.0,0.0,0.0,0.0,0.0,0.0,
0.7559,3.369403211991354,3.369403211991354,3.721912404596447,0.0,0.0,0.0,3.486906276193052,0.0,0.0,0.0,0.0,0.0,0.0,0.0,0.0,0.0,0.0,0.0,0.0,0.0,0.0,
0.7727,3.370007914917083,3.370007914917083,3.722672042465662,0.0,0.0,0.0,3.4875626240999424,0.0,0.0,0.0,0.0,0.0,0.0,0.0,0.0,0.0,0.0,0.0,0.0,0.0,0.0,
0.7895,3.3706264742243968,3.3706264742243968,3.7234491496779256,0.0,0.0,0.0,3.488234032708906,0.0,0.0,0.0,0.0,0.0,0.0,0.0,0.0,0.0,0.0,0.0,0.0,0.0,0.0,
0.8063,3.371258927975607,3.371258927975607,3.7242437783727858,0.0,0.0,0.0,3.4889205447746665,0.0,0.0,0.0,0.0,0.0,0.0,0.0,0.0,0.0,0.0,0.0,0.0,0.0,0.0,
0.8231,3.3719053151904763,3.3719053151904763,3.7250559820118405,0.0,0.0,0.0,3.489622204130931,0.0,0.0,0.0,0.0,0.0,0.0,0.0,0.0,0.0,0.0,0.0,0.0,0.0,0.0,
0.8399,3.3725656758557205,3.3725656758557205,3.725885815392471,0.0,0.0,0.0,3.490339055701304,0.0,0.0,0.0,0.0,0.0,0.0,0.0,0.0,0.0,0.0,0.0,0.0,0.0,0.0,
0.8567,3.3732400509350184,3.3732400509350184,3.7267333346623417,0.0,0.0,0.0,3.491071145510793,0.0,0.0,0.0,0.0,0.0,0.0,0.0,0.0,0.0,0.0,0.0,0.0,0.0,0.0,
0.8735,3.373928482379201,3.373928482379201,3.7275985973341412,0.0,0.0,0.0,3.4918185206975143,0.0,0.0,0.0,0.0,0.0,0.0,0.0,0.0,0.0,0.0,0.0,0.0,0.0,0.0,
0.8903,3.3746310131367236,3.3746310131367236,3.7284816623007857,0.0,0.0,0.0,3.492581229524744,0.0,0.0,0.0,0.0,0.0,0.0,0.0,0.0,0.0,0.0,0.0,0.0,0.0,0.0,
0.9071,3.375347687164501,3.375347687164501,3.7293825898511215,0.0,0.0,0.0,3.4933593213933745,0.0,0.0,0.0,0.0,0.0,0.0,0.0,0.0,0.0,0.0,0.0,0.0,0.0,0.0,
0.9239,3.3760785494390375,3.3760785494390375,3.730301441686033,0.0,0.0,0.0,3.494152846854703,0.0,0.0,0.0,0.0,0.0,0.0,0.0,0.0,0.0,0.0,0.0,0.0,0.0,0.0,
0.9407,3.376823645967875,3.376823645967875,3.731238280935026,0.0,0.0,0.0,3.494961857623592,0.0,0.0,0.0,0.0,0.0,0.0,0.0,0.0,0.0,0.0,0.0,0.0,0.0,0.0,
0.9575,3.3775830238013564,3.3775830238013564,3.732193172173391,0.0,0.0,0.0,3.495786406592035,0.0,0.0,0.0,0.0,0.0,0.0,0.0,0.0,0.0,0.0,0.0,0.0,0.0,0.0,
0.9743,3.3783567310448133,3.3783567310448133,3.7331661814396653,0.0,0.0,0.0,3.4966265478430976,0.0,0.0,0.0,0.0,0.0,0.0,0.0,0.0,0.0,0.0,0.0,0.0,0.0,0.0,
0.9911,3.37914481687093,3.37914481687093,3.734157376253815,0.0,0.0,0.0,3.4974823366652252,0.0,0.0,0.0,0.0,0.0,0.0,0.0,0.0,0.0,0.0,0.0,0.0,0.0,0.0,
1.0079,3.379947331532654,3.379947331532654,3.735166825635779,0.0,0.0,0.0,3.4983538295670287,0.0,0.0,0.0,0.0,0.0,0.0,0.0,0.0,0.0,0.0,0.0,0.0,0.0,0.0,
1.0247,3.380764326376325,3.380764326376325,3.7361946001246205,0.0,0.0,0.0,3.4992410842924238,0.0,0.0,0.0,0.0,0.0,0.0,0.0,0.0,0.0,0.0,0.0,0.0,0.0,0.0,
1.0415,3.381595853855234,3.381595853855234,3.737240771798209,0.0,0.0,0.0,3.5001441598362253,0.0,0.0,0.0,0.0,0.0,0.0,0.0,0.0,0.0,0.0,0.0,0.0,0.0,0.0,
1.0582,3.3824368878926223,3.3824368878926223,3.7382990223430994,0.0,0.0,0.0,3.5010575993761144,0.0,0.0,0.0,0.0,0.0,0.0,0.0,0.0,0.0,0.0,0.0,0.0,0.0,0.0,
1.075,3.3832975551874065,3.3832975551874065,3.739382100257944,0.0,0.0,0.0,3.5019924035442522,0.0,0.0,0.0,0.0,0.0,0.0,0.0,0.0,0.0,0.0,0.0,0.0,0.0,0.0,
1.0918,3.384172918924504,3.384172918924504,3.740483800567063,0.0,0.0,0.0,3.502943212805357,0.0,0.0,0.0,0.0,0.0,0.0,0.0,0.0,0.0,0.0,0.0,0.0,0.0,0.0,
1.1086,3.3850630361214025,3.3850630361214025,3.741604201701931,0.0,0.0,0.0,3.503910091314912,0.0,0.0,0.0,0.0,0.0,0.0,0.0,0.0,0.0,0.0,0.0,0.0,0.0,0.0,
1.1254,3.3859679649761687,3.3859679649761687,3.742743383739739,0.0,0.0,0.0,3.5048931045640255,0.0,0.0,0.0,0.0,0.0,0.0,0.0,0.0,0.0,0.0,0.0,0.0,0.0,0.0,
1.1422,3.3868877648833813,3.3868877648833813,3.7439014284265264,0.0,0.0,0.0,3.5058923193977627,0.0,0.0,0.0,0.0,0.0,0.0,0.0,0.0,0.0,0.0,0.0,0.0,0.0,0.0,
1.159,3.3878224964506285,3.3878224964506285,3.7450784192013233,0.0,0.0,0.0,3.5069078040341934,0.0,0.0,0.0,0.0,0.0,0.0,0.0,0.0,0.0,0.0,0.0,0.0,0.0,0.0,
1.1758,3.3887722215153806,3.3887722215153806,3.746274441220453,0.0,0.0,0.0,3.5079396280837383,0.0,0.0,0.0,0.0,0.0,0.0,0.0,0.0,0.0,0.0,0.0,0.0,0.0,0.0,
1.1926,3.389737003162341,3.389737003162341,3.747489581382981,0.0,0.0,0.0,3.508987862569221,0.0,0.0,0.0,0.0,0.0,0.0,0.0,0.0,0.0,0.0,0.0,0.0,0.0,0.0,
1.2094,3.390716905741317,3.390716905741317,3.7487239283565703,0.0,0.0,0.0,3.5100525799464015,0.0,0.0,0.0,0.0,0.0,0.0,0.0,0.0,0.0,0.0,0.0,0.0,0.0,0.0,
1.2262,3.391711994885524,3.391711994885524,3.7499775726042652,0.0,0.0,0.0,3.5111338541251045,0.0,0.0,0.0,0.0,0.0,0.0,0.0,0.0,0.0,0.0,0.0,0.0,0.0,0.0,
1.243,3.3927223375304876,3.3927223375304876,3.7512506064118414,0.0,0.0,0.0,3.512231760490939,0.0,0.0,0.0,0.0,0.0,0.0,0.0,0.0,0.0,0.0,0.0,0.0,0.0,0.0,
1.2598,3.393748001933367,3.393748001933367,3.7525431239160674,0.0,0.0,0.0,3.5133463759276005,0.0,0.0,0.0,0.0,0.0,0.0,0.0,0.0,0.0,0.0,0.0,0.0,0.0,0.0,
1.2766,3.3947890576929063,3.3947890576929063,3.753855221133696,0.0,0.0,0.0,3.5144777788398365,0.0,0.0,0.0,0.0,0.0,0.0,0.0,0.0,0.0,0.0,0.0,0.0,0.0,0.0,
1.2934,3.3958455757698665,3.3958455757698665,3.7551869959912794,0.0,0.0,0.0,3.5156260491770044,0.0,0.0,0.0,0.0,0.0,0.0,0.0,0.0,0.0,0.0,0.0,0.0,0.0,0.0,
1.3102,3.3969176285081226,3.3969176285081226,3.756538548355877,0.0,0.0,0.0,3.5167912684573737,0.0,0.0,0.0,0.0,0.0,0.0,0.0,0.0,0.0,0.0,0.0,0.0,0.0,0.0,
1.327,3.3980052896562154,3.3980052896562154,3.757909980066492,0.0,0.0,0.0,3.5179735197929745,0.0,0.0,0.0,0.0,0.0,0.0,0.0,0.0,0.0,0.0,0.0,0.0,0.0,0.0,
1.3438,3.3991086343896595,3.3991086343896595,3.759301394966547,0.0,0.0,0.0,3.5191728879152886,0.0,0.0,0.0,0.0,0.0,0.0,0.0,0.0,0.0,0.0,0.0,0.0,0.0,0.0,
1.3606,3.400227739333737,3.400227739333737,3.760712898937213,0.0,0.0,0.0,3.5203894592015623,0.0,0.0,0.0,0.0,0.0,0.0,0.0,0.0,0.0,0.0,0.0,0.0,0.0,0.0,
1.3774,3.4013626825870364,3.4013626825870364,3.762144599931622,0.0,0.0,0.0,3.5216233217018984,0.0,0.0,0.0,0.0,0.0,0.0,0.0,0.0,0.0,0.0,0.0,0.0,0.0,0.0,
1.3942,3.402513543745601,3.402513543745601,3.7635966080102485,0.0,0.0,0.0,3.5228745651671503,0.0,0.0,0.0,0.0,0.0,0.0,0.0,0.0,0.0,0.0,0.0,0.0,0.0,0.0,
1.411,3.403680403927765,3.403680403927765,3.7650690353769938,0.0,0.0,0.0,3.524143281077508,0.0,0.0,0.0,0.0,0.0,0.0,0.0,0.0,0.0,0.0,0.0,0.0,0.0,0.0,
1.4278,3.4048633457996935,3.4048633457996935,3.7665619964166206,0.0,0.0,0.0,3.5254295626720022,0.0,0.0,0.0,0.0,0.0,0.0,0.0,0.0,0.0,0.0,0.0,0.0,0.0,0.0,
1.4446,3.4060624536016553,3.4060624536016553,3.7680756077330666,0.0,0.0,0.0,3.5267335049787927,0.0,0.0,0.0,0.0,0.0,0.0,0.0,0.0,0.0,0.0,0.0,0.0,0.0,0.0,
1.4614,3.4072778131750665,3.4072778131750665,3.769609988188843,0.0,0.0,0.0,3.5280552048463254,0.0,0.0,0.0,0.0,0.0,0.0,0.0,0.0,0.0,0.0,0.0,0.0,0.0,0.0,
1.4782,3.408509511990242,3.408509511990242,3.77116525894573,0.0,0.0,0.0,3.529394760975405,0.0,0.0,0.0,0.0,0.0,0.0,0.0,0.0,0.0,0.0,0.0,0.0,0.0,0.0,
1.495,3.409757639175008,3.409757639175008,3.7727415435065015,0.0,0.0,0.0,3.5307522739521726,0.0,0.0,0.0,0.0,0.0,0.0,0.0,0.0,0.0,0.0,0.0,0.0,0.0,0.0,
1.5118,3.4110222855440724,3.4110222855440724,3.7743389677579002,0.0,0.0,0.0,3.5321278462820147,0.0,0.0,0.0,0.0,0.0,0.0,0.0,0.0,0.0,0.0,0.0,0.0,0.0,0.0,
1.5286,3.412303543629348,3.412303543629348,3.775957660014912,0.0,0.0,0.0,3.533521582424536,0.0,0.0,0.0,0.0,0.0,0.0,0.0,0.0,0.0,0.0,0.0,0.0,0.0,0.0,
1.5454,3.4136015077109896,3.4136015077109896,3.77759775106625,0.0,0.0,0.0,3.5349335888294093,0.0,0.0,0.0,0.0,0.0,0.0,0.0,0.0,0.0,0.0,0.0,0.0,0.0,0.0,
1.5622,3.4149162738495273,3.4149162738495273,3.77925937422131,0.0,0.0,0.0,3.536363973973455,0.0,0.0,0.0,0.0,0.0,0.0,0.0,0.0,0.0,0.0,0.0,0.0,0.0,0.0,
1.579,3.4162479399187977,3.4162479399187977,3.7809426653583187,0.0,0.0,0.0,3.5378128483986377,0.0,0.0,0.0,0.0,0.0,0.0,0.0,0.0,0.0,0.0,0.0,0.0,0.0,0.0,
1.5958,3.417596605639841,3.417596605639841,3.7826477629740496,0.0,0.0,0.0,3.539280324751244,0.0,0.0,0.0,0.0,0.0,0.0,0.0,0.0,0.0,0.0,0.0,0.0,0.0,0.0,
1.6126,3.418962372615947,3.418962372615947,3.7843748082350093,0.0,0.0,0.0,3.5407665178223007,0.0,0.0,0.0,0.0,0.0,0.0,0.0,0.0,0.0,0.0,0.0,0.0,0.0,0.0,
1.6294,3.4203453443685174,3.4203453443685174,3.7861239450301123,0.0,0.0,0.0,3.542271544589049,0.0,0.0,0.0,0.0,0.0,0.0,0.0,0.0,0.0,0.0,0.0,0.0,0.0,0.0,
1.6462,3.42174562637419,3.42174562637419,3.7878953200248926,0.0,0.0,0.0,3.543795524257758,0.0,0.0,0.0,0.0,0.0,0.0,0.0,0.0,0.0,0.0,0.0,0.0,0.0,0.0,
1.663,3.4231633261029155,3.4231633261029155,3.7896890827174428,0.0,0.0,0.0,3.545338578307758,0.0,0.0,0.0,0.0,0.0,0.0,0.0,0.0,0.0,0.0,0.0,0.0,0.0,0.0,
1.6798,3.424598553057339,3.424598553057339,3.7915053854960283,0.0,0.0,0.0,3.5469008305369023,0.0,0.0,0.0,0.0,0.0,0.0,0.0,0.0,0.0,0.0,0.0,0.0,0.0,0.0,
1.6966,3.426051418813198,3.426051418813198,3.793344383698391,0.0,0.0,0.0,3.548482407108262,0.0,0.0,0.0,0.0,0.0,0.0,0.0,0.0,0.0,0.0,0.0,0.0,0.0,0.0,
1.7134,3.4275220370610957,3.4275220370610957,3.7952062356729095,0.0,0.0,0.0,3.550083436598367,0.0,0.0,0.0,0.0,0.0,0.0,0.0,0.0,0.0,0.0,0.0,0.0,0.0,0.0,
1.7302,3.429010523649419,3.429010523649419,3.797091102841679,0.0,0.0,0.0,3.551704050046839,0.0,0.0,0.0,0.0,0.0,0.0,0.0,0.0,0.0,0.0,0.0,0.0,0.0,0.0,
1.7469,3.4305079760798765,3.4305079760798765,3.798987723438271,0.0,0.0,0.0,3.5533345585326743,0.0,0.0,0.0,0.0,0.0,0.0,0.0,0.0,0.0,0.0,0.0,0.0,0.0,0.0,
1.7637,3.4320324476100095,3.4320324476100095,3.800918978407414,0.0,0.0,0.0,3.5549946245424775,0.0,0.0,0.0,0.0,0.0,0.0,0.0,0.0,0.0,0.0,0.0,0.0,0.0,0.0,
1.7805,3.43357514768582,3.43357514768582,3.8028737509113295,0.0,0.0,0.0,3.556674682094323,0.0,0.0,0.0,0.0,0.0,0.0,0.0,0.0,0.0,0.0,0.0,0.0,0.0,0.0,
1.7973,3.4351362012297053,3.4351362012297053,3.8048522153171476,0.0,0.0,0.0,3.5583748725921858,0.0,0.0,0.0,0.0,0.0,0.0,0.0,0.0,0.0,0.0,0.0,0.0,0.0,0.0,
1.8141,3.4367157355571702,3.4367157355571702,3.8068545494111605,0.0,0.0,0.0,3.5600953401751667,0.0,0.0,0.0,0.0,0.0,0.0,0.0,0.0,0.0,0.0,0.0,0.0,0.0,0.0,
1.8309,3.4383138804284763,3.4383138804284763,3.8088809344747214,0.0,0.0,0.0,3.5618362317772245,0.0,0.0,0.0,0.0,0.0,0.0,0.0,0.0,0.0,0.0,0.0,0.0,0.0,0.0,
1.8477,3.4399307681019264,3.4399307681019264,3.810931555362324,0.0,0.0,0.0,3.563597697188726,0.0,0.0,0.0,0.0,0.0,0.0,0.0,0.0,0.0,0.0,0.0,0.0,0.0,0.0,
1.8645,3.441566533388804,3.441566533388804,3.8130066005826313,0.0,0.0,0.0,3.5653798891200794,0.0,0.0,0.0,0.0,0.0,0.0,0.0,0.0,0.0,0.0,0.0,0.0,0.0,0.0,
1.8813,3.4432213137100995,3.4432213137100995,3.8151062623816365,0.0,0.0,0.0,3.5671829632672782,0.0,0.0,0.0,0.0,0.0,0.0,0.0,0.0,0.0,0.0,0.0,0.0,0.0,0.0,
1.8981,3.444895249155089,3.444895249155089,3.8172307368290737,0.0,0.0,0.0,3.5690070783797503,0.0,0.0,0.0,0.0,0.0,0.0,0.0,0.0,0.0,0.0,0.0,0.0,0.0,0.0,
1.9149,3.4465884825417876,3.4465884825417876,3.8193802239070136,0.0,0.0,0.0,3.570852396330196,0.0,0.0,0.0,0.0,0.0,0.0,0.0,0.0,0.0,0.0,0.0,0.0,0.0,0.0,
1.9317,3.4483011594793793,3.4483011594793793,3.821554927602078,0.0,0.0,0.0,3.572719082186946,0.0,0.0,0.0,0.0,0.0,0.0,0.0,0.0,0.0,0.0,0.0,0.0,0.0,0.0,
1.9485,3.450033428432706,3.450033428432706,3.823755056000146,0.0,0.0,0.0,3.5746073042885196,0.0,0.0,0.0,0.0,0.0,0.0,0.0,0.0,0.0,0.0,0.0,0.0,0.0,0.0,
1.9653,3.451785440788955,3.451785440788955,3.825980821384439,0.0,0.0,0.0,3.5765172343207836,0.0,0.0,0.0,0.0,0.0,0.0,0.0,0.0,0.0,0.0,0.0,0.0,0.0,0.0,
1.9821,3.453557350926427,3.453557350926427,3.828232440337089,0.0,0.0,0.0,3.5784490473966475,0.0,0.0,0.0,0.0,0.0,0.0,0.0,0.0,0.0,0.0,0.0,0.0,0.0,0.0,
1.9989,3.4553493162857842,3.4553493162857842,3.830510133843819,0.0,0.0,0.0,3.5804029221384623,0.0,0.0,0.0,0.0,0.0,0.0,0.0,0.0,0.0,0.0,0.0,0.0,0.0,0.0,
2.0157,3.45716149744361,3.45716149744361,3.8328141274023695,0.0,0.0,0.0,3.582379040763197,0.0,0.0,0.0,0.0,0.0,0.0,0.0,0.0,0.0,0.0,0.0,0.0,0.0,0.0,
2.0325,3.4589940581884435,3.4589940581884435,3.8351446511346587,0.0,0.0,0.0,3.584377589170515,0.0,0.0,0.0,0.0,0.0,0.0,0.0,0.0,0.0,0.0,0.0,0.0,0.0,0.0,
2.0493,3.460847165599552,3.460847165599552,3.8375019399027126,0.0,0.0,0.0,3.586398757033939,0.0,0.0,0.0,0.0,0.0,0.0,0.0,0.0,0.0,0.0,0.0,0.0,0.0,0.0,
2.0661,3.4627209901282736,3.4627209901282736,3.8398862334287216,0.0,0.0,0.0,3.5884427378950896,0.0,0.0,0.0,0.0,0.0,0.0,0.0,0.0,0.0,0.0,0.0,0.0,0.0,0.0,
2.0829,3.4646157056823412,3.4646157056823412,3.842297776419327,0.0,0.0,0.0,3.5905097292613366,0.0,0.0,0.0,0.0,0.0,0.0,0.0,0.0,0.0,0.0,0.0,0.0,0.0,0.0,
2.0997,3.466531489712961,3.466531489712961,3.8447368186942277,0.0,0.0,0.0,3.5925999327067166,0.0,0.0,0.0,0.0,0.0,0.0,0.0,0.0,0.0,0.0,0.0,0.0,0.0,0.0,
2.1165,3.468468523305256,3.468468523305256,3.847203615319266,0.0,0.0,0.0,3.594713553976593,0.0,0.0,0.0,0.0,0.0,0.0,0.0,0.0,0.0,0.0,0.0,0.0,0.0,0.0,
2.1333,3.470426991271623,3.470426991271623,3.8496984267445766,0.0,0.0,0.0,3.596850803095941,0.0,0.0,0.0,0.0,0.0,0.0,0.0,0.0,0.0,0.0,0.0,0.0,0.0,0.0,
2.1501,3.4724070822486577,3.4724070822486577,3.852221518947463,0.0,0.0,0.0,3.599011894481593,0.0,0.0,0.0,0.0,0.0,0.0,0.0,0.0,0.0,0.0,0.0,0.0,0.0,0.0,
2.1669,3.4744089887974603,3.4744089887974603,3.854773163580516,0.0,0.0,0.0,3.601197047058479,0.0,0.0,0.0,0.0,0.0,0.0,0.0,0.0,0.0,0.0,0.0,0.0,0.0,0.0,
2.1837,3.4764329075076836,3.4764329075076836,3.8573536381252627,0.0,0.0,0.0,3.60340648438021,0.0,0.0,0.0,0.0,0.0,0.0,0.0,0.0,0.0,0.0,0.0,0.0,0.0,0.0,
