energies(eV),real_xx,real_yy,real_zz,real_xy,real_yz,real_xz,real_ave,imag_xx,imag_yy,imag_zz,imag_xy,imag_yz,imag_xz,imag_ave,absorption_xx,absorption_yy,absorption_zz,absorption_xy,absorption_yz,absorption_xz,absorption_ave,band_gap
0.0,2.905477795388933,2.704071008942274,3.081357198286729,0.0,0.0,-0.0930715971870916,2.896968667539312,0.0,0.0,0.0,0.0,0.0,0.0,0.0,0.0,0.0,0.0,0.0,0.0,0.0,0.0,4.3373
0.0136,2.905482040385864,2.7040743932730704,3.0813620647281996,0.0,0.0,-0.09307200229245777,2.8969728327957114,0.0,0.0,0.0,0.0,0.0,0.0,0.0,0.0,0.0,0.0,0.0,0.0,420.5251383049603,0.0,
0.0272,2.905494775562865,2.7040845463990815,3.081376664255086,0.0,0.0,-0.09307321762904565,2.8969853287390115,0.0,0.0,0.0,0.0,0.0,0.0,0.0,0.0,0.0,0.0,0.0,0.0,841.0557678200128,0.0,
0.0408,2.90551600147867,2.704101468721208,3.081400997474756,0.0,0.0,-0.09307524325833194,2.8970061558915448,0.0,0.0,0.0,0.0,0.0,0.0,0.0,0.0,0.0,0.0,0.0,0.0,1261.5973800986787,0.0,
0.0544,2.90554571906456,2.7041251609076578,3.0814350653996287,0.0,0.0,-0.09307807928278504,2.8970353151239485,0.0,0.0,0.0,0.0,0.0,0.0,0.0,0.0,0.0,0.0,0.0,0.0,1682.1554673813823,0.0,
0.068,2.9055839296245214,2.70415562389407,3.0814788694472424,0.0,0.0,-0.09308172584587737,2.897072807655278,0.0,0.0,0.0,0.0,0.0,0.0,0.0,0.0,0.0,0.0,0.0,0.0,2102.7355229390164,0.0,
0.0816,2.90563063483543,2.7041928588836095,3.081532411440471,0.0,0.0,-0.09308618313210455,2.8971186350531704,0.0,0.0,0.0,0.0,0.0,0.0,0.0,0.0,0.0,0.0,0.0,0.0,2523.3430414166637,0.0,
0.0952,2.905685836747275,2.704236867347163,3.0815956936077455,0.0,0.0,-0.09309145136700782,2.897172799234061,0.0,0.0,0.0,0.0,0.0,0.0,0.0,0.0,0.0,0.0,0.0,0.0,2943.9835191775173,0.0,
0.1088,2.905749537783498,2.704287651023524,3.081668718583319,0.0,0.0,-0.09309753081719906,2.897235302463447,0.0,0.0,0.0,0.0,0.0,0.0,0.0,0.0,0.0,0.0,0.0,0.0,3364.662454646981,0.0,
0.1225,2.905822303139925,2.704345660266425,3.0817521341186764,0.0,0.0,-0.09310447546563612,2.8973066991750085,0.0,0.0,0.0,0.0,0.0,0.0,0.0,0.0,0.0,0.0,0.0,0.0,3788.479075785538,0.0,
0.1361,2.9059030737408085,2.704410050515923,3.081844725938435,0.0,0.0,-0.09311218428174305,2.8973859500650554,0.0,0.0,0.0,0.0,0.0,0.0,0.0,0.0,0.0,0.0,0.0,0.0,4209.251816002088,0.0,
0.1497,2.9059923530081093,2.7044812228242994,3.0819470709377303,0.0,0.0,-0.09312070536278795,2.8974735489233794,0.0,0.0,0.0,0.0,0.0,0.0,0.0,0.0,0.0,0.0,0.0,0.0,4630.079565525728,0.0,
0.1633,2.906090144865753,2.7045591800066875,3.082059173381014,0.0,0.0,-0.09313003914035337,2.897569499417818,0.0,0.0,0.0,0.0,0.0,0.0,0.0,0.0,0.0,0.0,0.0,0.0,5050.967834505366,0.0,
0.1769,2.906196453613357,2.7046439251477086,3.0821810379407713,0.0,0.0,-0.09314018608731235,2.8976738055672793,0.0,0.0,0.0,0.0,0.0,0.0,0.0,0.0,0.0,0.0,0.0,0.0,5471.922136880813,0.0,
0.1905,2.9063112839268923,2.704735461601857,3.0823126696981125,0.0,0.0,-0.09315114671788109,2.8977864717422874,0.0,0.0,0.0,0.0,0.0,0.0,0.0,0.0,0.0,0.0,0.0,0.0,5892.94799072926,0.0,
0.2041,2.9064346408593087,2.704833792993993,3.0824540741434117,0.0,0.0,-0.09316292158768448,2.8979075026655714,0.0,0.0,0.0,0.0,0.0,0.0,0.0,0.0,0.0,0.0,0.0,0.0,6314.050918612523,0.0,
0.2177,2.906566529841335,2.704938923219791,3.0826052571770393,0.0,0.0,-0.09317551129382393,2.898036903412722,0.0,0.0,0.0,0.0,0.0,0.0,0.0,0.0,0.0,0.0,0.0,0.0,6735.236447924845,0.0,
0.2313,2.90670695668219,2.7050508564463778,3.082766225110058,0.0,0.0,-0.09318891647494987,2.8981746794128753,0.0,0.0,0.0,0.0,0.0,0.0,0.0,0.0,0.0,0.0,0.0,0.0,7156.5101112413595,0.0,
0.2449,2.90685592757046,2.7051695971127616,3.0829369846650514,0.0,0.0,-0.09320313781134269,2.898320836449425,0.0,0.0,0.0,0.0,0.0,0.0,0.0,0.0,0.0,0.0,0.0,0.0,7577.877446667393,0.0,
0.2585,2.9070134490749964,2.705295149930551,3.083117542977033,0.0,0.0,-0.09321817602499377,2.8984753806608605,0.0,0.0,0.0,0.0,0.0,0.0,0.0,0.0,0.0,0.0,0.0,0.0,7999.3439981883685,0.0,
0.2721,2.9071795281458686,2.7054275198845863,3.0833079075942407,0.0,0.0,-0.09323403187969417,2.898638318541565,0.0,0.0,0.0,0.0,0.0,0.0,0.0,0.0,0.0,0.0,0.0,0.0,8420.915316020604,0.0,
0.2857,2.9073541721153546,2.7055667122335785,3.083508086479228,0.0,0.0,-0.09325070618113164,2.89880965694272,0.0,0.0,0.0,0.0,0.0,0.0,0.0,0.0,0.0,0.0,0.0,0.0,8842.596956963127,0.0,
0.2993,2.907537388699021,2.705712732510891,3.0837180880098054,0.0,0.0,-0.09326819977698614,2.898989403073239,0.0,0.0,0.0,0.0,0.0,0.0,0.0,0.0,0.0,0.0,0.0,0.0,9264.394484750139,0.0,
0.3129,2.907729185996858,2.7058655865252623,3.083937920980124,0.0,0.0,-0.09328651355703814,2.899177564500748,0.0,0.0,0.0,0.0,0.0,0.0,0.0,0.0,0.0,0.0,0.0,0.0,9686.313470404777,0.0,
0.3265,2.9079295724943925,2.706025280361656,3.0841675946018468,0.0,0.0,-0.09330564845327415,2.8993741491526315,0.0,0.0,0.0,0.0,0.0,0.0,0.0,0.0,0.0,0.0,0.0,0.0,10108.359492593516,0.0,
0.3401,2.9081385570640292,2.70619182038206,3.0844071185052546,0.0,0.0,-0.09332560544000487,2.8995791653171143,0.0,0.0,0.0,0.0,0.0,0.0,0.0,0.0,0.0,0.0,0.0,0.0,10530.538137982032,0.0,
0.3538,2.908357780807668,2.706366513570204,3.08465837299161,0.0,0.0,-0.09334654137977116,2.899794222456494,0.0,0.0,0.0,0.0,0.0,0.0,0.0,0.0,0.0,0.0,0.0,0.0,10955.960798420483,0.0,
0.3674,2.908584053089335,2.706546816622825,3.0849177006494055,0.0,0.0,-0.09336815170439712,2.9000161901205215,0.0,0.0,0.0,0.0,0.0,0.0,0.0,0.0,0.0,0.0,0.0,0.0,11378.422562277265,0.0,
0.381,2.9088189524696926,2.706733986670679,3.08518691008605,0.0,0.0,-0.09339058730587728,2.900246616408807,0.0,0.0,0.0,0.0,0.0,0.0,0.0,0.0,0.0,0.0,0.0,0.0,11801.033802204676,0.0,
0.3946,2.909062489384815,2.706928031195221,3.0854660126225304,0.0,0.0,-0.09341384932938453,2.9004855110675223,0.0,0.0,0.0,0.0,0.0,0.0,0.0,0.0,0.0,0.0,0.0,0.0,12223.800140515626,0.0,
0.4082,2.9093146746647216,2.707128957959771,3.0857550200051977,0.0,0.0,-0.09343793896307233,2.9007328842098965,0.0,0.0,0.0,0.0,0.0,0.0,0.0,0.0,0.0,0.0,0.0,0.0,12646.72720932123,0.0,
0.4218,2.9095755195348794,2.7073367750106088,3.0860539444074164,0.0,0.0,-0.09346285743821765,2.9009887463176347,0.0,0.0,0.0,0.0,0.0,0.0,0.0,0.0,0.0,0.0,0.0,0.0,13069.820650893758,0.0,
0.4354,2.909845035617896,2.707551490678073,3.086362798430947,0.0,0.0,-0.09348860602937806,2.901253108242305,0.0,0.0,0.0,0.0,0.0,0.0,0.0,0.0,0.0,0.0,0.0,0.0,13493.086118031548,0.0,
0.449,2.9101232349352335,2.7077731135777716,3.0866815951077684,0.0,0.0,-0.09351518605454612,2.9015259812069245,0.0,0.0,0.0,0.0,0.0,0.0,0.0,0.0,0.0,0.0,0.0,0.0,13916.529274424904,0.0,
0.4626,2.9104101299090197,2.708001652611772,3.087010347901662,0.0,0.0,-0.09354259887531509,2.9018073768074846,0.0,0.0,0.0,0.0,0.0,0.0,0.0,0.0,0.0,0.0,0.0,0.0,14340.15579502387,0.0,
0.4762,2.910705733363794,2.708237116969821,3.0873490707099545,0.0,0.0,-0.09357084589704677,2.902097307014523,0.0,0.0,0.0,0.0,0.0,0.0,0.0,0.0,0.0,0.0,0.0,0.0,14763.971366407406,0.0,
0.4898,2.9110100585284986,2.708479516130717,3.087697777865404,0.0,0.0,-0.09359992856904932,2.9023957841748733,0.0,0.0,0.0,0.0,0.0,0.0,0.0,0.0,0.0,0.0,0.0,0.0,15187.981687154506,0.0,
0.5034,2.9113231190384115,2.708728859863576,3.088056484137971,0.0,0.0,-0.09362984838475043,2.9027028210133192,0.0,0.0,0.0,0.0,0.0,0.0,0.0,0.0,0.0,0.0,0.0,0.0,15612.19246821622,0.0,
0.517,2.911644928937153,2.708985158229277,3.088425204736816,0.0,0.0,-0.09366060688189365,2.903018430634415,0.0,0.0,0.0,0.0,0.0,0.0,0.0,0.0,0.0,0.0,0.0,0.0,16036.609433290821,0.0,
0.5306,2.911975502678809,2.7092484215818304,3.0888039553122653,0.0,0.0,-0.09369220564272011,2.9033426265243016,0.0,0.0,0.0,0.0,0.0,0.0,0.0,0.0,0.0,0.0,0.0,0.0,16461.23831919913,0.0,
0.5442,2.9123148551300773,2.7095186605698993,3.0891927519578615,0.0,0.0,-0.0937246462941724,2.9036754225526127,0.0,0.0,0.0,0.0,0.0,0.0,0.0,0.0,0.0,0.0,0.0,0.0,16886.084876263034,0.0,
0.5578,2.9126630015725166,2.709795886138318,3.0895916112124575,0.0,0.0,-0.09375793050809662,2.9040168329744307,0.0,0.0,0.0,0.0,0.0,0.0,0.0,0.0,0.0,0.0,0.0,0.0,17311.15486868533,0.0,
0.5714,2.9130199577047984,2.7100801095296125,3.0900005500624292,0.0,0.0,-0.09379206000144819,2.90436687243228,0.0,0.0,0.0,0.0,0.0,0.0,0.0,0.0,0.0,0.0,0.0,0.0,17736.45407493132,0.0,
0.5851,2.9133884619453276,2.7103735096913404,3.0904227045285015,0.0,0.0,-0.09382729685838795,2.9047282253883897,0.0,0.0,0.0,0.0,0.0,0.0,0.0,0.0,0.0,0.0,0.0,0.0,18165.118100883654,0.0,
0.5987,2.913763151313314,2.710671815326126,3.0908519297713393,0.0,0.0,-0.0938631284913395,2.9050956321369266,0.0,0.0,0.0,0.0,0.0,0.0,0.0,0.0,0.0,0.0,0.0,0.0,18590.894921393097,0.0,
0.6123,2.9141467001202486,2.710977154404507,3.0912912884128856,0.0,0.0,-0.09389981084123554,2.9054717143125472,0.0,0.0,0.0,0.0,0.0,0.0,0.0,0.0,0.0,0.0,0.0,0.0,19016.918423426472,0.0,
0.6259,2.9145391257608,2.7112895393787255,3.091740799255877,0.0,0.0,-0.09393734580802576,2.905856488131801,0.0,0.0,0.0,0.0,0.0,0.0,0.0,0.0,0.0,0.0,0.0,0.0,19443.19444647773,0.0,
0.6395,2.9149404460592834,2.7116089830072916,3.0922004815623803,0.0,0.0,-0.09397573533790736,2.9062499702096516,0.0,0.0,0.0,0.0,0.0,0.0,0.0,0.0,0.0,0.0,0.0,0.0,19869.728846247326,0.0,
0.6531,2.9153506792723762,2.7119354983568376,3.0926703550563834,0.0,0.0,-0.09401498142356915,2.9066521775618654,0.0,0.0,0.0,0.0,0.0,0.0,0.0,0.0,0.0,0.0,0.0,0.0,20296.52749503701,0.0,
0.6667,2.915769844091907,2.712269098804029,3.093150439926406,0.0,0.0,-0.09405508610444288,2.9070631276074472,0.0,0.0,0.0,0.0,0.0,0.0,0.0,0.0,0.0,0.0,0.0,0.0,20723.596282147144,0.0,
0.6803,2.916197959647703,2.712609798037457,3.0936407568281714,0.0,0.0,-0.09409605146696269,2.9074828381711106,0.0,0.0,0.0,0.0,0.0,0.0,0.0,0.0,0.0,0.0,0.0,0.0,21150.941114276582,0.0,
0.6939,2.916635045510562,2.7129576100597332,3.0941413268874056,0.0,0.0,-0.09413787964482231,2.9079113274859005,0.0,0.0,0.0,0.0,0.0,0.0,0.0,0.0,0.0,0.0,0.0,0.0,21578.567915924155,0.0,
0.7075,2.917081121695199,2.713312549189455,3.0946521717026867,0.0,0.0,-0.09418057281925114,2.9083486141957806,0.0,0.0,0.0,0.0,0.0,0.0,0.0,0.0,0.0,0.0,0.0,0.0,22006.482629794104,0.0,
0.7211,2.9175362086633863,2.713674630063406,3.095173313348273,0.0,0.0,-0.09422413321928831,2.908794717358355,0.0,0.0,0.0,0.0,0.0,0.0,0.0,0.0,0.0,0.0,0.0,0.0,22434.69121720311,0.0,
0.7347,2.9180003273270962,2.7140438676386442,3.095704774377172,0.0,0.0,-0.09426856312206301,2.909249656447637,0.0,0.0,0.0,0.0,0.0,0.0,0.0,0.0,0.0,0.0,0.0,0.0,22863.199658490055,0.0,
0.7483,2.9184734990517383,2.7144202771947357,3.0962465778241084,0.0,0.0,-0.09431386485308747,2.909713451356861,0.0,0.0,0.0,0.0,0.0,0.0,0.0,0.0,0.0,0.0,0.0,0.0,23292.013953429152,0.0,
0.7619,2.9189557456595097,2.714803874336049,3.0967987472086764,0.0,0.0,-0.09436004078654735,2.9101861224014116,0.0,0.0,0.0,0.0,0.0,0.0,0.0,0.0,0.0,0.0,0.0,0.0,23721.140121644836,0.0,
0.7755,2.9194470894327456,2.7151946749940574,3.0973613065385543,0.0,0.0,-0.09440709334560725,2.9106676903217856,0.0,0.0,0.0,0.0,0.0,0.0,0.0,0.0,0.0,0.0,0.0,0.0,24150.584203030463,0.0,
0.7891,2.9199475531174857,2.715592695429729,3.0979342803127303,0.0,0.0,-0.09445502500271885,2.9111581762866483,0.0,0.0,0.0,0.0,0.0,0.0,0.0,0.0,0.0,0.0,0.0,0.0,24580.352258169532,0.0,
0.8028,2.9204609409558486,2.7160009589070944,3.0985220220532557,0.0,0.0,-0.09450420047251662,2.9116613073053994,0.0,0.0,0.0,0.0,0.0,0.0,0.0,0.0,0.0,0.0,0.0,0.0,25013.61409233931,0.0,
0.8164,2.9209797820660923,2.716413522407855,3.099115977238763,0.0,0.0,-0.09455390445287615,2.912169760570903,0.0,0.0,0.0,0.0,0.0,0.0,0.0,0.0,0.0,0.0,0.0,0.0,25444.050856032187,0.0,
0.83,2.921507814323366,2.716833356599074,3.09972042354029,0.0,0.0,-0.09460449526701592,2.9126871981542433,0.0,0.0,0.0,0.0,0.0,0.0,0.0,0.0,0.0,0.0,0.0,0.0,25874.82994874696,0.0,
0.8436,2.9220450623684155,2.7172604790872033,3.1003353874600617,0.0,0.0,-0.0946559755881248,2.9132136429718933,0.0,0.0,0.0,0.0,0.0,0.0,0.0,0.0,0.0,0.0,0.0,0.0,26305.957518265725,0.0,
0.8572,2.9225915513243947,2.717694907821,3.1009608960091524,0.0,0.0,-0.09470834814032945,2.913749118384849,0.0,0.0,0.0,0.0,0.0,0.0,0.0,0.0,0.0,0.0,0.0,0.0,26737.439735216274,0.0,
0.8708,2.923147306800839,2.7181366610943045,3.101596976711183,0.0,0.0,-0.09476161569903858,2.914293648202109,0.0,0.0,0.0,0.0,0.0,0.0,0.0,0.0,0.0,0.0,0.0,0.0,27169.282793511404,0.0,
0.8844,2.923712354897811,2.718585757548782,3.1022436576061545,0.0,0.0,-0.09481578109129923,2.914847256684249,0.0,0.0,0.0,0.0,0.0,0.0,0.0,0.0,0.0,0.0,0.0,0.0,27601.492910792113,0.0,
0.898,2.924286722210087,2.7190422161768284,3.1029009672544117,0.0,0.0,-0.094870847196165,2.915409968547109,0.0,0.0,0.0,0.0,0.0,0.0,0.0,0.0,0.0,0.0,0.0,0.0,28034.076328875082,0.0,
0.9116,2.924870435831417,2.7195060563245312,3.103568934740526,0.0,0.0,-0.09492681694506445,2.915981808965492,0.0,0.0,0.0,0.0,0.0,0.0,0.0,0.0,0.0,0.0,0.0,0.0,28467.039314202502,0.0,
0.9252,2.925463523358915,2.7199772976945997,3.1042475896774393,0.0,0.0,-0.09498369332217753,2.916562803576985,0.0,0.0,0.0,0.0,0.0,0.0,0.0,0.0,0.0,0.0,0.0,0.0,28900.3881582956,0.0,
0.9388,2.926066012897558,2.720455960349512,3.1049369622105734,0.0,0.0,-0.09504147936482725,2.917152978485881,0.0,0.0,0.0,0.0,0.0,0.0,0.0,0.0,0.0,0.0,0.0,0.0,29334.129178212956,0.0,
0.9524,2.926677933064786,2.7209420647145923,3.105637083022104,0.0,0.0,-0.09510017816386707,2.9177523602671607,0.0,0.0,0.0,0.0,0.0,0.0,0.0,0.0,0.0,0.0,0.0,0.0,29768.26871701078,0.0,
0.966,2.927299312995099,2.721435631581221,3.1063479833352794,0.0,0.0,-0.09515979286408711,2.918360975970533,0.0,0.0,0.0,0.0,0.0,0.0,0.0,0.0,0.0,0.0,0.0,0.0,30202.813144208627,0.0,
0.9796,2.9279301823449346,2.721936682110165,3.1070696949188252,0.0,0.0,-0.09522032666461595,2.9189788531246417,0.0,0.0,0.0,0.0,0.0,0.0,0.0,0.0,0.0,0.0,0.0,0.0,30637.768856257087,0.0,
0.9932,2.928570571297511,2.7224452378348607,3.1078022500915075,0.0,0.0,-0.09528178281934416,2.919606019741293,0.0,0.0,0.0,0.0,0.0,0.0,0.0,0.0,0.0,0.0,0.0,0.0,31073.142277011622,0.0,
1.0068,2.929220510567845,2.722961320664905,3.1085456817266723,0.0,0.0,-0.09534416463734141,2.9202425043198073,0.0,0.0,0.0,0.0,0.0,0.0,0.0,0.0,0.0,0.0,0.0,0.0,31508.939858208087,0.0,
1.0204,2.929880031407819,2.7234849528895033,3.10930002325703,0.0,0.0,-0.09540747548329423,2.920888335851451,0.0,0.0,0.0,0.0,0.0,0.0,0.0,0.0,0.0,0.0,0.0,0.0,31945.168079944346,0.0,
1.0341,2.9305541213988002,2.7240200911950163,3.110070976394106,0.0,0.0,-0.09547219461701487,2.921548396329307,0.0,0.0,0.0,0.0,0.0,0.0,0.0,0.0,0.0,0.0,0.0,0.0,32385.045861121183,0.0,
1.0477,2.931232972352926,2.7245589465456233,3.110847321127607,0.0,0.0,-0.09553738073242023,2.9222130800087185,0.0,0.0,0.0,0.0,0.0,0.0,0.0,0.0,0.0,0.0,0.0,0.0,32822.15820680176,0.0,
1.0613,2.9319215021503338,2.7251054206461442,3.111634679719236,0.0,0.0,-0.09560350633415321,2.9228872008385713,0.0,0.0,0.0,0.0,0.0,0.0,0.0,0.0,0.0,0.0,0.0,0.0,33259.720856759144,0.0,
1.0749,2.932619744247882,2.7256595373436934,3.112433087892178,0.0,0.0,-0.09567057501425497,2.923570789827918,0.0,0.0,0.0,0.0,0.0,0.0,0.0,0.0,0.0,0.0,0.0,0.0,33697.7404096518,0.0,
1.0885,2.933327732666564,2.726221320883772,3.1132425819539504,0.0,0.0,-0.09573859042266207,2.924263878501429,0.0,0.0,0.0,0.0,0.0,0.0,0.0,0.0,0.0,0.0,0.0,0.0,34136.22349496959,0.0,
1.1021,2.9340455019972955,2.7267907959141287,3.1140631988017313,0.0,0.0,-0.09580755626768925,2.9249664989043853,0.0,0.0,0.0,0.0,0.0,0.0,0.0,0.0,0.0,0.0,0.0,0.0,34575.176773540734,0.0,
1.1157,2.934773087406873,2.727367987488881,3.114894975927697,0.0,0.0,-0.09587747631651498,2.925678683607817,0.0,0.0,0.0,0.0,0.0,0.0,0.0,0.0,0.0,0.0,0.0,0.0,35014.606938042154,0.0,
1.1293,2.9355105246439854,2.72795292107267,3.115737951424632,0.0,0.0,-0.09594835439568325,2.9264004657137623,0.0,0.0,0.0,0.0,0.0,0.0,0.0,0.0,0.0,0.0,0.0,0.0,35454.520713515885,0.0,
1.1429,2.936257850045393,2.7285456225449005,3.1165921639914713,0.0,0.0,-0.09602019439160608,2.9271318788605885,0.0,0.0,0.0,0.0,0.0,0.0,0.0,0.0,0.0,0.0,0.0,0.0,35894.92485788878,0.0,
1.1565,2.9370151005422453,2.729146118204055,3.117457652939056,0.0,0.0,-0.09609300025107866,2.927872957228452,0.0,0.0,0.0,0.0,0.0,0.0,0.0,0.0,0.0,0.0,0.0,0.0,36335.82616249766,0.0,
1.1701,2.9377823136664953,2.729754434772123,3.1183344581960295,0.0,0.0,-0.09616677598180648,2.9286237355448823,0.0,0.0,0.0,0.0,0.0,0.0,0.0,0.0,0.0,0.0,0.0,0.0,36777.231452619984,0.0,
1.1837,2.9385595275574605,2.7303705993991363,3.1192226203147206,0.0,0.0,-0.09624152565293287,2.929384249090439,0.0,0.0,0.0,0.0,0.0,0.0,0.0,0.0,0.0,0.0,0.0,0.0,37219.14758800781,0.0,
1.1973,2.9393467809685805,2.730994639667757,3.1201221804772787,0.0,0.0,-0.09631725339558513,2.9301545337045383,0.0,0.0,0.0,0.0,0.0,0.0,0.0,0.0,0.0,0.0,0.0,0.0,37661.58146342858,0.0,
1.2109,2.940144113274227,2.7316265835980156,3.1210331805018487,0.0,0.0,-0.09639396340342055,2.9309346257913638,0.0,0.0,0.0,0.0,0.0,0.0,0.0,0.0,0.0,0.0,0.0,0.0,38104.54000920929,0.0,
1.2245,2.9409515644766637,2.7322664596521022,3.121955662848898,0.0,0.0,-0.09647165993319018,2.931724562325888,0.0,0.0,0.0,0.0,0.0,0.0,0.0,0.0,0.0,0.0,0.0,0.0,38548.03019178748,0.0,
1.2381,2.9417691752132438,2.732914296739314,3.122889670627658,0.0,0.0,-0.09655034730530607,2.932524380860072,0.0,0.0,0.0,0.0,0.0,0.0,0.0,0.0,0.0,0.0,0.0,0.0,38992.059014266255,0.0,
1.2517,2.9425969867636876,2.7335701242210164,3.1238352476026834,0.0,0.0,-0.09663002990441981,2.9333341195291287,0.0,0.0,0.0,0.0,0.0,0.0,0.0,0.0,0.0,0.0,0.0,0.0,39436.6335169751,0.0,
1.2654,2.943441241260561,2.7342388829265234,3.1247995194891134,0.0,0.0,-0.09671130914548874,2.934159881225399,0.0,0.0,0.0,0.0,0.0,0.0,0.0,0.0,0.0,0.0,0.0,0.0,39885.03583735629,0.0,
1.279,2.9442896566713745,2.7349108404236517,3.1257684546997444,0.0,0.0,-0.09679300301310305,2.9349896505982564,0.0,0.0,0.0,0.0,0.0,0.0,0.0,0.0,0.0,0.0,0.0,0.0,40330.727116434064,0.0,
1.2926,2.945148400984934,2.7355908793917108,3.1267490947389107,0.0,0.0,-0.0968757056869637,2.935829458371852,0.0,0.0,0.0,0.0,0.0,0.0,0.0,0.0,0.0,0.0,0.0,0.0,40776.98547853692,0.0,
1.3062,2.946017518131297,2.7362790310563767,3.127741486065739,0.0,0.0,-0.09695942181514881,2.936679345084471,0.0,0.0,0.0,0.0,0.0,0.0,0.0,0.0,0.0,0.0,0.0,0.0,41223.81811890973,0.0,
1.3198,2.9468970527216842,2.7369753271222192,3.128745675829559,0.0,0.0,-0.09704415611301598,2.9375393518911537,0.0,0.0,0.0,0.0,0.0,0.0,0.0,0.0,0.0,0.0,0.0,0.0,41671.23227291439,0.0,
1.3334,2.9477870500567622,2.737679799778383,3.1297617118772014,0.0,0.0,-0.09712991336384091,2.9384095205707825,0.0,0.0,0.0,0.0,0.0,0.0,0.0,0.0,0.0,0.0,0.0,0.0,42119.23521662459,0.0,
1.347,2.948687556135062,2.7383924817044383,3.13078964276057,0.0,0.0,-0.09721669841946524,2.9392898935333567,0.0,0.0,0.0,0.0,0.0,0.0,0.0,0.0,0.0,0.0,0.0,0.0,42567.83426742644,0.0,
1.3606,2.949598617661585,2.739113406076294,3.131829517744231,0.0,0.0,-0.09730451620095006,2.94018051382737,0.0,0.0,0.0,0.0,0.0,0.0,0.0,0.0,0.0,0.0,0.0,0.0,43017.03678462386,0.0,
1.3742,2.9505202820565097,2.7398426065722967,3.132881386813268,0.0,0.0,-0.0973933716992478,2.9410814251473583,0.0,0.0,0.0,0.0,0.0,0.0,0.0,0.0,0.0,0.0,0.0,0.0,43466.850170052014,0.0,
1.3878,2.951452597464278,2.7405801173793725,3.133945300681197,0.0,0.0,-0.09748326997587534,2.9419926718416156,0.0,0.0,0.0,0.0,0.0,0.0,0.0,0.0,0.0,0.0,0.0,0.0,43917.28186869466,0.0,
1.4014,2.9523956127626105,2.741325973199441,3.13502131079809,0.0,0.0,-0.09757421616360851,2.9429142989200474,0.0,0.0,0.0,0.0,0.0,0.0,0.0,0.0,0.0,0.0,0.0,0.0,44368.33936931033,0.0,
1.415,2.953349377571949,2.742080209255838,3.136109469358815,0.0,0.0,-0.09766621546717397,2.943846352062201,0.0,0.0,0.0,0.0,0.0,0.0,0.0,0.0,0.0,0.0,0.0,0.0,44820.03020506162,0.0,
1.4286,2.954313942264915,2.742842861299883,3.1372098293114745,0.0,0.0,-0.09775927316396427,2.9447888776254243,0.0,0.0,0.0,0.0,0.0,0.0,0.0,0.0,0.0,0.0,0.0,0.0,45272.36195415386,0.0,
1.4422,2.9552893579761026,2.7436139656177225,3.138322444365972,0.0,0.0,-0.09785339460475641,2.9457419226532657,0.0,0.0,0.0,0.0,0.0,0.0,0.0,0.0,0.0,0.0,0.0,0.0,45725.34224047848,0.0,
1.4558,2.956275676611966,2.744393559037142,3.139447369002752,0.0,0.0,-0.09794858521444354,2.9467055348839537,0.0,0.0,0.0,0.0,0.0,0.0,0.0,0.0,0.0,0.0,0.0,0.0,46178.97873426344,0.0,
1.4694,2.95727295086101,2.7451816789346637,3.1405846584817194,0.0,0.0,-0.09804485049277623,2.947679762759131,0.0,0.0,0.0,0.0,0.0,0.0,0.0,0.0,0.0,0.0,0.0,0.0,46633.279152729956,0.0,
