energies(eV),real_xx,real_yy,real_zz,real_xy,real_yz,real_xz,real_ave,imag_xx,imag_yy,imag_zz,imag_xy,imag_yz,imag_xz,imag_ave,absorption_xx,absorption_yy,absorption_zz,absorption_xy,absorption_yz,absorption_xz,absorption_ave,band_gap
0.0,3.697893370663124,3.529902509475672,3.690276497440284,0.0,0.0,0.06311018191779616,3.6393574591930267,0.0,0.0,0.0,0.0,0.0,0.0,0.0,0.0,0.0,0.0,0.0,0.0,0.0,0.0,5.5241999999999996
0.0156,3.6979010517946573,3.529909107484103,3.6902835491555153,0.0,0.0,0.06311039213996136,3.639364569478092,0.0,0.0,0.0,0.0,0.0,0.0,0.0,0.0,0.0,0.0,0.0,0.0,0.0,0.0,
0.0312,3.6979240955537045,3.529928901796531,3.690304704601253,0.0,0.0,0.06311102281193395,3.6393859006504967,0.0,0.0,0.0,0.0,0.0,0.0,0.0,0.0,0.0,0.0,0.0,0.0,0.0,0.0,
0.0467,3.6979622079013916,3.5299616397603932,3.6903396937313717,0.0,0.0,0.06311206587301324,3.6394211804643852,0.0,0.0,0.0,0.0,0.0,0.0,0.0,0.0,0.0,0.0,0.0,0.0,0.0,0.0,
0.0623,3.6980158824204414,3.530007745227442,3.690388969509013,0.0,0.0,0.06311353480924836,3.6394708657189656,0.0,0.0,0.0,0.0,0.0,0.0,0.0,0.0,0.0,0.0,0.0,0.0,0.0,0.0,
0.0779,3.698084925016208,3.5300670512916428,3.6904523535032983,0.0,0.0,0.06311542427714194,3.6395347766037163,0.0,0.0,0.0,0.0,0.0,0.0,0.0,0.0,0.0,0.0,0.0,0.0,0.0,0.0,
0.0935,3.698169338965679,3.530139560534692,3.690529848411951,0.0,0.0,0.06311773432590119,3.639612915970774,0.0,0.0,0.0,0.0,0.0,0.0,0.0,0.0,0.0,0.0,0.0,0.0,0.0,0.0,
0.1091,3.698269128275984,3.5302252761134927,3.6906214575336915,0.0,0.0,0.0631204650156816,3.6397052873077222,0.0,0.0,0.0,0.0,0.0,0.0,0.0,0.0,0.0,0.0,0.0,0.0,0.0,0.0,
0.1246,3.698383510429147,3.530323525544433,3.6907264620605678,0.0,0.0,0.06312359487633055,3.6398111660113823,0.0,0.0,0.0,0.0,0.0,0.0,0.0,0.0,0.0,0.0,0.0,0.0,0.0,0.0,
0.1402,3.6985139667616367,3.530435580845862,3.6908462213658177,0.0,0.0,0.06312716437472218,3.639931922991105,0.0,0.0,0.0,0.0,0.0,0.0,0.0,0.0,0.0,0.0,0.0,0.0,0.0,0.0,
0.1558,3.6986598148213496,3.5305608553762156,3.6909801083564093,0.0,0.0,0.06313115475964504,3.6400669261846583,0.0,0.0,0.0,0.0,0.0,0.0,0.0,0.0,0.0,0.0,0.0,0.0,0.0,0.0,
0.1714,3.6988210615379438,3.5306993545942875,3.6911281287361595,0.0,0.0,0.06313556613496138,3.6402161816227974,0.0,0.0,0.0,0.0,0.0,0.0,0.0,0.0,0.0,0.0,0.0,0.0,0.0,0.0,
0.187,3.698997714574967,3.530851084536829,3.6912902888127124,0.0,0.0,0.06314039861547335,3.6403796959748362,0.0,0.0,0.0,0.0,0.0,0.0,0.0,0.0,0.0,0.0,0.0,0.0,0.0,0.0,
0.2026,3.699189782331096,3.531016051819327,3.6914665954982877,0.0,0.0,0.06314565232691875,3.6405574765495703,0.0,0.0,0.0,0.0,0.0,0.0,0.0,0.0,0.0,0.0,0.0,0.0,0.0,0.0,
0.2181,3.6993958947275853,3.5311930790589416,3.691655790316082,0.0,0.0,0.06315128968507093,3.640748254700869,0.0,0.0,0.0,0.0,0.0,0.0,0.0,0.0,0.0,0.0,0.0,0.0,0.0,0.0,
0.2337,3.6996187210964337,3.531384458210362,3.6918603225683744,0.0,0.0,0.06315738357681534,3.6409545006250568,0.0,0.0,0.0,0.0,0.0,0.0,0.0,0.0,0.0,0.0,0.0,0.0,0.0,0.0,
0.2493,3.699856991731908,3.5315890979740505,3.6920790257449942,0.0,0.0,0.06316389914124593,3.641175038483651,0.0,0.0,0.0,0.0,0.0,0.0,0.0,0.0,0.0,0.0,0.0,0.0,0.0,0.0,
0.2649,3.700110717980532,3.5318070072859302,3.6923119091820316,0.0,0.0,0.06317083654774393,3.641409878149498,0.0,0.0,0.0,0.0,0.0,0.0,0.0,0.0,0.0,0.0,0.0,0.0,0.0,0.0,
0.2805,3.7003799119306153,3.5320381956656526,3.6925589828251506,0.0,0.0,0.06317819597661262,3.6416590301404725,0.0,0.0,0.0,0.0,0.0,0.0,0.0,0.0,0.0,0.0,0.0,0.0,0.0,0.0,
0.296,3.700662712250149,3.5322810637112703,3.6928185371481734,0.0,0.0,0.06318592639174812,3.641920771036531,0.0,0.0,0.0,0.0,0.0,0.0,0.0,0.0,0.0,0.0,0.0,0.0,0.0,0.0,
0.3116,3.7009627814778487,3.532538755835978,3.6930939323463434,0.0,0.0,0.06319412774145697,3.6421984898867237,0.0,0.0,0.0,0.0,0.0,0.0,0.0,0.0,0.0,0.0,0.0,0.0,0.0,0.0,
0.3272,3.701278359046029,3.5328097590283414,3.6933835511807853,0.0,0.0,0.0632027517185108,3.642490556418385,0.0,0.0,0.0,0.0,0.0,0.0,0.0,0.0,0.0,0.0,0.0,0.0,0.0,0.0,
0.3428,3.7016094600232727,3.5330940851521797,3.6936874060448597,0.0,0.0,0.06321179854677232,3.6427969837401037,0.0,0.0,0.0,0.0,0.0,0.0,0.0,0.0,0.0,0.0,0.0,0.0,0.0,0.0,
0.3584,3.701956100229537,3.5333917466619216,3.694005509948687,0.0,0.0,0.06322126846099828,3.643117785613382,0.0,0.0,0.0,0.0,0.0,0.0,0.0,0.0,0.0,0.0,0.0,0.0,0.0,0.0,
0.3739,3.7023159248938224,3.5337007204129924,3.6943357005150355,0.0,0.0,0.06323109693991946,3.643450781940617,0.0,0.0,0.0,0.0,0.0,0.0,0.0,0.0,0.0,0.0,0.0,0.0,0.0,0.0,
0.3895,3.702693594149292,3.534025006729398,3.694682252437545,0.0,0.0,0.06324141105774216,3.643800284438745,0.0,0.0,0.0,0.0,0.0,0.0,0.0,0.0,0.0,0.0,0.0,0.0,0.0,0.0,
0.4051,3.703086854505086,3.5343626692620163,3.6950430960487397,0.0,0.0,0.06325214902935469,3.644164206605281,0.0,0.0,0.0,0.0,0.0,0.0,0.0,0.0,0.0,0.0,0.0,0.0,0.0,0.0,
0.4207,3.7034957248043576,3.534713722840796,3.6954182468380403,0.0,0.0,0.06326331113295705,3.644542564827731,0.0,0.0,0.0,0.0,0.0,0.0,0.0,0.0,0.0,0.0,0.0,0.0,0.0,0.0,
0.4363,3.7039202246535434,3.535078182895143,3.6958077209204223,0.0,0.0,0.06327489765761027,3.64493537615637,0.0,0.0,0.0,0.0,0.0,0.0,0.0,0.0,0.0,0.0,0.0,0.0,0.0,0.0,
0.4518,3.704357503069499,3.535453600351815,3.6962089007828323,0.0,0.0,0.06328683055485301,3.6453400014013817,0.0,0.0,0.0,0.0,0.0,0.0,0.0,0.0,0.0,0.0,0.0,0.0,0.0,0.0,
0.4674,3.704813223380593,3.5358448358507553,3.696626980217054,0.0,0.0,0.06329926410661882,3.6457616798161343,0.0,0.0,0.0,0.0,0.0,0.0,0.0,0.0,0.0,0.0,0.0,0.0,0.0,0.0,
0.483,3.70528463652606,3.5362495276181325,3.6970594349453836,0.0,0.0,0.06331212300960358,3.646197866363192,0.0,0.0,0.0,0.0,0.0,0.0,0.0,0.0,0.0,0.0,0.0,0.0,0.0,0.0,
0.4986,3.705771765189336,3.5366676934980865,3.6975062836017916,0.0,0.0,0.06332540759615735,3.6466485807630717,0.0,0.0,0.0,0.0,0.0,0.0,0.0,0.0,0.0,0.0,0.0,0.0,0.0,0.0,
0.5142,3.7062746328319642,3.5370993519450464,3.6979675454566228,0.0,0.0,0.06333911820944622,3.6471138434112107,0.0,0.0,0.0,0.0,0.0,0.0,0.0,0.0,0.0,0.0,0.0,0.0,0.0,0.0,
0.5298,3.7067932636970324,3.537544522026133,3.6984432404191105,0.0,0.0,0.06335325520344134,3.6475936753807585,0.0,0.0,0.0,0.0,0.0,0.0,0.0,0.0,0.0,0.0,0.0,0.0,0.0,0.0,
0.5453,3.707324206715724,3.538000239895843,3.6989302009881526,0.0,0.0,0.06336772422581043,3.64808488253324,0.0,0.0,0.0,0.0,0.0,0.0,0.0,0.0,0.0,0.0,0.0,0.0,0.0,0.0,
0.5609,3.707874338441855,3.5384724059745793,3.6994347316054026,0.0,0.0,0.06338271234712961,3.6485938253406123,0.0,0.0,0.0,0.0,0.0,0.0,0.0,0.0,0.0,0.0,0.0,0.0,0.0,0.0,
0.5765,3.7084403106702277,3.538958144454261,3.699953758774733,0.0,0.0,0.06339812797328383,3.649117404633074,0.0,0.0,0.0,0.0,0.0,0.0,0.0,0.0,0.0,0.0,0.0,0.0,0.0,0.0,
0.5921,3.709022150800121,3.5394574768746154,3.7004873049826954,0.0,0.0,0.06341397150128686,3.6496556442191443,0.0,0.0,0.0,0.0,0.0,0.0,0.0,0.0,0.0,0.0,0.0,0.0,0.0,0.0,
0.6077,3.709619887030596,3.5399704254013935,3.701035393368199,0.0,0.0,0.06343024333889705,3.6502085686000627,0.0,0.0,0.0,0.0,0.0,0.0,0.0,0.0,0.0,0.0,0.0,0.0,0.0,0.0,
0.6232,3.7102295638605085,3.5404935937854067,3.7015943945286915,0.0,0.0,0.06344683548347525,3.6507725173915353,0.0,0.0,0.0,0.0,0.0,0.0,0.0,0.0,0.0,0.0,0.0,0.0,0.0,0.0,
0.6388,3.7108590777367874,3.5410337558860965,3.702171545702281,0.0,0.0,0.06346396245409516,3.6513547931083887,0.0,0.0,0.0,0.0,0.0,0.0,0.0,0.0,0.0,0.0,0.0,0.0,0.0,0.0,
0.6544,3.7115045769512527,3.541587604220037,3.702763312250646,0.0,0.0,0.06348151901908387,3.651951831140645,0.0,0.0,0.0,0.0,0.0,0.0,0.0,0.0,0.0,0.0,0.0,0.0,0.0,0.0,
0.67,3.712166092938121,3.542155163483104,3.703369719948028,0.0,0.0,0.0634995056289726,3.652563658789751,0.0,0.0,0.0,0.0,0.0,0.0,0.0,0.0,0.0,0.0,0.0,0.0,0.0,0.0,
0.6856,3.712843657952714,3.5427364590127324,3.7039907952365487,0.0,0.0,0.06351792274496394,3.6531903040673317,0.0,0.0,0.0,0.0,0.0,0.0,0.0,0.0,0.0,0.0,0.0,0.0,0.0,0.0,
0.7011,3.71353280733396,3.5433276584353033,3.7046224429260586,0.0,0.0,0.0635366486443002,3.653827636231774,0.0,0.0,0.0,0.0,0.0,0.0,0.0,0.0,0.0,0.0,0.0,0.0,0.0,0.0,
0.7167,3.7142424670597625,3.543936416617017,3.7052728409472113,0.0,0.0,0.06355592543137475,3.6544839082079967,0.0,0.0,0.0,0.0,0.0,0.0,0.0,0.0,0.0,0.0,0.0,0.0,0.0,0.0,
0.7323,3.7149682773270905,3.544558990784019,3.705937989743321,0.0,0.0,0.06357563416881862,3.655155085951477,0.0,0.0,0.0,0.0,0.0,0.0,0.0,0.0,0.0,0.0,0.0,0.0,0.0,0.0,
0.7479,3.7157102737176655,3.5451954088703688,3.7066179184588264,0.0,0.0,0.06359577536027212,3.6558412003489535,0.0,0.0,0.0,0.0,0.0,0.0,0.0,0.0,0.0,0.0,0.0,0.0,0.0,0.0,
0.7635,3.7164684926587177,3.5458456994694454,3.7073126569239236,0.0,0.0,0.06361634951995361,3.6565422830173624,0.0,0.0,0.0,0.0,0.0,0.0,0.0,0.0,0.0,0.0,0.0,0.0,0.0,0.0,
0.779,3.7172379549598515,3.546505589860069,3.7080176397513025,0.0,0.0,0.06363722112657415,3.657253728190408,0.0,0.0,0.0,0.0,0.0,0.0,0.0,0.0,0.0,0.0,0.0,0.0,0.0,0.0,
0.7946,3.7180286270949705,3.547183624518874,3.708741994538432,0.0,0.0,0.0636586600236063,3.6579847487174253,0.0,0.0,0.0,0.0,0.0,0.0,0.0,0.0,0.0,0.0,0.0,0.0,0.0,0.0,
0.8102,3.7188356359363226,3.547875621267158,3.709481252513526,0.0,0.0,0.06368053349123413,3.658730836572335,0.0,0.0,0.0,0.0,0.0,0.0,0.0,0.0,0.0,0.0,0.0,0.0,0.0,0.0,
0.8258,3.7196590213419025,3.5485816113707433,3.7102354462854024,0.0,0.0,0.06370284208569492,3.6594920263326824,0.0,0.0,0.0,0.0,0.0,0.0,0.0,0.0,0.0,0.0,0.0,0.0,0.0,0.0,
0.8414,3.7204988240430312,3.5493016267749686,3.7110046091691276,0.0,0.0,0.06372558637368857,3.6602683533290423,0.0,0.0,0.0,0.0,0.0,0.0,0.0,0.0,0.0,0.0,0.0,0.0,0.0,0.0,
0.857,3.7213550856503197,3.5500357001090426,3.711788775190258,0.0,0.0,0.06374876693234922,3.661059853649873,0.0,0.0,0.0,0.0,0.0,0.0,0.0,0.0,0.0,0.0,0.0,0.0,0.0,0.0,
0.8725,3.722222201383741,3.550779023817383,3.7125828080235066,0.0,0.0,0.06377223156305087,3.6618613444082104,0.0,0.0,0.0,0.0,0.0,0.0,0.0,0.0,0.0,0.0,0.0,0.0,0.0,0.0,
0.8881,3.723111402986855,3.5515412230004295,3.7133969885225437,0.0,0.0,0.06379628362992083,3.6626832048366094,0.0,0.0,0.0,0.0,0.0,0.0,0.0,0.0,0.0,0.0,0.0,0.0,0.0,0.0,
0.9037,3.724017193379116,3.5523175819246036,3.7142262783100457,0.0,0.0,0.06382077375726151,3.6635203512045886,0.0,0.0,0.0,0.0,0.0,0.0,0.0,0.0,0.0,0.0,0.0,0.0,0.0,0.0,
0.9193,3.7249396177453318,3.553108135995684,3.7150707142949733,0.0,0.0,0.06384570256359766,3.6643728226786627,0.0,0.0,0.0,0.0,0.0,0.0,0.0,0.0,0.0,0.0,0.0,0.0,0.0,0.0,
0.9349,3.725878722181708,3.5539129213266882,3.715930334120181,0.0,0.0,0.06387107067774057,3.6652406592095255,0.0,0.0,0.0,0.0,0.0,0.0,0.0,0.0,0.0,0.0,0.0,0.0,0.0,0.0,
0.9504,3.726828373207864,3.5547266788833394,3.7167995196468406,0.0,0.0,0.06389671190005056,3.6661181905793483,0.0,0.0,0.0,0.0,0.0,0.0,0.0,0.0,0.0,0.0,0.0,0.0,0.0,0.0,
0.966,3.727800872066566,3.5555599461029255,3.717689525086854,0.0,0.0,0.06392295773079613,3.6670167810854486,0.0,0.0,0.0,0.0,0.0,0.0,0.0,0.0,0.0,0.0,0.0,0.0,0.0,0.0,
0.9816,3.728790194505862,3.556407556967171,3.7185948314921444,0.0,0.0,0.06394964481290331,3.6679308609883923,0.0,0.0,0.0,0.0,0.0,0.0,0.0,0.0,0.0,0.0,0.0,0.0,0.0,0.0,
0.9972,3.7297963903319284,3.5572695504640346,3.719515479487786,0.0,0.0,0.06397677381591742,3.668860473427916,0.0,0.0,0.0,0.0,0.0,0.0,0.0,0.0,0.0,0.0,0.0,0.0,0.0,0.0,
1.0128,3.7308195102983484,3.558145966314661,3.720451510458958,0.0,0.0,0.06400434541949046,3.6698056623573225,0.0,0.0,0.0,0.0,0.0,0.0,0.0,0.0,0.0,0.0,0.0,0.0,0.0,0.0,
1.0283,3.731852884660897,3.5590310880735228,3.7213968182659127,0.0,0.0,0.06403217931751827,3.6707602636667773,0.0,0.0,0.0,0.0,0.0,0.0,0.0,0.0,0.0,0.0,0.0,0.0,0.0,0.0,
1.0439,3.7329098996697163,3.5599363776487074,3.7223636431195817,0.0,0.0,0.06406063535304657,3.6717366401460017,0.0,0.0,0.0,0.0,0.0,0.0,0.0,0.0,0.0,0.0,0.0,0.0,0.0,0.0,
1.0595,3.733983996494439,3.5608562129252737,3.7233459794386836,0.0,0.0,0.06408953608373147,3.672728729619465,0.0,0.0,0.0,0.0,0.0,0.0,0.0,0.0,0.0,0.0,0.0,0.0,0.0,0.0,
1.0751,3.735075229750375,3.561790636609187,3.724343871700776,0.0,0.0,0.06411888222916162,3.6737365793534464,0.0,0.0,0.0,0.0,0.0,0.0,0.0,0.0,0.0,0.0,0.0,0.0,0.0,0.0,
1.0907,3.736183655040171,3.562739692168562,3.7253573651726053,0.0,0.0,0.06414867451881477,3.6747602374604464,0.0,0.0,0.0,0.0,0.0,0.0,0.0,0.0,0.0,0.0,0.0,0.0,0.0,0.0,
1.1062,3.7373020580530043,3.5636971992406123,3.726379858931405,0.0,0.0,0.06417871842643301,3.675793038741674,0.0,0.0,0.0,0.0,0.0,0.0,0.0,0.0,0.0,0.0,0.0,0.0,0.0,0.0,
1.1218,3.738444927088409,3.5646755575238362,3.7274245930562495,0.0,0.0,0.0642094023604129,3.676848359222832,0.0,0.0,0.0,0.0,0.0,0.0,0.0,0.0,0.0,0.0,0.0,0.0,0.0,0.0,
1.1374,3.7396051605979213,3.565668682426359,3.7284850686803854,0.0,0.0,0.0642405346809675,3.6779196372348886,0.0,0.0,0.0,0.0,0.0,0.0,0.0,0.0,0.0,0.0,0.0,0.0,0.0,0.0,
1.153,3.7407828182147838,3.566676620522965,3.729561334285192,0.0,0.0,0.0642721161565472,3.6790069243409804,0.0,0.0,0.0,0.0,0.0,0.0,0.0,0.0,0.0,0.0,0.0,0.0,0.0,0.0,
1.1686,3.7419779606042662,3.567699419182821,3.730653439173406,0.0,0.0,0.0643041475652231,3.680110272986831,0.0,0.0,0.0,0.0,0.0,0.0,0.0,0.0,0.0,0.0,0.0,0.0,0.0,0.0,
1.1842,3.743190649473025,3.5687371265762176,3.7317614334759455,0.0,0.0,0.06433662969462924,3.6812297365083957,0.0,0.0,0.0,0.0,0.0,0.0,0.0,0.0,0.0,0.0,0.0,0.0,0.0,0.0,
1.1997,3.744413004840074,3.5697829960893097,3.732878112576836,0.0,0.0,0.06436935078917842,3.6823580378354066,0.0,0.0,0.0,0.0,0.0,0.0,0.0,0.0,0.0,0.0,0.0,0.0,0.0,0.0,
1.2153,3.745660862507715,3.57085057233799,3.7340179367680064,0.0,0.0,0.06440273385878054,3.683509790537904,0.0,0.0,0.0,0.0,0.0,0.0,0.0,0.0,0.0,0.0,0.0,0.0,0.0,0.0,
1.2309,3.746926457702018,3.5719332063813205,3.7351738054659105,0.0,0.0,0.06443657006350104,3.6846778231830832,0.0,0.0,0.0,0.0,0.0,0.0,0.0,0.0,0.0,0.0,0.0,0.0,0.0,0.0,
1.2465,3.7482098563874113,3.57303094966001,3.7363457721800577,0.0,0.0,0.0644708602285253,3.685862192742493,0.0,0.0,0.0,0.0,0.0,0.0,0.0,0.0,0.0,0.0,0.0,0.0,0.0,0.0,
1.2621,3.7495111256201694,3.574143854452139,3.737533891284439,0.0,0.0,0.06450560518827017,3.687062957118916,0.0,0.0,0.0,0.0,0.0,0.0,0.0,0.0,0.0,0.0,0.0,0.0,0.0,0.0,
1.2776,3.7508218198246723,3.5752646937800527,3.7387304462491753,0.0,0.0,0.06454057868863425,3.6882723199513,0.0,0.0,0.0,0.0,0.0,0.0,0.0,0.0,0.0,0.0,0.0,0.0,0.0,0.0,
1.2932,3.7521589200833025,3.576407983772119,3.739950932317102,0.0,0.0,0.06457623284866856,3.689505945390841,0.0,0.0,0.0,0.0,0.0,0.0,0.0,0.0,0.0,0.0,0.0,0.0,0.0,0.0,
1.3088,3.75351409826241,3.5775665968597314,3.7411877387935633,0.0,0.0,0.06461234435576257,3.690756144638568,0.0,0.0,0.0,0.0,0.0,0.0,0.0,0.0,0.0,0.0,0.0,0.0,0.0,0.0,
1.3244,3.7548874258875435,3.5787405887434383,3.7424409235831986,0.0,0.0,0.06464891408043802,3.6920229794047272,0.0,0.0,0.0,0.0,0.0,0.0,0.0,0.0,0.0,0.0,0.0,0.0,0.0,0.0,
1.34,3.756278975631783,3.5799300160012097,3.7437105454951065,0.0,0.0,0.06468594290205382,3.693306512376033,0.0,0.0,0.0,0.0,0.0,0.0,0.0,0.0,0.0,0.0,0.0,0.0,0.0,0.0,
1.3555,3.7576797254320087,3.581127162788829,3.7449883672368496,0.0,0.0,0.06472318992909921,3.6945984184858958,0.0,0.0,0.0,0.0,0.0,0.0,0.0,0.0,0.0,0.0,0.0,0.0,0.0,0.0,
1.3711,3.759107824079073,3.5823475342057063,3.746290937147935,0.0,0.0,0.06476113666032621,3.6959154318109046,0.0,0.0,0.0,0.0,0.0,0.0,0.0,0.0,0.0,0.0,0.0,0.0,0.0,0.0,
1.3867,3.7605543693767567,3.5835835156975397,3.7476101257229617,0.0,0.0,0.06479954517285753,3.697249336932419,0.0,0.0,0.0,0.0,0.0,0.0,0.0,0.0,0.0,0.0,0.0,0.0,0.0,0.0,
1.4023,3.7620194387010346,3.5848351674324093,3.7489459954690685,0.0,0.0,0.06483841638042805,3.698600200534171,0.0,0.0,0.0,0.0,0.0,0.0,0.0,0.0,0.0,0.0,0.0,0.0,0.0,0.0,
1.4179,3.7635031106369623,3.5861025504997213,3.750298609841722,0.0,0.0,0.06487775120513802,3.6999680903261356,0.0,0.0,0.0,0.0,0.0,0.0,0.0,0.0,0.0,0.0,0.0,0.0,0.0,0.0,
1.4334,3.76499577484833,3.587377451001776,3.7516592012312624,0.0,0.0,0.06491729397179222,3.701344142360456,0.0,0.0,0.0,0.0,0.0,0.0,0.0,0.0,0.0,0.0,0.0,0.0,0.0,0.0,
1.449,3.7665167721245716,3.588676381889171,3.7530453906840697,0.0,0.0,0.06495755584311384,3.7027461815659373,0.0,0.0,0.0,0.0,0.0,0.0,0.0,0.0,0.0,0.0,0.0,0.0,0.0,0.0,
1.4646,3.768056614621516,3.5899912325871584,3.7544485204856457,0.0,0.0,0.06499828414089492,3.7041654558981065,0.0,0.0,0.0,0.0,0.0,0.0,0.0,0.0,0.0,0.0,0.0,0.0,0.0,0.0,
1.4802,3.769615385884981,3.591322067959791,3.7558686579734832,0.0,0.0,0.06503947981955154,3.7056020372727514,0.0,0.0,0.0,0.0,0.0,0.0,0.0,0.0,0.0,0.0,0.0,0.0,0.0,0.0,
1.4958,3.7711931707375865,3.5926689538408603,3.7573058714817487,0.0,0.0,0.0650811438413047,3.7070559986867315,0.0,0.0,0.0,0.0,0.0,0.0,0.0,0.0,0.0,0.0,0.0,0.0,0.0,0.0,
1.5114,3.7727900552930453,3.594031957044318,3.758760230351454,0.0,0.0,0.06512327717605117,3.708527414229606,0.0,0.0,0.0,0.0,0.0,0.0,0.0,0.0,0.0,0.0,0.0,0.0,0.0,0.0,
1.5269,3.7743957062469935,3.595402252735855,3.7602223167950624,0.0,0.0,0.06516560620131585,3.710006758592637,0.0,0.0,0.0,0.0,0.0,0.0,0.0,0.0,0.0,0.0,0.0,0.0,0.0,0.0,
1.5425,3.776030929938884,3.5967975905856253,3.761711067446134,0.0,0.0,0.06520867807765414,3.7115131959902143,0.0,0.0,0.0,0.0,0.0,0.0,0.0,0.0,0.0,0.0,0.0,0.0,0.0,0.0,
1.5581,3.7776855189881138,3.598209251734927,3.763217177160462,0.0,0.0,0.06525222221504787,3.713037315961168,0.0,0.0,0.0,0.0,0.0,0.0,0.0,0.0,0.0,0.0,0.0,0.0,0.0,0.0,
1.5737,3.779359564813842,3.599637307018122,3.764740719405841,0.0,0.0,0.06529623961272604,3.7145791970792685,0.0,0.0,0.0,0.0,0.0,0.0,0.0,0.0,0.0,0.0,0.0,0.0,0.0,0.0,
1.5893,3.7810531602025934,3.601081828303944,3.7662817687109804,0.0,0.0,0.06534073127690442,3.716138919072506,0.0,0.0,0.0,0.0,0.0,0.0,0.0,0.0,0.0,0.0,0.0,0.0,0.0,0.0,
1.6048,3.7827553542637693,3.602533469910857,3.7678303532911253,0.0,0.0,0.0653854084552745,3.7177063924885836,0.0,0.0,0.0,0.0,0.0,0.0,0.0,0.0,0.0,0.0,0.0,0.0,0.0,0.0,
1.6204,3.7844882058473144,3.6040110362724764,3.7694065311550786,0.0,0.0,0.06543084864182584,3.7193019244249563,0.0,0.0,0.0,0.0,0.0,0.0,0.0,0.0,0.0,0.0,0.0,0.0,0.0,0.0,
1.636,3.786240893094465,3.6055052900805915,3.771000445643122,0.0,0.0,0.06547676614730497,3.7209155429393928,0.0,0.0,0.0,0.0,0.0,0.0,0.0,0.0,0.0,0.0,0.0,0.0,0.0,0.0,
1.6516,3.7880135144166727,3.6070163074516097,3.772612175636602,0.0,0.0,0.06552316200426278,3.722547332501628,0.0,0.0,0.0,0.0,0.0,0.0,0.0,0.0,0.0,0.0,0.0,0.0,0.0,0.0,
1.6672,3.7898061696767775,3.60854416559586,3.774241801136919,0.0,0.0,0.0655700372514225,3.724197378803185,0.0,0.0,0.0,0.0,0.0,0.0,0.0,0.0,0.0,0.0,0.0,0.0,0.0,0.0,
1.6827,3.7916072754152905,3.610078986364439,3.775878784304306,0.0,0.0,0.06561708783923079,3.7258550153613452,0.0,0.0,0.0,0.0,0.0,0.0,0.0,0.0,0.0,0.0,0.0,0.0,0.0,0.0,
1.6983,3.7934401739721375,3.611640652905417,3.7775443293389936,0.0,0.0,0.06566492191694645,3.7275417187388498,0.0,0.0,0.0,0.0,0.0,0.0,0.0,0.0,0.0,0.0,0.0,0.0,0.0,0.0,
1.7139,3.7952934142692825,3.613219398022114,3.779228016193072,0.0,0.0,0.06571323852945087,3.7292469428281563,0.0,0.0,0.0,0.0,0.0,0.0,0.0,0.0,0.0,0.0,0.0,0.0,0.0,0.0,
1.7295,3.797167102146651,3.6148153034223034,3.780929929468469,0.0,0.0,0.0657620387382608,3.730970778345808,0.0,0.0,0.0,0.0,0.0,0.0,0.0,0.0,0.0,0.0,0.0,0.0,0.0,0.0,
1.7451,3.799061344987875,3.6164284519731873,3.7826501549520057,0.0,0.0,0.0658113236101031,3.732713317304356,0.0,0.0,0.0,0.0,0.0,0.0,0.0,0.0,0.0,0.0,0.0,0.0,0.0,0.0,
1.7606,3.8009639106578037,3.6180484205882477,3.7843775758195908,0.0,0.0,0.06586077362521493,3.734463302355214,0.0,0.0,0.0,0.0,0.0,0.0,0.0,0.0,0.0,0.0,0.0,0.0,0.0,0.0,
1.7762,3.8028994583268743,3.6196961968580412,3.786134569096784,0.0,0.0,0.06591102791905262,3.7362434080939,0.0,0.0,0.0,0.0,0.0,0.0,0.0,0.0,0.0,0.0,0.0,0.0,0.0,0.0,
1.7918,3.804855891848271,3.6213614714196622,3.787910138614517,0.0,0.0,0.06596177009826164,3.738042500627483,0.0,0.0,0.0,0.0,0.0,0.0,0.0,0.0,0.0,0.0,0.0,0.0,0.0,0.0,
1.8074,3.806833324970884,3.623044331912138,3.789704375031882,0.0,0.0,0.06601300124818592,3.739860677304968,0.0,0.0,0.0,0.0,0.0,0.0,0.0,0.0,0.0,0.0,0.0,0.0,0.0,0.0,
1.823,3.8088318730894564,3.624744867205986,3.7915173702642764,0.0,0.0,0.06606472245824643,3.7416980368532395,0.0,0.0,0.0,0.0,0.0,0.0,0.0,0.0,0.0,0.0,0.0,0.0,0.0,0.0,
1.8386,3.8108516532662735,3.6264631674185694,3.7933492174984735,0.0,0.0,0.06611693482168998,3.743554679394439,0.0,0.0,0.0,0.0,0.0,0.0,0.0,0.0,0.0,0.0,0.0,0.0,0.0,0.0,
