energies(eV),real_xx,real_yy,real_zz,real_xy,real_yz,real_xz,real_ave,imag_xx,imag_yy,imag_zz,imag_xy,imag_yz,imag_xz,imag_ave,absorption_xx,absorption_yy,absorption_zz,absorption_xy,absorption_yz,absorption_xz,absorption_ave,band_gap
0.0,2.6038489587327223,2.5703956922731273,2.4318758535329996,0.0,0.0,0.054106022769146556,2.5353735015129497,0.0,0.0,0.0,0.0,0.0,0.0,0.0,0.0,0.0,0.0,0.0,0.0,0.0,0.0,7.9021
0.0208,2.6038521750350956,2.570398782240811,2.4318785560606013,0.0,0.0,0.054106209055195136,2.535376504445503,0.0,0.0,0.0,0.0,0.0,0.0,0.0,0.0,0.0,0.0,0.0,0.0,0.0,0.0,
0.0415,2.6038617622694122,2.570407992893406,2.431886611815849,0.0,0.0,0.054106764345037854,2.5353854556595556,0.0,0.0,0.0,0.0,0.0,0.0,0.0,0.0,0.0,0.0,0.0,0.0,0.0,0.0,
0.0623,2.6038778133823093,2.5704234135261346,2.4319000988784563,0.0,0.0,0.05410769403340772,2.535400441928967,0.0,0.0,0.0,0.0,0.0,0.0,0.0,0.0,0.0,0.0,0.0,0.0,0.0,0.0,
0.083,2.603900174559871,2.5704448963660216,2.431918887972966,0.0,0.0,0.05410898923002197,2.535421319632953,0.0,0.0,0.0,0.0,0.0,0.0,0.0,0.0,0.0,0.0,0.0,0.0,0.0,0.0,
0.1038,2.603929062590027,2.5704726496844823,2.431943161211114,0.0,0.0,0.054110662517940285,2.5354482911618743,0.0,0.0,0.0,0.0,0.0,0.0,0.0,0.0,0.0,0.0,0.0,0.0,0.0,0.0,
0.1245,2.603964200645944,2.5705064075269073,2.4319726859304858,0.0,0.0,0.05411269789611588,2.5354810980344458,0.0,0.0,0.0,0.0,0.0,0.0,0.0,0.0,0.0,0.0,0.0,0.0,0.0,0.0,
0.1453,2.6040059293855107,2.5705464971683876,2.4320077482971536,0.0,0.0,0.05411511513862798,2.535520058283684,0.0,0.0,0.0,0.0,0.0,0.0,0.0,0.0,0.0,0.0,0.0,0.0,0.0,0.0,
0.1661,2.6040540959061667,2.5705927717102117,2.4320482197498596,0.0,0.0,0.05411790543789129,2.535565029122079,0.0,0.0,0.0,0.0,0.0,0.0,0.0,0.0,0.0,0.0,0.0,0.0,0.0,0.0,
0.1868,2.6041084238608967,2.570644965657856,2.432093867995168,0.0,0.0,0.054121052840470356,2.53561575250464,0.0,0.0,0.0,0.0,0.0,0.0,0.0,0.0,0.0,0.0,0.0,0.0,0.0,0.0,
0.2076,2.604169439951387,2.570703585021328,2.43214513547575,0.0,0.0,0.054124587924068684,2.5356727201494884,0.0,0.0,0.0,0.0,0.0,0.0,0.0,0.0,0.0,0.0,0.0,0.0,0.0,0.0,
0.2283,2.604236559477063,2.570768068064165,2.432201530786594,0.0,0.0,0.05412847688414744,2.5357353861092737,0.0,0.0,0.0,0.0,0.0,0.0,0.0,0.0,0.0,0.0,0.0,0.0,0.0,0.0,
0.2491,2.6043104331529525,2.5708390399376246,2.432263600536264,0.0,0.0,0.054132757502912576,2.5358043578756138,0.0,0.0,0.0,0.0,0.0,0.0,0.0,0.0,0.0,0.0,0.0,0.0,0.0,0.0,
0.2698,2.604390353068826,2.5709158205348936,2.4323307497794273,0.0,0.0,0.054137388846714846,2.535878974461049,0.0,0.0,0.0,0.0,0.0,0.0,0.0,0.0,0.0,0.0,0.0,0.0,0.0,0.0,
0.2906,2.6044770940390896,2.5709991542310124,2.4324036293575055,0.0,0.0,0.054142415910364255,2.5359599592092024,0.0,0.0,0.0,0.0,0.0,0.0,0.0,0.0,0.0,0.0,0.0,0.0,0.0,0.0,
0.3114,2.6045702883440343,2.571088687746177,2.432481930131722,0.0,0.0,0.05414781748799699,2.5360469687406444,0.0,0.0,0.0,0.0,0.0,0.0,0.0,0.0,0.0,0.0,0.0,0.0,0.0,0.0,
0.3321,2.604669444522206,2.5711839489196766,2.4325652389995467,0.0,0.0,0.05415356520011307,2.5361395441471433,0.0,0.0,0.0,0.0,0.0,0.0,0.0,0.0,0.0,0.0,0.0,0.0,0.0,0.0,
0.3529,2.6047755238843022,2.571285861295496,2.4326543634310083,0.0,0.0,0.05415971488771745,2.536238582870269,0.0,0.0,0.0,0.0,0.0,0.0,0.0,0.0,0.0,0.0,0.0,0.0,0.0,0.0,
0.3736,2.60488750990739,2.571393448276308,2.4327484491624034,0.0,0.0,0.05416620774472986,2.5363431357820336,0.0,0.0,0.0,0.0,0.0,0.0,0.0,0.0,0.0,0.0,0.0,0.0,0.0,0.0,
0.3944,2.6050064882890265,2.57150775290564,2.432848408120213,0.0,0.0,0.054173106851817886,2.5364542164382935,0.0,0.0,0.0,0.0,0.0,0.0,0.0,0.0,0.0,0.0,0.0,0.0,0.0,0.0,
0.4152,2.6051319375100794,2.571628274144775,2.4329538019007524,0.0,0.0,0.05418038211468669,2.536571337851869,0.0,0.0,0.0,0.0,0.0,0.0,0.0,0.0,0.0,0.0,0.0,0.0,0.0,0.0,
0.4359,2.605263211975172,2.5717543917532035,2.4330640878760357,0.0,0.0,0.05418799623409186,2.53669389720147,0.0,0.0,0.0,0.0,0.0,0.0,0.0,0.0,0.0,0.0,0.0,0.0,0.0,0.0,
0.4567,2.605401584387348,2.5718873284319335,2.4331803349972847,0.0,0.0,0.05419602318486364,2.536823082605522,0.0,0.0,0.0,0.0,0.0,0.0,0.0,0.0,0.0,0.0,0.0,0.0,0.0,0.0,
0.4774,2.6055457287793677,2.5720258102955054,2.4333014290345054,0.0,0.0,0.054204386210826815,2.5369576560364595,0.0,0.0,0.0,0.0,0.0,0.0,0.0,0.0,0.0,0.0,0.0,0.0,0.0,0.0,
0.4982,2.6056970426323054,2.5721711799197493,2.4334285436995984,0.0,0.0,0.05421316656334277,2.5370989220838847,0.0,0.0,0.0,0.0,0.0,0.0,0.0,0.0,0.0,0.0,0.0,0.0,0.0,0.0,
0.5189,2.605854075971032,2.5723220442833066,2.43356046060043,0.0,0.0,0.05422228028256752,2.53724552695159,0.0,0.0,0.0,0.0,0.0,0.0,0.0,0.0,0.0,0.0,0.0,0.0,0.0,0.0,
0.5397,2.606018351240266,2.572479866014918,2.4336984583539354,0.0,0.0,0.05423181591390704,2.5373988918697066,0.0,0.0,0.0,0.0,0.0,0.0,0.0,0.0,0.0,0.0,0.0,0.0,0.0,0.0,
0.5605,2.6061891308921767,2.572643936532984,2.4338419170340355,0.0,0.0,0.05424173085228485,2.5375583281530654,0.0,0.0,0.0,0.0,0.0,0.0,0.0,0.0,0.0,0.0,0.0,0.0,0.0,0.0,
0.5812,2.606365552661588,2.57281342743923,2.4339901119912826,0.0,0.0,0.05425197522758402,2.5377230306973666,0.0,0.0,0.0,0.0,0.0,0.0,0.0,0.0,0.0,0.0,0.0,0.0,0.0,0.0,
0.602,2.6065493269745947,2.572989981956085,2.4341444796261547,0.0,0.0,0.05426264857144434,2.5378945961856116,0.0,0.0,0.0,0.0,0.0,0.0,0.0,0.0,0.0,0.0,0.0,0.0,0.0,0.0,
0.6227,2.6067386928182135,2.5731719082456506,2.434303540339165,0.0,0.0,0.05427364882486706,2.538071380467676,0.0,0.0,0.0,0.0,0.0,0.0,0.0,0.0,0.0,0.0,0.0,0.0,0.0,0.0,
0.6435,2.6069354861202183,2.5733609700994573,2.4344688358541027,0.0,0.0,0.05428508286435797,2.538255097357926,0.0,0.0,0.0,0.0,0.0,0.0,0.0,0.0,0.0,0.0,0.0,0.0,0.0,0.0,
0.6642,2.607137821121598,2.5735553558357074,2.4346387818345567,0.0,0.0,0.05429684135812671,2.538443986263954,0.0,0.0,0.0,0.0,0.0,0.0,0.0,0.0,0.0,0.0,0.0,0.0,0.0,0.0,
0.685,2.6073476594966283,2.573756950049935,2.434815025517934,0.0,0.0,0.054309038550700545,2.5386398783548327,0.0,0.0,0.0,0.0,0.0,0.0,0.0,0.0,0.0,0.0,0.0,0.0,0.0,0.0,
0.7058,2.6075640464916905,2.5739648354888924,2.4349967645382344,0.0,0.0,0.05432161921663596,2.5388418821729393,0.0,0.0,0.0,0.0,0.0,0.0,0.0,0.0,0.0,0.0,0.0,0.0,0.0,0.0,
0.7265,2.607785901790445,2.5741779742716635,2.4351830911482715,0.0,0.0,0.054334520786001185,2.5390489890701264,0.0,0.0,0.0,0.0,0.0,0.0,0.0,0.0,0.0,0.0,0.0,0.0,0.0,0.0,
0.7473,2.60801537633557,2.574398432822349,2.4353758113693234,0.0,0.0,0.0543478686113023,2.539263206842414,0.0,0.0,0.0,0.0,0.0,0.0,0.0,0.0,0.0,0.0,0.0,0.0,0.0,0.0,
0.768,2.60825027122878,2.5746240986269,2.435573078021677,0.0,0.0,0.05436153506453816,2.5394824826257856,0.0,0.0,0.0,0.0,0.0,0.0,0.0,0.0,0.0,0.0,0.0,0.0,0.0,0.0,
0.7888,2.608492863846747,2.5748571595730705,2.4357768031744236,0.0,0.0,0.05437565293136217,2.5397089421980805,0.0,0.0,0.0,0.0,0.0,0.0,0.0,0.0,0.0,0.0,0.0,0.0,0.0,0.0,
0.8095,2.6087408296021053,2.5750953823982874,2.43598503417698,0.0,0.0,0.05439008722242509,2.5399404153924574,0.0,0.0,0.0,0.0,0.0,0.0,0.0,0.0,0.0,0.0,0.0,0.0,0.0,0.0,
0.8303,2.6089965726107325,2.5753410767468257,2.436199789383336,0.0,0.0,0.05440497818548788,2.5401791462469645,0.0,0.0,0.0,0.0,0.0,0.0,0.0,0.0,0.0,0.0,0.0,0.0,0.0,0.0,
0.8511,2.6092589193831945,2.5755931152263214,2.436420082795495,0.0,0.0,0.054420257831906516,2.540424039135004,0.0,0.0,0.0,0.0,0.0,0.0,0.0,0.0,0.0,0.0,0.0,0.0,0.0,0.0,
0.8718,2.6095265698135237,2.5758502488058284,2.4366448222147117,0.0,0.0,0.054435850729207834,2.540673880278021,0.0,0.0,0.0,0.0,0.0,0.0,0.0,0.0,0.0,0.0,0.0,0.0,0.0,0.0,
0.8926,2.6098021188905047,2.5761149704977617,2.4368761860251515,0.0,0.0,0.0544519083853898,2.5409310918044725,0.0,0.0,0.0,0.0,0.0,0.0,0.0,0.0,0.0,0.0,0.0,0.0,0.0,0.0,
0.9133,2.6100829262681446,2.5763847436946086,2.4371119566950137,0.0,0.0,0.054468277268508655,2.541193208885922,0.0,0.0,0.0,0.0,0.0,0.0,0.0,0.0,0.0,0.0,0.0,0.0,0.0,0.0,
0.9341,2.6103717145147285,2.5766621839716457,2.4373544195458434,0.0,0.0,0.054485116428557245,2.541462772677406,0.0,0.0,0.0,0.0,0.0,0.0,0.0,0.0,0.0,0.0,0.0,0.0,0.0,0.0,
0.9548,2.610665716442732,2.576944632867238,2.437601250678606,0.0,0.0,0.054502264863644866,2.541737199996192,0.0,0.0,0.0,0.0,0.0,0.0,0.0,0.0,0.0,0.0,0.0,0.0,0.0,0.0,
0.9756,2.6109677825670143,2.5772348288718376,2.43785484263719,0.0,0.0,0.05451988920072561,2.5420191513586805,0.0,0.0,0.0,0.0,0.0,0.0,0.0,0.0,0.0,0.0,0.0,0.0,0.0,0.0,
0.9964,2.611276518772072,2.5775314326409493,2.4381140243197534,0.0,0.0,0.05453790851092139,2.5423073252442587,0.0,0.0,0.0,0.0,0.0,0.0,0.0,0.0,0.0,0.0,0.0,0.0,0.0,0.0,
1.0171,2.61159040305864,2.5778329819756007,2.4383775174388767,0.0,0.0,0.05455623430160443,2.5426003008243723,0.0,0.0,0.0,0.0,0.0,0.0,0.0,0.0,0.0,0.0,0.0,0.0,0.0,0.0,
1.0379,2.611912478744249,2.578142400586338,2.438647876066507,0.0,0.0,0.05457504464380883,2.542900918465698,0.0,0.0,0.0,0.0,0.0,0.0,0.0,0.0,0.0,0.0,0.0,0.0,0.0,0.0,
1.0586,2.6122396597329853,2.5784567236446807,2.4389225089734783,0.0,0.0,0.05459415969565087,2.5432062974503817,0.0,0.0,0.0,0.0,0.0,0.0,0.0,0.0,0.0,0.0,0.0,0.0,0.0,0.0,
1.0794,2.6125751182862302,2.5787789987334326,2.4392040782278346,0.0,0.0,0.05461376520033642,2.543519398415832,0.0,0.0,0.0,0.0,0.0,0.0,0.0,0.0,0.0,0.0,0.0,0.0,0.0,0.0,
1.1002,2.6129173013150924,2.5791077337867003,2.4394912794329544,0.0,0.0,0.05463377085672347,2.543838771511582,0.0,0.0,0.0,0.0,0.0,0.0,0.0,0.0,0.0,0.0,0.0,0.0,0.0,0.0,
1.1209,2.6132645268075594,2.5794413128867992,2.439782700199416,0.0,0.0,0.05465407870119429,2.544162846631258,0.0,0.0,0.0,0.0,0.0,0.0,0.0,0.0,0.0,0.0,0.0,0.0,0.0,0.0,
1.1417,2.6136201614106502,2.5797829703559367,2.440081165351187,0.0,0.0,0.05467488607242296,2.5444947657059247,0.0,0.0,0.0,0.0,0.0,0.0,0.0,0.0,0.0,0.0,0.0,0.0,0.0,0.0,
1.1624,2.613980797536826,2.5801294325201454,2.4403838143218763,0.0,0.0,0.054695994043711074,2.5448313481262823,0.0,0.0,0.0,0.0,0.0,0.0,0.0,0.0,0.0,0.0,0.0,0.0,0.0,0.0,
1.1832,2.614349931889269,2.5804840586415834,2.4406935807940373,0.0,0.0,0.054717607732470086,2.5451758571082967,0.0,0.0,0.0,0.0,0.0,0.0,0.0,0.0,0.0,0.0,0.0,0.0,0.0,0.0,
1.2039,2.6147240275593626,2.580843450812977,2.4410074959076167,0.0,0.0,0.05473952050702159,2.545524991426652,0.0,0.0,0.0,0.0,0.0,0.0,0.0,0.0,0.0,0.0,0.0,0.0,0.0,0.0,
1.2247,2.6151067117840228,2.5812110936948187,2.4413286025738694,0.0,0.0,0.054761945309382325,2.5458821360175703,0.0,0.0,0.0,0.0,0.0,0.0,0.0,0.0,0.0,0.0,0.0,0.0,0.0,0.0,
1.2455,2.6154962067429013,2.581585279330722,2.4416554080989705,0.0,0.0,0.05478477851152089,2.5462456313908644,0.0,0.0,0.0,0.0,0.0,0.0,0.0,0.0,0.0,0.0,0.0,0.0,0.0,0.0,
1.2662,2.6158906040444148,2.581964174330755,2.441986310517345,0.0,0.0,0.054807908665698346,2.5466136962975052,0.0,0.0,0.0,0.0,0.0,0.0,0.0,0.0,0.0,0.0,0.0,0.0,0.0,0.0,
1.287,2.616293727821713,2.5823514525047866,2.442324517441861,0.0,0.0,0.05483156055056547,2.54698989925612,0.0,0.0,0.0,0.0,0.0,0.0,0.0,0.0,0.0,0.0,0.0,0.0,0.0,0.0,
1.3077,2.6167017155784658,2.582743403169352,2.442666787495357,0.0,0.0,0.054855508059766175,2.5473706354143917,0.0,0.0,0.0,0.0,0.0,0.0,0.0,0.0,0.0,0.0,0.0,0.0,0.0,0.0,
1.3285,2.617118523259831,2.5831438267598408,2.443016438509561,0.0,0.0,0.0548799839196871,2.547759596176411,0.0,0.0,0.0,0.0,0.0,0.0,0.0,0.0,0.0,0.0,0.0,0.0,0.0,0.0,
1.3492,2.6175401572963817,2.5835488866780425,2.443370119454163,0.0,0.0,0.05490475415179082,2.5481530544761957,0.0,0.0,0.0,0.0,0.0,0.0,0.0,0.0,0.0,0.0,0.0,0.0,0.0,0.0,
1.37,2.6179707059904285,2.583962510508276,2.443731258801804,0.0,0.0,0.054930059482862614,2.5485548251001693,0.0,0.0,0.0,0.0,0.0,0.0,0.0,0.0,0.0,0.0,0.0,0.0,0.0,0.0,
1.3908,2.6184081638717918,2.584382771603422,2.4440981732941047,0.0,0.0,0.05495578268134169,2.5489630362564397,0.0,0.0,0.0,0.0,0.0,0.0,0.0,0.0,0.0,0.0,0.0,0.0,0.0,0.0,
1.4115,2.6188503930180547,2.5848076160773026,2.4444690689428024,0.0,0.0,0.05498179851550422,2.5493756926793867,0.0,0.0,0.0,0.0,0.0,0.0,0.0,0.0,0.0,0.0,0.0,0.0,0.0,0.0,
1.4323,2.619301681493626,2.5852411634152044,2.444847541140842,0.0,0.0,0.055008359825657764,2.549796795349891,0.0,0.0,0.0,0.0,0.0,0.0,0.0,0.0,0.0,0.0,0.0,0.0,0.0,0.0,
1.453,2.619757705466979,2.5856792597561467,2.4452299627156524,0.0,0.0,0.05503521271118828,2.5502223093129257,0.0,0.0,0.0,0.0,0.0,0.0,0.0,0.0,0.0,0.0,0.0,0.0,0.0,0.0,
1.4738,2.6202228868104163,2.5861261531273314,2.4456200408235107,0.0,0.0,0.05506261815339599,2.5506563602537526,0.0,0.0,0.0,0.0,0.0,0.0,0.0,0.0,0.0,0.0,0.0,0.0,0.0,0.0,
1.4945,2.6206927686315646,2.586577561845041,2.446014037098027,0.0,0.0,0.05509031418866501,2.551094789191544,0.0,0.0,0.0,0.0,0.0,0.0,0.0,0.0,0.0,0.0,0.0,0.0,0.0,0.0,
1.5153,2.6211719072261306,2.5870378630694626,2.446415770934787,0.0,0.0,0.055118569999134406,2.5515418470767934,0.0,0.0,0.0,0.0,0.0,0.0,0.0,0.0,0.0,0.0,0.0,0.0,0.0,0.0,
1.5361,2.6216580661526296,2.587504908275296,2.44682336593303,0.0,0.0,0.05514725443309853,2.5519954467869854,0.0,0.0,0.0,0.0,0.0,0.0,0.0,0.0,0.0,0.0,0.0,0.0,0.0,0.0,
1.5568,2.6221488743940444,2.587976419659582,2.4472348333181433,0.0,0.0,0.05517622813370085,2.55245337579059,0.0,0.0,0.0,0.0,0.0,0.0,0.0,0.0,0.0,0.0,0.0,0.0,0.0,0.0,
1.5776,2.6226490912440688,2.5884569693909842,2.447654161908031,0.0,0.0,0.05520577271125713,2.5529200741810283,0.0,0.0,0.0,0.0,0.0,0.0,0.0,0.0,0.0,0.0,0.0,0.0,0.0,0.0,
1.5983,2.6231539242720783,2.588941953457933,2.4480773331070482,0.0,0.0,0.055235605771928334,2.55339107027902,0.0,0.0,0.0,0.0,0.0,0.0,0.0,0.0,0.0,0.0,0.0,0.0,0.0,0.0,
1.6191,2.623668268825762,2.5894360747281624,2.448508449232401,0.0,0.0,0.05526601728597343,2.5538709309287753,0.0,0.0,0.0,0.0,0.0,0.0,0.0,0.0,0.0,0.0,0.0,0.0,0.0,0.0,
1.6398,2.6241871971802038,2.5899345992230405,2.44894337876564,0.0,0.0,0.05529671658073008,2.554355058389628,0.0,0.0,0.0,0.0,0.0,0.0,0.0,0.0,0.0,0.0,0.0,0.0,0.0,0.0,
1.6606,2.6247157414262174,2.5904423611713066,2.4493863380553647,0.0,0.0,0.05532800205388019,2.554848146884296,0.0,0.0,0.0,0.0,0.0,0.0,0.0,0.0,0.0,0.0,0.0,0.0,0.0,0.0,
1.6814,2.6252514304101147,2.5909569865786786,2.44983525465853,0.0,0.0,0.05535972827473154,2.555347890549108,0.0,0.0,0.0,0.0,0.0,0.0,0.0,0.0,0.0,0.0,0.0,0.0,0.0,0.0,
1.7021,2.6257916560262635,2.5914759698912224,2.4502879419206294,0.0,0.0,0.05539174137641681,2.5558518559460386,0.0,0.0,0.0,0.0,0.0,0.0,0.0,0.0,0.0,0.0,0.0,0.0,0.0,0.0,
1.7229,2.6263416569861024,2.5920043438258586,2.450748788409909,0.0,0.0,0.05542435253957893,2.556364929740623,0.0,0.0,0.0,0.0,0.0,0.0,0.0,0.0,0.0,0.0,0.0,0.0,0.0,0.0,
1.7436,2.6268961641218387,2.592537046406435,2.4512133778108143,0.0,0.0,0.05545725008872469,2.5568821961130292,0.0,0.0,0.0,0.0,0.0,0.0,0.0,0.0,0.0,0.0,0.0,0.0,0.0,0.0,
1.7644,2.6274605547070657,2.593079243458395,2.4516862141265543,0.0,0.0,0.05549075381073786,2.5574086707640054,0.0,0.0,0.0,0.0,0.0,0.0,0.0,0.0,0.0,0.0,0.0,0.0,0.0,0.0,
1.7852,2.628032187380655,2.5936283974844745,2.452165082903492,0.0,0.0,0.055524707829790756,2.5579418892562074,0.0,0.0,0.0,0.0,0.0,0.0,0.0,0.0,0.0,0.0,0.0,0.0,0.0,0.0,
1.8059,2.6286082819701195,2.59418183764172,2.452647654040467,0.0,0.0,0.05555894765194747,2.5584792578841022,0.0,0.0,0.0,0.0,0.0,0.0,0.0,0.0,0.0,0.0,0.0,0.0,0.0,0.0,
1.8267,2.629194425204937,2.5947449309678676,2.4531386059468785,0.0,0.0,0.055593806126567696,2.5590259873732277,0.0,0.0,0.0,0.0,0.0,0.0,0.0,0.0,0.0,0.0,0.0,0.0,0.0,0.0,
1.8474,2.6297850018548186,2.595312283052415,2.453633233940609,0.0,0.0,0.05562895012445758,2.5595768396159477,0.0,0.0,0.0,0.0,0.0,0.0,0.0,0.0,0.0,0.0,0.0,0.0,0.0,0.0,
1.8682,2.6303857391708836,2.5958893959244635,2.454136333376355,0.0,0.0,0.0556647212949607,2.5601371561572344,0.0,0.0,0.0,0.0,0.0,0.0,0.0,0.0,0.0,0.0,0.0,0.0,0.0,0.0,
1.8889,2.630990882194259,2.596470740947616,2.454643083223081,0.0,0.0,0.05570077779719526,2.560701568788319,0.0,0.0,0.0,0.0,0.0,0.0,0.0,0.0,0.0,0.0,0.0,0.0,0.0,0.0,
1.9097,2.6316062995216174,2.5970619559341563,2.455158396415303,0.0,0.0,0.05573747016229487,2.561275550623692,0.0,0.0,0.0,0.0,0.0,0.0,0.0,0.0,0.0,0.0,0.0,0.0,0.0,0.0,
1.9305,2.632229107635018,2.597660270769846,2.455679856696571,0.0,0.0,0.055774627514365745,2.5618564117004783,0.0,0.0,0.0,0.0,0.0,0.0,0.0,0.0,0.0,0.0,0.0,0.0,0.0,0.0,
1.9512,2.632856281365205,2.5982627792663355,2.4562049299726265,0.0,0.0,0.05581207007957427,2.562441330201389,0.0,0.0,0.0,0.0,0.0,0.0,0.0,0.0,0.0,0.0,0.0,0.0,0.0,0.0,
1.972,2.6334939030963573,2.598875324610972,2.4567387069200146,0.0,0.0,0.05585016188165025,2.5630359782091143,0.0,0.0,0.0,0.0,0.0,0.0,0.0,0.0,0.0,0.0,0.0,0.0,0.0,0.0,
1.9927,2.634135864752149,2.599492038955674,2.4572760726972627,0.0,0.0,0.05588853893264529,2.5636346588016954,0.0,0.0,0.0,0.0,0.0,0.0,0.0,0.0,0.0,0.0,0.0,0.0,0.0,0.0,
2.0135,2.634788392227615,2.6001189033522656,2.457822237226888,0.0,0.0,0.05592757435402767,2.5642431776022563,0.0,0.0,0.0,0.0,0.0,0.0,0.0,0.0,0.0,0.0,0.0,0.0,0.0,0.0,
2.0342,2.6354452347554735,2.600749912880511,2.4583719670344597,0.0,0.0,0.05596689515378754,2.564855704890148,0.0,0.0,0.0,0.0,0.0,0.0,0.0,0.0,0.0,0.0,0.0,0.0,0.0,0.0,
2.055,2.6361127626501553,2.601391187330087,2.458930591986933,0.0,0.0,0.05600688364215083,2.565478180655725,0.0,0.0,0.0,0.0,0.0,0.0,0.0,0.0,0.0,0.0,0.0,0.0,0.0,0.0,
2.0758,2.6367878452554203,2.6020397191851306,2.4594954901782513,0.0,0.0,0.05604735345555283,2.566107684872934,0.0,0.0,0.0,0.0,0.0,0.0,0.0,0.0,0.0,0.0,0.0,0.0,0.0,0.0,
2.0965,2.6374672071333585,2.602692361847244,2.4600639194542913,0.0,0.0,0.056088109021325605,2.5667411628116312,0.0,0.0,0.0,0.0,0.0,0.0,0.0,0.0,0.0,0.0,0.0,0.0,0.0,0.0,
2.1173,2.6381574371622256,2.6033554450728875,2.460641391095959,0.0,0.0,0.05612954662085863,2.5673847577770244,0.0,0.0,0.0,0.0,0.0,0.0,0.0,0.0,0.0,0.0,0.0,0.0,0.0,0.0,
2.138,2.6388519236817825,2.6040226172583445,2.461222371828539,0.0,0.0,0.05617127034422605,2.568032304256222,0.0,0.0,0.0,0.0,0.0,0.0,0.0,0.0,0.0,0.0,0.0,0.0,0.0,0.0,
2.1588,2.6395574023727155,2.6047003491893275,2.461812494707731,0.0,0.0,0.05621368590147183,2.5686900820899248,0.0,0.0,0.0,0.0,0.0,0.0,0.0,0.0,0.0,0.0,0.0,0.0,0.0,0.0,
2.1795,2.640267115625224,2.605382149058074,2.4624061053178377,0.0,0.0,0.05625638805408022,2.5693517900003786,0.0,0.0,0.0,0.0,0.0,0.0,0.0,0.0,0.0,0.0,0.0,0.0,0.0,0.0,
2.2003,2.640987946920596,2.6060746296394703,2.463008959255238,0.0,0.0,0.056299792041723716,2.5700238452717685,0.0,0.0,0.0,0.0,0.0,0.0,0.0,0.0,0.0,0.0,0.0,0.0,0.0,0.0,
2.2211,2.6417165129801967,2.606774540747045,2.4636182247363165,0.0,0.0,0.05634369547169909,2.570703092821186,0.0,0.0,0.0,0.0,0.0,0.0,0.0,0.0,0.0,0.0,0.0,0.0,0.0,0.0,
2.2418,2.6424492823058388,2.6074784898066117,2.46423094708728,0.0,0.0,0.056387886397227804,2.5713862397332434,0.0,0.0,0.0,0.0,0.0,0.0,0.0,0.0,0.0,0.0,0.0,0.0,0.0,0.0,
2.2626,2.6431933621902863,2.608193304606606,2.4648530673450586,0.0,0.0,0.05643279456005519,2.57207991138065,0.0,0.0,0.0,0.0,0.0,0.0,0.0,0.0,0.0,0.0,0.0,0.0,0.0,0.0,
2.2833,2.6439416255925705,2.6089121384482126,2.465478624728243,0.0,0.0,0.056477990949332896,2.5727774629230087,0.0,0.0,0.0,0.0,0.0,0.0,0.0,0.0,0.0,0.0,0.0,0.0,0.0,0.0,
2.3041,2.644701330220306,2.6096419636236856,2.4661136848184597,0.0,0.0,0.056523915102256135,2.57348565955415,0.0,0.0,0.0,0.0,0.0,0.0,0.0,0.0,0.0,0.0,0.0,0.0,0.0,0.0,
2.3248,2.645465199510213,2.6103757897951736,2.466752162948649,0.0,0.0,0.05657012832011635,2.574197717418012,0.0,0.0,0.0,0.0,0.0,0.0,0.0,0.0,0.0,0.0,0.0,0.0,0.0,0.0,
2.3456,2.646240642678276,2.611120734810865,2.467400250082501,0.0,0.0,0.05661708004733071,2.574920542523881,0.0,0.0,0.0,0.0,0.0,0.0,0.0,0.0,0.0,0.0,0.0,0.0,0.0,0.0,
2.3664,2.6470240178072695,2.6118733000314833,2.4680548999290455,0.0,0.0,0.05666455126251194,2.575650739255933,0.0,0.0,0.0,0.0,0.0,0.0,0.0,0.0,0.0,0.0,0.0,0.0,0.0,0.0,
2.3871,2.647811530995767,2.6126298408094493,2.4687129404195707,0.0,0.0,0.05671231300859898,2.5763847707415954,0.0,0.0,0.0,0.0,0.0,0.0,0.0,0.0,0.0,0.0,0.0,0.0,0.0,0.0,
2.4079,2.6486108210201946,2.613397695537617,2.4693807523605824,0.0,0.0,0.056760829819777085,2.5771297563061313,0.0,0.0,0.0,0.0,0.0,0.0,0.0,0.0,0.0,0.0,0.0,0.0,0.0,0.0,
2.4286,2.6494142325377075,2.6141695099972946,2.470051937544934,0.0,0.0,0.05680963828010088,2.577878560026645,0.0,0.0,0.0,0.0,0.0,0.0,0.0,0.0,0.0,0.0,0.0,0.0,0.0,0.0,
