energies(eV),real_xx,real_yy,real_zz,real_xy,real_yz,real_xz,real_ave,imag_xx,imag_yy,imag_zz,imag_xy,imag_yz,imag_xz,imag_ave,absorption_xx,absorption_yy,absorption_zz,absorption_xy,absorption_yz,absorption_xz,absorption_ave,band_gap
0.0,3.1307349742444477,3.1268677977614057,2.959704912767724,0.0,0.0,0.0018110096724614276,3.0724358949245256,0.0,0.0,0.0,0.0,0.0,0.0,0.0,0.0,0.0,0.0,0.0,0.0,0.0,0.0,4.7524999999999995
0.0192,3.1307443867684692,3.1268771380683553,2.9597121246680347,0.0,0.0,0.001811012800503495,3.072444549834953,0.0,0.0,0.0,0.0,0.0,0.0,0.0,0.0,0.0,0.0,0.0,0.0,0.0,0.0,
0.0384,3.1307726252651227,3.126905159905359,2.959733760959807,0.0,0.0,0.001811022186047522,3.072470515376763,0.0,0.0,0.0,0.0,0.0,0.0,0.0,0.0,0.0,0.0,0.0,0.0,0.0,0.0,
0.0576,3.130819692508437,3.126951866021242,2.9597698234158036,0.0,0.0,0.0018110378333481012,3.072513793981828,0.0,0.0,0.0,0.0,0.0,0.0,0.0,0.0,0.0,0.0,0.0,0.0,0.0,0.0,
0.0768,3.1308855931227213,3.1270172609983837,2.959820314991145,0.0,0.0,0.0018110597494998002,3.0725743897040836,0.0,0.0,0.0,0.0,0.0,0.0,0.0,0.0,0.0,0.0,0.0,0.0,0.0,0.0,
0.096,3.1309703335841266,3.1271013512540633,2.959885239824149,0.0,0.0,0.0018110879444423005,3.0726523082207797,0.0,0.0,0.0,0.0,0.0,0.0,0.0,0.0,0.0,0.0,0.0,0.0,0.0,0.0,
0.1152,3.131073922222639,3.1272041450426764,2.959964603237531,0.0,0.0,0.0018111224309678893,3.072747556834282,0.0,0.0,0.0,0.0,0.0,0.0,0.0,0.0,0.0,0.0,0.0,0.0,0.0,0.0,
0.1344,3.1311963692247566,3.1273256524582487,2.960058411739819,0.0,0.0,0.0018111632247309346,3.0728601444742747,0.0,0.0,0.0,0.0,0.0,0.0,0.0,0.0,0.0,0.0,0.0,0.0,0.0,0.0,
0.1536,3.1313376866367255,3.1274658854377155,2.9601666730272136,0.0,0.0,0.0018112103442594614,3.0729900817005515,0.0,0.0,0.0,0.0,0.0,0.0,0.0,0.0,0.0,0.0,0.0,0.0,0.0,0.0,
0.1728,3.1314978883684015,3.127624857764732,2.960289395985749,0.0,0.0,0.00181126381096906,3.073137380706294,0.0,0.0,0.0,0.0,0.0,0.0,0.0,0.0,0.0,0.0,0.0,0.0,0.0,0.0,
0.192,3.131676990197651,3.1278025850740505,2.9604265906937544,0.0,0.0,0.0018113236491786786,3.073302055321818,0.0,0.0,0.0,0.0,0.0,0.0,0.0,0.0,0.0,0.0,0.0,0.0,0.0,0.0,
0.2112,3.131875009775435,3.127999084856617,2.9605782684247193,0.0,0.0,0.0018113898861288394,3.0734841210189234,0.0,0.0,0.0,0.0,0.0,0.0,0.0,0.0,0.0,0.0,0.0,0.0,0.0,0.0,
0.2304,3.132091966631395,3.128214376465033,2.960744441650366,0.0,0.0,0.0018114625520019394,3.073683594915598,0.0,0.0,0.0,0.0,0.0,0.0,0.0,0.0,0.0,0.0,0.0,0.0,0.0,0.0,
0.2496,3.132327882180185,3.1284484811199778,2.960925124044301,0.0,0.0,0.0018115416799446456,3.0739004957814884,0.0,0.0,0.0,0.0,0.0,0.0,0.0,0.0,0.0,0.0,0.0,0.0,0.0,0.0,
0.2688,3.1325827797282506,3.128701421916798,2.961120330485687,0.0,0.0,0.0018116273060927667,3.0741348440435785,0.0,0.0,0.0,0.0,0.0,0.0,0.0,0.0,0.0,0.0,0.0,0.0,0.0,0.0,
0.288,3.132856684481363,3.128973223833135,2.9613300770635878,0.0,0.0,0.0018117194695982132,3.0743866617926954,0.0,0.0,0.0,0.0,0.0,0.0,0.0,0.0,0.0,0.0,0.0,0.0,0.0,0.0,
0.3072,3.1331496235526792,3.1292639137368665,2.961554381081349,0.0,0.0,0.0018118182126582827,3.0746559727902985,0.0,0.0,0.0,0.0,0.0,0.0,0.0,0.0,0.0,0.0,0.0,0.0,0.0,0.0,
0.3264,3.1334616259715062,3.129573520394835,2.9617932610616524,0.0,0.0,0.0018119235805472663,3.074942802475998,0.0,0.0,0.0,0.0,0.0,0.0,0.0,0.0,0.0,0.0,0.0,0.0,0.0,0.0,
0.3456,3.1337927226926734,3.129902074482115,2.962046736751617,0.0,0.0,0.0018120356216503946,3.0752471779754686,0.0,0.0,0.0,0.0,0.0,0.0,0.0,0.0,0.0,0.0,0.0,0.0,0.0,0.0,
0.3648,3.1341429466064703,3.130249608591999,2.962314829128447,0.0,0.0,0.0018121543875002295,3.075569128108972,0.0,0.0,0.0,0.0,0.0,0.0,0.0,0.0,0.0,0.0,0.0,0.0,0.0,0.0,
0.384,3.1345123325493245,3.1306161572465454,2.9625975604053942,0.0,0.0,0.0018122799328153462,3.0759086834004212,0.0,0.0,0.0,0.0,0.0,0.0,0.0,0.0,0.0,0.0,0.0,0.0,0.0,0.0,
0.4032,3.1349009173151234,3.1310017569078563,2.9628949540380694,0.0,0.0,0.0018124123155415207,3.076265876087016,0.0,0.0,0.0,0.0,0.0,0.0,0.0,0.0,0.0,0.0,0.0,0.0,0.0,0.0,
0.4224,3.135308739667158,3.131406445989896,2.963207034731103,0.0,0.0,0.0018125515968955802,3.076640740129386,0.0,0.0,0.0,0.0,0.0,0.0,0.0,0.0,0.0,0.0,0.0,0.0,0.0,0.0,
0.4416,3.1357358403507574,3.1318302648711245,2.9635338284452306,0.0,0.0,0.0018126978414115284,3.0770333112223707,0.0,0.0,0.0,0.0,0.0,0.0,0.0,0.0,0.0,0.0,0.0,0.0,0.0,0.0,
0.4608,3.1361822621065727,3.1322732559076756,2.963875362404714,0.0,0.0,0.00181285111698941,3.0774436268063208,0.0,0.0,0.0,0.0,0.0,0.0,0.0,0.0,0.0,0.0,0.0,0.0,0.0,0.0,
0.48,3.1366480496845703,3.132735463447323,2.964231665105161,0.0,0.0,0.0018130114949469003,3.0778717260790187,0.0,0.0,0.0,0.0,0.0,0.0,0.0,0.0,0.0,0.0,0.0,0.0,0.0,0.0,
0.4992,3.137133249858769,3.1332169338440257,2.9646027663216747,0.0,0.0,0.0018131790500732978,3.0783176500081564,0.0,0.0,0.0,0.0,0.0,0.0,0.0,0.0,0.0,0.0,0.0,0.0,0.0,0.0,
0.5184,3.137637911442596,3.1337177154732907,2.9649886971175174,0.0,0.0,0.0018133538606867022,3.078781441344468,0.0,0.0,0.0,0.0,0.0,0.0,0.0,0.0,0.0,0.0,0.0,0.0,0.0,0.0,
0.5376,3.138162085305027,3.134237858748154,2.965389489853072,0.0,0.0,0.0018135360086935597,3.0792631446354175,0.0,0.0,0.0,0.0,0.0,0.0,0.0,0.0,0.0,0.0,0.0,0.0,0.0,0.0,
0.5568,3.1387058243873804,3.134777416135973,2.9658051781951738,0.0,0.0,0.0018137255796514089,3.079762806239509,0.0,0.0,0.0,0.0,0.0,0.0,0.0,0.0,0.0,0.0,0.0,0.0,0.0,0.0,
0.576,3.139269183720966,3.135336442175886,2.966235797126978,0.0,0.0,0.0018139226628343357,3.080280474341277,0.0,0.0,0.0,0.0,0.0,0.0,0.0,0.0,0.0,0.0,0.0,0.0,0.0,0.0,
0.5952,3.139852220445374,3.1359149934970434,2.9666813829581278,0.0,0.0,0.0018141273513016594,3.0808161989668483,0.0,0.0,0.0,0.0,0.0,0.0,0.0,0.0,0.0,0.0,0.0,0.0,0.0,0.0,
0.6144,3.140454993827566,3.136513128837623,2.967141973335391,0.0,0.0,0.0018143397419694604,3.0813700320001938,0.0,0.0,0.0,0.0,0.0,0.0,0.0,0.0,0.0,0.0,0.0,0.0,0.0,0.0,
0.6336,3.1410775652818366,3.1371309090645862,2.967617607253727,0.0,0.0,0.0018145599356854069,3.08194202720005,0.0,0.0,0.0,0.0,0.0,0.0,0.0,0.0,0.0,0.0,0.0,0.0,0.0,0.0,
0.6528,3.1417199983903905,3.1377683971942583,2.9681083250677647,0.0,0.0,0.0018147880373068541,3.0825322402174713,0.0,0.0,0.0,0.0,0.0,0.0,0.0,0.0,0.0,0.0,0.0,0.0,0.0,0.0,
0.672,3.1423823589248503,3.138425658413666,2.9686141685037297,0.0,0.0,0.001815024155782119,3.0831407286140817,0.0,0.0,0.0,0.0,0.0,0.0,0.0,0.0,0.0,0.0,0.0,0.0,0.0,0.0,
0.6912,3.1430647148686304,3.1391027601027632,2.9691351806718673,0.0,0.0,0.001815268404235245,3.083767551881087,0.0,0.0,0.0,0.0,0.0,0.0,0.0,0.0,0.0,0.0,0.0,0.0,0.0,0.0,
0.7104,3.1437671364399775,3.1397997718574038,2.9696714060792484,0.0,0.0,0.0018155209000542591,3.0844127714588763,0.0,0.0,0.0,0.0,0.0,0.0,0.0,0.0,0.0,0.0,0.0,0.0,0.0,0.0,
0.7296,3.1444896961160445,3.1405167655132926,2.9702228906430923,0.0,0.0,0.0018157817649830058,3.0850764507574766,0.0,0.0,0.0,0.0,0.0,0.0,0.0,0.0,0.0,0.0,0.0,0.0,0.0,0.0,
0.7488,3.1452324686577575,3.141253815170617,2.970789681704539,0.0,0.0,0.0018160511252167,3.0857586551776373,0.0,0.0,0.0,0.0,0.0,0.0,0.0,0.0,0.0,0.0,0.0,0.0,0.0,0.0,
0.768,3.145995531135527,3.1420109972197894,2.971371828042975,0.0,0.0,0.001816329111501176,3.0864594521327633,0.0,0.0,0.0,0.0,0.0,0.0,0.0,0.0,0.0,0.0,0.0,0.0,0.0,0.0,
0.7872,3.1467789629559935,3.14278839036792,2.9719693798907256,0.0,0.0,0.0018166158592362119,3.087178911071547,0.0,0.0,0.0,0.0,0.0,0.0,0.0,0.0,0.0,0.0,0.0,0.0,0.0,0.0,
0.8064,3.147582845889616,3.1435860756663545,2.972582388948352,0.0,0.0,0.0018169115085826333,3.0879171035014408,0.0,0.0,0.0,0.0,0.0,0.0,0.0,0.0,0.0,0.0,0.0,0.0,0.0,0.0,
0.8256,3.148407264099208,3.1444041365390007,2.9732109084004823,0.0,0.0,0.0018172162045738403,3.088674103012897,0.0,0.0,0.0,0.0,0.0,0.0,0.0,0.0,0.0,0.0,0.0,0.0,0.0,0.0,
0.8448,3.1492523041694924,3.145242658811776,2.973854992932071,0.0,0.0,0.0018175300972313423,3.0894499853044466,0.0,0.0,0.0,0.0,0.0,0.0,0.0,0.0,0.0,0.0,0.0,0.0,0.0,0.0,
0.864,3.1501180551376464,3.1461017307429646,2.9745146987452458,0.0,0.0,0.001817853341684769,3.090244828208619,0.0,0.0,0.0,0.0,0.0,0.0,0.0,0.0,0.0,0.0,0.0,0.0,0.0,0.0,
0.8832,3.151004608524779,3.1469814430545826,2.975190083576763,0.0,0.0,0.0018181860982964754,3.091058711718708,0.0,0.0,0.0,0.0,0.0,0.0,0.0,0.0,0.0,0.0,0.0,0.0,0.0,0.0,
0.9024,3.1519120583686133,3.1478818889648976,2.97588120671591,0.0,0.0,0.0018185285327907048,3.0918917180164733,0.0,0.0,0.0,0.0,0.0,0.0,0.0,0.0,0.0,0.0,0.0,0.0,0.0,0.0,
0.9216,3.1528405012570913,3.1488031642218064,2.97658812902308,0.0,0.0,0.0018188808163875875,3.092743931500659,0.0,0.0,0.0,0.0,0.0,0.0,0.0,0.0,0.0,0.0,0.0,0.0,0.0,0.0,
0.9408,3.153790036363075,3.149745367137495,2.977310912948843,0.0,0.0,0.001819243125942193,3.093615438816471,0.0,0.0,0.0,0.0,0.0,0.0,0.0,0.0,0.0,0.0,0.0,0.0,0.0,0.0,
0.96,3.154760765480318,3.150708598624107,2.9780496225537476,0.0,0.0,0.0018196156440885077,3.0945063288860575,0.0,0.0,0.0,0.0,0.0,0.0,0.0,0.0,0.0,0.0,0.0,0.0,0.0,0.0,
0.9792,3.1557527930604046,3.1516929622306074,2.978804323528607,0.0,0.0,0.001819998559388938,3.0954166929398728,0.0,0.0,0.0,0.0,0.0,0.0,0.0,0.0,0.0,0.0,0.0,0.0,0.0,0.0,
0.9984,3.1567662262510026,3.1526985641807848,2.979575083215434,0.0,0.0,0.0018203920664890884,3.0963466245490743,0.0,0.0,0.0,0.0,0.0,0.0,0.0,0.0,0.0,0.0,0.0,0.0,0.0,0.0,
1.0176,3.1578011749351846,3.153725513412475,2.980361970629128,0.0,0.0,0.0018207963662783024,3.0972962196589293,0.0,0.0,0.0,0.0,0.0,0.0,0.0,0.0,0.0,0.0,0.0,0.0,0.0,0.0,
1.0368,3.158857751772146,3.154773921618033,2.9811650564797056,0.0,0.0,0.0018212116660559574,3.098265576623295,0.0,0.0,0.0,0.0,0.0,0.0,0.0,0.0,0.0,0.0,0.0,0.0,0.0,0.0,
1.056,3.159936072239099,3.155843903286066,2.981984413195251,0.0,0.0,0.0018216381797038115,3.099254796240139,0.0,0.0,0.0,0.0,0.0,0.0,0.0,0.0,0.0,0.0,0.0,0.0,0.0,0.0,
1.0752,3.1610362546744373,3.1569355757444457,2.9828201149455698,0.0,0.0,0.0018220761278646457,3.1002639817881508,0.0,0.0,0.0,0.0,0.0,0.0,0.0,0.0,0.0,0.0,0.0,0.0,0.0,0.0,
1.0944,3.1621584203224127,3.158049059204658,2.9836722376665485,0.0,0.0,0.0018225257381272659,3.1012932390645394,0.0,0.0,0.0,0.0,0.0,0.0,0.0,0.0,0.0,0.0,0.0,0.0,0.0,0.0,
1.1136,3.1633026933789403,3.159184476807625,2.984540859085236,0.0,0.0,0.001822987245218181,3.102342676423934,0.0,0.0,0.0,0.0,0.0,0.0,0.0,0.0,0.0,0.0,0.0,0.0,0.0,0.0,
1.1328,3.164469201039067,3.1603419546707716,2.985426058745662,0.0,0.0,0.0018234608912003217,3.1034124048185006,0.0,0.0,0.0,0.0,0.0,0.0,0.0,0.0,0.0,0.0,0.0,0.0,0.0,0.0,
1.152,3.1656580735456843,3.1615216219366835,2.9863279180354745,0.0,0.0,0.0018239469256787154,3.1045025378392808,0.0,0.0,0.0,0.0,0.0,0.0,0.0,0.0,0.0,0.0,0.0,0.0,0.0,0.0,
1.1712,3.166869444239898,3.162723610823216,2.987246520213314,0.0,0.0,0.0018244456060137087,3.1056131917588097,0.0,0.0,0.0,0.0,0.0,0.0,0.0,0.0,0.0,0.0,0.0,0.0,0.0,0.0,
1.1904,3.168103449612893,3.1639480566751086,2.988181950437043,0.0,0.0,0.0018249571975417725,3.1067444855750153,0.0,0.0,0.0,0.0,0.0,0.0,0.0,0.0,0.0,0.0,0.0,0.0,0.0,0.0,
1.2096,3.1693602293592678,3.165195098017201,2.9891342957927254,0.0,0.0,0.0018254819738042923,3.107896541056398,0.0,0.0,0.0,0.0,0.0,0.0,0.0,0.0,0.0,0.0,0.0,0.0,0.0,0.0,
1.2288,3.170639926432224,3.166464876609345,2.9901036453246164,0.0,0.0,0.0018260202167846025,3.1090694827887284,0.0,0.0,0.0,0.0,0.0,0.0,0.0,0.0,0.0,0.0,0.0,0.0,0.0,0.0,
1.2479,3.171935841883461,3.167750745360886,2.9910849078865107,0.0,0.0,0.0018265693059994895,3.110257165043619,0.0,0.0,0.0,0.0,0.0,0.0,0.0,0.0,0.0,0.0,0.0,0.0,0.0,0.0,
1.2671,3.1732616944927683,3.1690663166148902,2.992088451124057,0.0,0.0,0.0018271352893641797,3.1114721540772385,0.0,0.0,0.0,0.0,0.0,0.0,0.0,0.0,0.0,0.0,0.0,0.0,0.0,0.0,
1.2863,3.174610912609152,3.1704050695825154,2.993109277230932,0.0,0.0,0.0018277156369154997,3.1127084198075337,0.0,0.0,0.0,0.0,0.0,0.0,0.0,0.0,0.0,0.0,0.0,0.0,0.0,0.0,
1.3055,3.1759836527864445,3.1717671595279056,2.994147483389897,0.0,0.0,0.001828310666899937,3.1139660985680826,0.0,0.0,0.0,0.0,0.0,0.0,0.0,0.0,0.0,0.0,0.0,0.0,0.0,0.0,
1.3247,3.177380075138181,3.173152745250335,2.995203168904906,0.0,0.0,0.001828920707323955,3.1152453297644738,0.0,0.0,0.0,0.0,0.0,0.0,0.0,0.0,0.0,0.0,0.0,0.0,0.0,0.0,
1.3439,3.1788003434034957,3.1745619891496952,2.996276435236563,0.0,0.0,0.001829546096247101,3.116546255929918,0.0,0.0,0.0,0.0,0.0,0.0,0.0,0.0,0.0,0.0,0.0,0.0,0.0,0.0,
1.3631,3.1802446250149905,3.1759950572943265,2.997367386038837,0.0,0.0,0.0018301871820857862,3.117869022782718,0.0,0.0,0.0,0.0,0.0,0.0,0.0,0.0,0.0,0.0,0.0,0.0,0.0,0.0,
1.3823,3.181713091168809,3.177452119490711,2.998476127196704,0.0,0.0,0.0018308443239281064,3.119213779285408,0.0,0.0,0.0,0.0,0.0,0.0,0.0,0.0,0.0,0.0,0.0,0.0,0.0,0.0,
1.4015,3.1832059168966063,3.1789333493553666,2.999602766864874,0.0,0.0,0.001831517891860074,3.120580677705616,0.0,0.0,0.0,0.0,0.0,0.0,0.0,0.0,0.0,0.0,0.0,0.0,0.0,0.0,
1.4207,3.18472328114002,3.180438924388916,3.0007474155078255,0.0,0.0,0.0018322082673038005,3.1219698736789208,0.0,0.0,0.0,0.0,0.0,0.0,0.0,0.0,0.0,0.0,0.0,0.0,0.0,0.0,
1.4399,3.1862653668271346,3.181969026052486,3.001910185940816,0.0,0.0,0.00183291584336811,3.1233815262734788,0.0,0.0,0.0,0.0,0.0,0.0,0.0,0.0,0.0,0.0,0.0,0.0,0.0,0.0,
1.4591,3.1878323609515378,3.183523839846394,3.003091193372255,0.0,0.0,0.0018336410252118211,3.1248157980567286,0.0,0.0,0.0,0.0,0.0,0.0,0.0,0.0,0.0,0.0,0.0,0.0,0.0,0.0,
1.4783,3.189424454653552,3.1851035553913194,3.0042905554472723,0.0,0.0,0.001834384230420604,3.1262728551640477,0.0,0.0,0.0,0.0,0.0,0.0,0.0,0.0,0.0,0.0,0.0,0.0,0.0,0.0,
1.4975,3.1910418433042125,3.1867083665118536,3.005508392292505,0.0,0.0,0.0018351458893975578,3.1277528673695234,0.0,0.0,0.0,0.0,0.0,0.0,0.0,0.0,0.0,0.0,0.0,0.0,0.0,0.0,
1.5167,3.192684726591644,3.188338471322816,3.0067448265623664,0.0,0.0,0.0018359264457683607,3.1292560081589422,0.0,0.0,0.0,0.0,0.0,0.0,0.0,0.0,0.0,0.0,0.0,0.0,0.0,0.0,
1.5359,3.1943533086102134,3.1899940723181097,3.0079999834865245,0.0,0.0,0.0018367263568013449,3.130782454804949,0.0,0.0,0.0,0.0,0.0,0.0,0.0,0.0,0.0,0.0,0.0,0.0,0.0,0.0,
1.5551,3.196047797952434,3.191675376462372,3.0092739909189317,0.0,0.0,0.0018375460938432082,3.132332388444579,0.0,0.0,0.0,0.0,0.0,0.0,0.0,0.0,0.0,0.0,0.0,0.0,0.0,0.0,
1.5743,3.19776840780363,3.1933825952855184,3.0105669793882113,0.0,0.0,0.0018383861427711124,3.13390599415912,0.0,0.0,0.0,0.0,0.0,0.0,0.0,0.0,0.0,0.0,0.0,0.0,0.0,0.0,
1.5935,3.199515356039716,3.195115944980174,3.0118790821496053,0.0,0.0,0.001839247004461516,3.1355034610564982,0.0,0.0,0.0,0.0,0.0,0.0,0.0,0.0,0.0,0.0,0.0,0.0,0.0,0.0,
1.6127,3.20128886532788,3.196875646502267,3.0132104352384697,0.0,0.0,0.0018401291952767514,3.1371249823562057,0.0,0.0,0.0,0.0,0.0,0.0,0.0,0.0,0.0,0.0,0.0,0.0,0.0,0.0,
1.6319,3.2030891632305276,3.1986619256746343,3.0145611775254455,0.0,0.0,0.0018410332475699263,3.138770755476869,0.0,0.0,0.0,0.0,0.0,0.0,0.0,0.0,0.0,0.0,0.0,0.0,0.0,0.0,
1.6511,3.2049164823124228,3.2004750132940605,3.0159314507731114,0.0,0.0,0.001841959710208944,3.1404409821265316,0.0,0.0,0.0,0.0,0.0,0.0,0.0,0.0,0.0,0.0,0.0,0.0,0.0,0.0,
1.6703,3.206771060251226,3.202315145241563,3.017321399694536,0.0,0.0,0.0018429091491203732,3.142135868395775,0.0,0.0,0.0,0.0,0.0,0.0,0.0,0.0,0.0,0.0,0.0,0.0,0.0,0.0,
1.6895,3.2086531399516423,3.2041825625963547,3.018731172013597,0.0,0.0,0.0018438821478541187,3.1438556248538645,0.0,0.0,0.0,0.0,0.0,0.0,0.0,0.0,0.0,0.0,0.0,0.0,0.0,0.0,
1.7087,3.2105629696630293,3.2060775117532194,3.0201609185269978,0.0,0.0,0.0018448793081697107,3.1456004666477484,0.0,0.0,0.0,0.0,0.0,0.0,0.0,0.0,0.0,0.0,0.0,0.0,0.0,0.0,
1.7279,3.212500803100872,3.208000244543894,3.02161079316832,0.0,0.0,0.001845901250645076,3.147370613604362,0.0,0.0,0.0,0.0,0.0,0.0,0.0,0.0,0.0,0.0,0.0,0.0,0.0,0.0,
1.7471,3.214466899572118,3.209951018362116,3.0230809530740097,0.0,0.0,0.0018469486153088314,3.149166290336081,0.0,0.0,0.0,0.0,0.0,0.0,0.0,0.0,0.0,0.0,0.0,0.0,0.0,0.0,
1.7663,3.2164615241045693,3.21193009629295,3.0245715586513606,0.0,0.0,0.001848022062297167,3.1509877263496264,0.0,0.0,0.0,0.0,0.0,0.0,0.0,0.0,0.0,0.0,0.0,0.0,0.0,0.0,
1.7855,3.2184849475804276,3.213937747246077,3.026082773648658,0.0,0.0,0.0018491222725361693,3.1528351561583876,0.0,0.0,0.0,0.0,0.0,0.0,0.0,0.0,0.0,0.0,0.0,0.0,0.0,0.0,
1.8047,3.220537446874235,3.2159742460936473,3.027614765227473,0.0,0.0,0.0018502499484508816,3.154708819398452,0.0,0.0,0.0,0.0,0.0,0.0,0.0,0.0,0.0,0.0,0.0,0.0,0.0,0.0,
1.8239,3.2226193049951903,3.2180398738124834,3.0291677040372087,0.0,0.0,0.0018514058147021952,3.156608960948294,0.0,0.0,0.0,0.0,0.0,0.0,0.0,0.0,0.0,0.0,0.0,0.0,0.0,0.0,
1.8431,3.2247308112343096,3.2201349176310243,3.030741764292064,0.0,0.0,0.0018525906189529107,3.158535831052466,0.0,0.0,0.0,0.0,0.0,0.0,0.0,0.0,0.0,0.0,0.0,0.0,0.0,0.0,
1.8623,3.2268722613162595,3.2222596711811615,3.032337123850277,0.0,0.0,0.0018538051326639235,3.160489685449233,0.0,0.0,0.0,0.0,0.0,0.0,0.0,0.0,0.0,0.0,0.0,0.0,0.0,0.0,
1.8815,3.2290439575563505,3.2244144346550487,3.0339539642960367,0.0,0.0,0.0018550501519224018,3.1624707855024785,0.0,0.0,0.0,0.0,0.0,0.0,0.0,0.0,0.0,0.0,0.0,0.0,0.0,0.0,
1.9007,3.231246209022651,3.2265995149671935,3.035592471023925,0.0,0.0,0.0018563264983027846,3.164479398337923,0.0,0.0,0.0,0.0,0.0,0.0,0.0,0.0,0.0,0.0,0.0,0.0,0.0,0.0,
1.9199,3.233479331703577,3.2288152259219283,3.0372528333260713,0.0,0.0,0.0018576350197627397,3.166515796983859,0.0,0.0,0.0,0.0,0.0,0.0,0.0,0.0,0.0,0.0,0.0,0.0,0.0,0.0,
1.9391,3.23574364868108,3.2310618883866935,3.038935244482084,0.0,0.0,0.0018589765915749674,3.168580260516619,0.0,0.0,0.0,0.0,0.0,0.0,0.0,0.0,0.0,0.0,0.0,0.0,0.0,0.0,
1.9583,3.2380394903097387,3.2333398304709196,3.0406399018519776,0.0,0.0,0.0018603521172970495,3.170673074210878,0.0,0.0,0.0,0.0,0.0,0.0,0.0,0.0,0.0,0.0,0.0,0.0,0.0,0.0,
1.9775,3.2403671944018333,3.2356493877112733,3.0423670069720137,0.0,0.0,0.0018617625297807992,3.17279452969504,0.0,0.0,0.0,0.0,0.0,0.0,0.0,0.0,0.0,0.0,0.0,0.0,0.0,0.0,
1.9967,3.2427271064188394,3.2379909032631082,3.0441167656537793,0.0,0.0,0.0018632087922230034,3.174944925111909,0.0,0.0,0.0,0.0,0.0,0.0,0.0,0.0,0.0,0.0,0.0,0.0,0.0,0.0,
2.0159,3.2451195796694288,3.240364728098496,3.0458893880863895,0.0,0.0,0.0018646918992594314,3.177124565284771,0.0,0.0,0.0,0.0,0.0,0.0,0.0,0.0,0.0,0.0,0.0,0.0,0.0,0.0,
2.0351,3.247544975514306,3.242771221211286,3.0476850889422664,0.0,0.0,0.0018662128781042778,3.179333761889286,0.0,0.0,0.0,0.0,0.0,0.0,0.0,0.0,0.0,0.0,0.0,0.0,0.0,0.0,
2.0543,3.2500036635782124,3.245210749829065,3.0495040874861794,0.0,0.0,0.0018677727897370162,3.181572833631152,0.0,0.0,0.0,0.0,0.0,0.0,0.0,0.0,0.0,0.0,0.0,0.0,0.0,0.0,
2.0735,3.2524960219692103,3.2476836896327512,3.05134660768821,0.0,0.0,0.0018693727301388426,3.1838421064300575,0.0,0.0,0.0,0.0,0.0,0.0,0.0,0.0,0.0,0.0,0.0,0.0,0.0,0.0,
2.0927,3.2550224375058447,3.250190424983823,3.0532128783402412,0.0,0.0,0.0018710138315813937,3.1861419136099696,0.0,0.0,0.0,0.0,0.0,0.0,0.0,0.0,0.0,0.0,0.0,0.0,0.0,0.0,
2.1119,3.2575833059521475,3.25273134915965,3.0551031331766336,0.0,0.0,0.0018726972639699275,3.1884725960961435,0.0,0.0,0.0,0.0,0.0,0.0,0.0,0.0,0.0,0.0,0.0,0.0,0.0,0.0,
2.1311,3.2601790322611213,3.2553068645972267,3.0570176109988116,0.0,0.0,0.0018744242362436208,3.190834502619053,0.0,0.0,0.0,0.0,0.0,0.0,0.0,0.0,0.0,0.0,0.0,0.0,0.0,0.0,
2.1503,3.262810030826808,3.2579173831456028,3.0589565558042913,0.0,0.0,0.0018761959978358853,3.1932279899255676,0.0,0.0,0.0,0.0,0.0,0.0,0.0,0.0,0.0,0.0,0.0,0.0,0.0,0.0,
2.1695,3.2654767257455743,3.2605633263275244,3.0609202169199734,0.0,0.0,0.0018780138401976298,3.1956534229976907,0.0,0.0,0.0,0.0,0.0,0.0,0.0,0.0,0.0,0.0,0.0,0.0,0.0,0.0,
2.1887,3.26817955108676,3.2632451256104638,3.062908849140213,0.0,0.0,0.0018798790983864408,3.1981111752791453,0.0,0.0,0.0,0.0,0.0,0.0,0.0,0.0,0.0,0.0,0.0,0.0,0.0,0.0,
2.2079,3.2709189511731016,3.265963222687674,3.0649227128696475,0.0,0.0,0.0018817931527250011,3.2006016289101407,0.0,0.0,0.0,0.0,0.0,0.0,0.0,0.0,0.0,0.0,0.0,0.0,0.0,0.0,
2.2271,3.2736953808716662,3.268718069769558,3.0669620742709993,0.0,0.0,0.0018837574305320258,3.2031251749707415,0.0,0.0,0.0,0.0,0.0,0.0,0.0,0.0,0.0,0.0,0.0,0.0,0.0,0.0,
