energies(eV),real_xx,real_yy,real_zz,real_xy,real_yz,real_xz,real_ave,imag_xx,imag_yy,imag_zz,imag_xy,imag_yz,imag_xz,imag_ave,absorption_xx,absorption_yy,absorption_zz,absorption_xy,absorption_yz,absorption_xz,absorption_ave,band_gap
0.0,2.7920431848491845,2.7920431848491845,2.873632913261498,0.0,0.0,0.0,2.8192397609866227,0.0,0.0,0.0,0.0,0.0,0.0,0.0,0.0,0.0,0.0,0.0,0.0,0.0,0.0,6.008400000000001
0.0188,2.7920477535264157,2.7920477535264157,2.8736381430449947,0.0,0.0,0.0,2.8192445500326087,0.0,0.0,0.0,0.0,0.0,0.0,0.0,0.0,0.0,0.0,0.0,0.0,0.0,0.0,
0.0375,2.7920613626966047,2.7920613626966047,2.873653721551059,0.0,0.0,0.0,2.8192588156480896,0.0,0.0,0.0,0.0,0.0,0.0,0.0,0.0,0.0,0.0,0.0,0.0,0.0,0.0,
0.0563,2.7920841585618703,2.7920841585618703,2.873679816238724,0.0,0.0,0.0,2.8192827111208216,0.0,0.0,0.0,0.0,0.0,0.0,0.0,0.0,0.0,0.0,0.0,0.0,0.0,0.0,
0.075,2.792115899687489,2.792115899687489,2.873716150901303,0.0,0.0,0.0,2.8193159834254273,0.0,0.0,0.0,0.0,0.0,0.0,0.0,0.0,0.0,0.0,0.0,0.0,0.0,0.0,
0.0938,2.7921569270658306,2.7921569270658306,2.8737631161137456,0.0,0.0,0.0,2.8193589900818026,0.0,0.0,0.0,0.0,0.0,0.0,0.0,0.0,0.0,0.0,0.0,0.0,0.0,0.0,
0.1126,2.792207097222862,2.792207097222862,2.873820547942402,0.0,0.0,0.0,2.8194115807960416,0.0,0.0,0.0,0.0,0.0,0.0,0.0,0.0,0.0,0.0,0.0,0.0,0.0,0.0,
0.1313,2.7922660728472017,2.7922660728472017,2.873888060616168,0.0,0.0,0.0,2.8194734021035237,0.0,0.0,0.0,0.0,0.0,0.0,0.0,0.0,0.0,0.0,0.0,0.0,0.0,0.0,
0.1501,2.79233448751069,2.79233448751069,2.8739663798564377,0.0,0.0,0.0,2.8195451182926057,0.0,0.0,0.0,0.0,0.0,0.0,0.0,0.0,0.0,0.0,0.0,0.0,0.0,0.0,
0.1688,2.792411616625461,2.792411616625461,2.8740546766751285,0.0,0.0,0.0,2.81962596997535,0.0,0.0,0.0,0.0,0.0,0.0,0.0,0.0,0.0,0.0,0.0,0.0,0.0,0.0,
0.1876,2.792498288787295,2.792498288787295,2.8741539002138627,0.0,0.0,0.0,2.8197168259294845,0.0,0.0,0.0,0.0,0.0,0.0,0.0,0.0,0.0,0.0,0.0,0.0,0.0,0.0,
0.2064,2.792594120021602,2.792594120021602,2.8742636115477636,0.0,0.0,0.0,2.8198172838636553,0.0,0.0,0.0,0.0,0.0,0.0,0.0,0.0,0.0,0.0,0.0,0.0,0.0,0.0,
0.2251,2.792698532172673,2.792698532172673,2.8743831494682635,0.0,0.0,0.0,2.8199267379378696,0.0,0.0,0.0,0.0,0.0,0.0,0.0,0.0,0.0,0.0,0.0,0.0,0.0,0.0,
0.2439,2.792812646942504,2.792812646942504,2.874513798949473,0.0,0.0,0.0,2.8200463642781606,0.0,0.0,0.0,0.0,0.0,0.0,0.0,0.0,0.0,0.0,0.0,0.0,0.0,0.0,
0.2627,2.792935935809024,2.792935935809024,2.8746549557599876,0.0,0.0,0.0,2.820175609126012,0.0,0.0,0.0,0.0,0.0,0.0,0.0,0.0,0.0,0.0,0.0,0.0,0.0,0.0,
0.2814,2.793067675752166,2.793067675752166,2.874805792973109,0.0,0.0,0.0,2.8203137148258137,0.0,0.0,0.0,0.0,0.0,0.0,0.0,0.0,0.0,0.0,0.0,0.0,0.0,0.0,
0.3002,2.7932092820657806,2.7932092820657806,2.8749679320282207,0.0,0.0,0.0,2.8204621653865942,0.0,0.0,0.0,0.0,0.0,0.0,0.0,0.0,0.0,0.0,0.0,0.0,0.0,0.0,
0.3189,2.7933592550025916,2.7933592550025916,2.8751396567601715,0.0,0.0,0.0,2.8206193889217848,0.0,0.0,0.0,0.0,0.0,0.0,0.0,0.0,0.0,0.0,0.0,0.0,0.0,0.0,
0.3377,2.793519205743154,2.793519205743154,2.8753228131527955,0.0,0.0,0.0,2.8207870748797013,0.0,0.0,0.0,0.0,0.0,0.0,0.0,0.0,0.0,0.0,0.0,0.0,0.0,0.0,
0.3565,2.7936883644171937,2.7936883644171937,2.8755165208872304,0.0,0.0,0.0,2.8209644165738723,0.0,0.0,0.0,0.0,0.0,0.0,0.0,0.0,0.0,0.0,0.0,0.0,0.0,0.0,
0.3752,2.7938657659426216,2.7938657659426216,2.8757196760219372,0.0,0.0,0.0,2.821150402635727,0.0,0.0,0.0,0.0,0.0,0.0,0.0,0.0,0.0,0.0,0.0,0.0,0.0,0.0,
0.394,2.794053316185738,2.794053316185738,2.8759344624319025,0.0,0.0,0.0,2.821347031601126,0.0,0.0,0.0,0.0,0.0,0.0,0.0,0.0,0.0,0.0,0.0,0.0,0.0,0.0,
0.4127,2.7942490288375614,2.7942490288375614,2.8761586067477527,0.0,0.0,0.0,2.821552221474292,0.0,0.0,0.0,0.0,0.0,0.0,0.0,0.0,0.0,0.0,0.0,0.0,0.0,0.0,
0.4315,2.794455006498943,2.794455006498943,2.876394518494557,0.0,0.0,0.0,2.8217681771641474,0.0,0.0,0.0,0.0,0.0,0.0,0.0,0.0,0.0,0.0,0.0,0.0,0.0,0.0,
0.4503,2.7946702370540217,2.7946702370540217,2.876641040104451,0.0,0.0,0.0,2.8219938380708314,0.0,0.0,0.0,0.0,0.0,0.0,0.0,0.0,0.0,0.0,0.0,0.0,0.0,0.0,
0.469,2.7948935122267766,2.7948935122267766,2.8768967891538972,0.0,0.0,0.0,2.8222279378691497,0.0,0.0,0.0,0.0,0.0,0.0,0.0,0.0,0.0,0.0,0.0,0.0,0.0,0.0,
0.4878,2.7951272307574175,2.7951272307574175,2.8771645149552203,0.0,0.0,0.0,2.822472992156685,0.0,0.0,0.0,0.0,0.0,0.0,0.0,0.0,0.0,0.0,0.0,0.0,0.0,0.0,
0.5065,2.79536891742339,2.79536891742339,2.8774413838803596,0.0,0.0,0.0,2.82272640624238,0.0,0.0,0.0,0.0,0.0,0.0,0.0,0.0,0.0,0.0,0.0,0.0,0.0,0.0,
0.5253,2.79562116878883,2.79562116878883,2.8777303723133274,0.0,0.0,0.0,2.8229909032969958,0.0,0.0,0.0,0.0,0.0,0.0,0.0,0.0,0.0,0.0,0.0,0.0,0.0,0.0,
0.5441,2.795882729308186,2.795882729308186,2.8780300439035207,0.0,0.0,0.0,2.8232651675066314,0.0,0.0,0.0,0.0,0.0,0.0,0.0,0.0,0.0,0.0,0.0,0.0,0.0,0.0,
0.5628,2.7961521460891907,2.7961521460891907,2.8783387359005186,0.0,0.0,0.0,2.8235476760263,0.0,0.0,0.0,0.0,0.0,0.0,0.0,0.0,0.0,0.0,0.0,0.0,0.0,0.0,
0.5816,2.7964323136543854,2.7964323136543854,2.878659766850636,0.0,0.0,0.0,2.823841464719802,0.0,0.0,0.0,0.0,0.0,0.0,0.0,0.0,0.0,0.0,0.0,0.0,0.0,0.0,
0.6003,2.796720264925045,2.796720264925045,2.8789897390421064,0.0,0.0,0.0,2.8241434229640654,0.0,0.0,0.0,0.0,0.0,0.0,0.0,0.0,0.0,0.0,0.0,0.0,0.0,0.0,
0.6191,2.7970190935827377,2.7970190935827377,2.879332199837047,0.0,0.0,0.0,2.824456795667507,0.0,0.0,0.0,0.0,0.0,0.0,0.0,0.0,0.0,0.0,0.0,0.0,0.0,0.0,
0.6379,2.797327299177078,2.797327299177078,2.879685432189563,0.0,0.0,0.0,2.8247800101812395,0.0,0.0,0.0,0.0,0.0,0.0,0.0,0.0,0.0,0.0,0.0,0.0,0.0,0.0,
0.6566,2.7976431824814485,2.7976431824814485,2.8800474907916858,0.0,0.0,0.0,2.8251112852515274,0.0,0.0,0.0,0.0,0.0,0.0,0.0,0.0,0.0,0.0,0.0,0.0,0.0,0.0,
0.6754,2.7979701373276766,2.7979701373276766,2.88042226803289,0.0,0.0,0.0,2.825454180896081,0.0,0.0,0.0,0.0,0.0,0.0,0.0,0.0,0.0,0.0,0.0,0.0,0.0,0.0,
0.6942,2.7983065154386146,2.7983065154386146,2.8808078773111054,0.0,0.0,0.0,2.825806969396112,0.0,0.0,0.0,0.0,0.0,0.0,0.0,0.0,0.0,0.0,0.0,0.0,0.0,0.0,
0.7129,2.7986504687838427,2.7986504687838427,2.881202202488197,0.0,0.0,0.0,2.8261677133519605,0.0,0.0,0.0,0.0,0.0,0.0,0.0,0.0,0.0,0.0,0.0,0.0,0.0,0.0,
0.7317,2.799005692843801,2.799005692843801,2.881609482941415,0.0,0.0,0.0,2.8265402895430056,0.0,0.0,0.0,0.0,0.0,0.0,0.0,0.0,0.0,0.0,0.0,0.0,0.0,0.0,
0.7504,2.7993684258344587,2.7993684258344587,2.8820254083730483,0.0,0.0,0.0,2.8269207533473217,0.0,0.0,0.0,0.0,0.0,0.0,0.0,0.0,0.0,0.0,0.0,0.0,0.0,0.0,
0.7692,2.7997425650569037,2.7997425650569037,2.8824544504588046,0.0,0.0,0.0,2.8273131935242035,0.0,0.0,0.0,0.0,0.0,0.0,0.0,0.0,0.0,0.0,0.0,0.0,0.0,0.0,
0.788,2.8001262143484285,2.8001262143484285,2.8828944380314017,0.0,0.0,0.0,2.827715622242753,0.0,0.0,0.0,0.0,0.0,0.0,0.0,0.0,0.0,0.0,0.0,0.0,0.0,0.0,
0.8067,2.800517275962574,2.800517275962574,2.8833429679979137,0.0,0.0,0.0,2.8281258399743536,0.0,0.0,0.0,0.0,0.0,0.0,0.0,0.0,0.0,0.0,0.0,0.0,0.0,0.0,
0.8255,2.800919951656752,2.800919951656752,2.883804862699951,0.0,0.0,0.0,2.828548255337818,0.0,0.0,0.0,0.0,0.0,0.0,0.0,0.0,0.0,0.0,0.0,0.0,0.0,0.0,
0.8442,2.8013299772849365,2.8013299772849365,2.8842752340705413,0.0,0.0,0.0,2.8289783962134716,0.0,0.0,0.0,0.0,0.0,0.0,0.0,0.0,0.0,0.0,0.0,0.0,0.0,0.0,
0.863,2.8017517584272467,2.8017517584272467,2.8847591393745233,0.0,0.0,0.0,2.829420885409672,0.0,0.0,0.0,0.0,0.0,0.0,0.0,0.0,0.0,0.0,0.0,0.0,0.0,0.0,
0.8818,2.802183148774006,2.802183148774006,2.885254119938539,0.0,0.0,0.0,2.829873472495517,0.0,0.0,0.0,0.0,0.0,0.0,0.0,0.0,0.0,0.0,0.0,0.0,0.0,0.0,
0.9005,2.802621798341529,2.802621798341529,2.885757482430514,0.0,0.0,0.0,2.8303336930378578,0.0,0.0,0.0,0.0,0.0,0.0,0.0,0.0,0.0,0.0,0.0,0.0,0.0,0.0,
0.9193,2.8030724203733683,2.8030724203733683,2.886274638989528,0.0,0.0,0.0,2.8308064932454218,0.0,0.0,0.0,0.0,0.0,0.0,0.0,0.0,0.0,0.0,0.0,0.0,0.0,0.0,
0.938,2.80353024317938,2.80353024317938,2.886800117011896,0.0,0.0,0.0,2.8312868677902188,0.0,0.0,0.0,0.0,0.0,0.0,0.0,0.0,0.0,0.0,0.0,0.0,0.0,0.0,
0.9568,2.8040001860982953,2.8040001860982953,2.8873395665444663,0.0,0.0,0.0,2.8317799795803524,0.0,0.0,0.0,0.0,0.0,0.0,0.0,0.0,0.0,0.0,0.0,0.0,0.0,0.0,
0.9756,2.804479850095076,2.804479850095076,2.8878902380495903,0.0,0.0,0.0,2.8322833127465805,0.0,0.0,0.0,0.0,0.0,0.0,0.0,0.0,0.0,0.0,0.0,0.0,0.0,0.0,
0.9943,2.804966630101984,2.804966630101984,2.8884491442415685,0.0,0.0,0.0,2.832794134815179,0.0,0.0,0.0,0.0,0.0,0.0,0.0,0.0,0.0,0.0,0.0,0.0,0.0,0.0,
1.0131,2.805465756741285,2.805465756741285,2.889022294800469,0.0,0.0,0.0,2.833317936094346,0.0,0.0,0.0,0.0,0.0,0.0,0.0,0.0,0.0,0.0,0.0,0.0,0.0,0.0,
1.0319,2.8059746779148886,2.8059746779148886,2.8896067638160186,0.0,0.0,0.0,2.8338520398819322,0.0,0.0,0.0,0.0,0.0,0.0,0.0,0.0,0.0,0.0,0.0,0.0,0.0,0.0,
1.0506,2.8064906339433997,2.8064906339433997,2.8901993855984913,0.0,0.0,0.0,2.8343935511617637,0.0,0.0,0.0,0.0,0.0,0.0,0.0,0.0,0.0,0.0,0.0,0.0,0.0,0.0,
1.0694,2.807019169110013,2.807019169110013,2.890806532591643,0.0,0.0,0.0,2.8349482902705567,0.0,0.0,0.0,0.0,0.0,0.0,0.0,0.0,0.0,0.0,0.0,0.0,0.0,0.0,
1.0881,2.807554687096207,2.807554687096207,2.8914217805156524,0.0,0.0,0.0,2.835510384902689,0.0,0.0,0.0,0.0,0.0,0.0,0.0,0.0,0.0,0.0,0.0,0.0,0.0,0.0,
1.1069,2.808102942503563,2.808102942503563,2.892051745283454,0.0,0.0,0.0,2.8360858767635264,0.0,0.0,0.0,0.0,0.0,0.0,0.0,0.0,0.0,0.0,0.0,0.0,0.0,0.0,
1.1257,2.808661125697121,2.808661125697121,2.8926932038397553,0.0,0.0,0.0,2.8366718184113324,0.0,0.0,0.0,0.0,0.0,0.0,0.0,0.0,0.0,0.0,0.0,0.0,0.0,0.0,
1.1444,2.809226216651836,2.809226216651836,2.893342689658783,0.0,0.0,0.0,2.8372650409874844,0.0,0.0,0.0,0.0,0.0,0.0,0.0,0.0,0.0,0.0,0.0,0.0,0.0,0.0,
1.1632,2.8098042879436864,2.8098042879436864,2.8940071871074426,0.0,0.0,0.0,2.8378719209982717,0.0,0.0,0.0,0.0,0.0,0.0,0.0,0.0,0.0,0.0,0.0,0.0,0.0,0.0,
1.1819,2.810389219063607,2.810389219063607,2.894679665555926,0.0,0.0,0.0,2.838486034561047,0.0,0.0,0.0,0.0,0.0,0.0,0.0,0.0,0.0,0.0,0.0,0.0,0.0,0.0,
1.2007,2.810987295929579,2.810987295929579,2.8953673568337615,0.0,0.0,0.0,2.83911398289764,0.0,0.0,0.0,0.0,0.0,0.0,0.0,0.0,0.0,0.0,0.0,0.0,0.0,0.0,
1.2195,2.8115954479158836,2.8115954479158836,2.896066736220652,0.0,0.0,0.0,2.839752544017473,0.0,0.0,0.0,0.0,0.0,0.0,0.0,0.0,0.0,0.0,0.0,0.0,0.0,0.0,
1.2382,2.8122103909013862,2.8122103909013862,2.896774031435826,0.0,0.0,0.0,2.8403982710795326,0.0,0.0,0.0,0.0,0.0,0.0,0.0,0.0,0.0,0.0,0.0,0.0,0.0,0.0,
1.257,2.8128387335493104,2.8128387335493104,2.8974968490717012,0.0,0.0,0.0,2.8410581053901076,0.0,0.0,0.0,0.0,0.0,0.0,0.0,0.0,0.0,0.0,0.0,0.0,0.0,0.0,
1.2757,2.8134738234651593,2.8134738234651593,2.8982275420270955,0.0,0.0,0.0,2.841725062985805,0.0,0.0,0.0,0.0,0.0,0.0,0.0,0.0,0.0,0.0,0.0,0.0,0.0,0.0,
1.2945,2.814122485989116,2.814122485989116,2.898973968773084,0.0,0.0,0.0,2.8424063135837723,0.0,0.0,0.0,0.0,0.0,0.0,0.0,0.0,0.0,0.0,0.0,0.0,0.0,0.0,
1.3133,2.8147813856900323,2.8147813856900323,2.899732297921532,0.0,0.0,0.0,2.8430983564338654,0.0,0.0,0.0,0.0,0.0,0.0,0.0,0.0,0.0,0.0,0.0,0.0,0.0,0.0,
1.332,2.815446970226482,2.815446970226482,2.900498446014386,0.0,0.0,0.0,2.843797462155783,0.0,0.0,0.0,0.0,0.0,0.0,0.0,0.0,0.0,0.0,0.0,0.0,0.0,0.0,
1.3508,2.8161263929328735,2.8161263929328735,2.9012806532459408,0.0,0.0,0.0,2.8445111463705626,0.0,0.0,0.0,0.0,0.0,0.0,0.0,0.0,0.0,0.0,0.0,0.0,0.0,0.0,
1.3695,2.8168124610683947,2.8168124610683947,2.902070644886551,0.0,0.0,0.0,2.845231855674447,0.0,0.0,0.0,0.0,0.0,0.0,0.0,0.0,0.0,0.0,0.0,0.0,0.0,0.0,
1.3883,2.817512548305741,2.817512548305741,2.90287691787095,0.0,0.0,0.0,2.845967338160811,0.0,0.0,0.0,0.0,0.0,0.0,0.0,0.0,0.0,0.0,0.0,0.0,0.0,0.0,
1.4071,2.8182230502173278,2.8182230502173278,2.90369532863338,0.0,0.0,0.0,2.8467138096893456,0.0,0.0,0.0,0.0,0.0,0.0,0.0,0.0,0.0,0.0,0.0,0.0,0.0,0.0,
1.4258,2.818940141725573,2.818940141725573,2.904521476586379,0.0,0.0,0.0,2.8474672533458416,0.0,0.0,0.0,0.0,0.0,0.0,0.0,0.0,0.0,0.0,0.0,0.0,0.0,0.0,
1.4446,2.819671530248635,2.819671530248635,2.9053642480362925,0.0,0.0,0.0,2.8482357695111875,0.0,0.0,0.0,0.0,0.0,0.0,0.0,0.0,0.0,0.0,0.0,0.0,0.0,0.0,
1.4634,2.8204134477277236,2.8204134477277236,2.9062193091772914,0.0,0.0,0.0,2.8490154015442464,0.0,0.0,0.0,0.0,0.0,0.0,0.0,0.0,0.0,0.0,0.0,0.0,0.0,0.0,
1.4821,2.8211619030465913,2.8211619030465913,2.9070820659864918,0.0,0.0,0.0,2.8498019573598916,0.0,0.0,0.0,0.0,0.0,0.0,0.0,0.0,0.0,0.0,0.0,0.0,0.0,0.0,
1.5009,2.8219249410729224,2.8219249410729224,2.9079617990802253,0.0,0.0,0.0,2.8506038937420235,0.0,0.0,0.0,0.0,0.0,0.0,0.0,0.0,0.0,0.0,0.0,0.0,0.0,0.0,
1.5196,2.822694484773896,2.822694484773896,2.9088492034284315,0.0,0.0,0.0,2.851412724325408,0.0,0.0,0.0,0.0,0.0,0.0,0.0,0.0,0.0,0.0,0.0,0.0,0.0,0.0,
1.5384,2.8234788059356433,2.8234788059356433,2.909753825161458,0.0,0.0,0.0,2.8522371456775812,0.0,0.0,0.0,0.0,0.0,0.0,0.0,0.0,0.0,0.0,0.0,0.0,0.0,0.0,
1.5572,2.8242738599679877,2.8242738599679877,2.910671008355918,0.0,0.0,0.0,2.8530729094306313,0.0,0.0,0.0,0.0,0.0,0.0,0.0,0.0,0.0,0.0,0.0,0.0,0.0,0.0,
1.5759,2.825075374928389,2.825075374928389,2.911595831156177,0.0,0.0,0.0,2.853915527004318,0.0,0.0,0.0,0.0,0.0,0.0,0.0,0.0,0.0,0.0,0.0,0.0,0.0,0.0,
1.5947,2.825891966663748,2.825891966663748,2.912538242841038,0.0,0.0,0.0,2.8547740587228447,0.0,0.0,0.0,0.0,0.0,0.0,0.0,0.0,0.0,0.0,0.0,0.0,0.0,0.0,
1.6134,2.8267149919321355,2.8267149919321355,2.913488276469727,0.0,0.0,0.0,2.855639420111333,0.0,0.0,0.0,0.0,0.0,0.0,0.0,0.0,0.0,0.0,0.0,0.0,0.0,0.0,
1.6322,2.827553298092031,2.827553298092031,2.9144561529863067,0.0,0.0,0.0,2.856520916390123,0.0,0.0,0.0,0.0,0.0,0.0,0.0,0.0,0.0,0.0,0.0,0.0,0.0,0.0,
1.651,2.828402558763552,2.828402558763552,2.915436887387199,0.0,0.0,0.0,2.857414001638101,0.0,0.0,0.0,0.0,0.0,0.0,0.0,0.0,0.0,0.0,0.0,0.0,0.0,0.0,
1.6697,2.8292582155472905,2.8292582155472905,2.9164252225049134,0.0,0.0,0.0,2.8583138845331653,0.0,0.0,0.0,0.0,0.0,0.0,0.0,0.0,0.0,0.0,0.0,0.0,0.0,0.0,
1.6885,2.8301294670515618,2.8301294670515618,2.9174317920776724,0.0,0.0,0.0,2.8592302420602653,0.0,0.0,0.0,0.0,0.0,0.0,0.0,0.0,0.0,0.0,0.0,0.0,0.0,0.0,
1.7072,2.83100709226985,2.83100709226985,2.9184459518503427,0.0,0.0,0.0,2.860153378796681,0.0,0.0,0.0,0.0,0.0,0.0,0.0,0.0,0.0,0.0,0.0,0.0,0.0,0.0,
1.726,2.8319005263114505,2.8319005263114505,2.9194786139334834,0.0,0.0,0.0,2.8610932221854615,0.0,0.0,0.0,0.0,0.0,0.0,0.0,0.0,0.0,0.0,0.0,0.0,0.0,0.0,
1.7448,2.832805155298061,2.832805155298061,2.9205244566605213,0.0,0.0,0.0,2.8620449224188813,0.0,0.0,0.0,0.0,0.0,0.0,0.0,0.0,0.0,0.0,0.0,0.0,0.0,0.0,
1.7635,2.833716128270205,2.833716128270205,2.9215778794176632,0.0,0.0,0.0,2.863003378652691,0.0,0.0,0.0,0.0,0.0,0.0,0.0,0.0,0.0,0.0,0.0,0.0,0.0,0.0,
1.7823,2.8346432393893735,2.8346432393893735,2.9226502176191103,0.0,0.0,0.0,2.8639788987992856,0.0,0.0,0.0,0.0,0.0,0.0,0.0,0.0,0.0,0.0,0.0,0.0,0.0,0.0,
1.801,2.8355766773551325,2.8355766773551325,2.9237301329338665,0.0,0.0,0.0,2.864961162548044,0.0,0.0,0.0,0.0,0.0,0.0,0.0,0.0,0.0,0.0,0.0,0.0,0.0,0.0,
1.8198,2.836526478240612,2.836526478240612,2.9248292464512717,0.0,0.0,0.0,2.865960734310832,0.0,0.0,0.0,0.0,0.0,0.0,0.0,0.0,0.0,0.0,0.0,0.0,0.0,0.0,
1.8386,2.8374877344839358,2.8374877344839358,2.925941891597941,0.0,0.0,0.0,2.8669724535219374,0.0,0.0,0.0,0.0,0.0,0.0,0.0,0.0,0.0,0.0,0.0,0.0,0.0,0.0,
1.8573,2.8384552959609506,2.8384552959609506,2.927062115479397,0.0,0.0,0.0,2.867990902467099,0.0,0.0,0.0,0.0,0.0,0.0,0.0,0.0,0.0,0.0,0.0,0.0,0.0,0.0,
1.8761,2.839439566252027,2.839439566252027,2.928201973925023,0.0,0.0,0.0,2.869027035476359,0.0,0.0,0.0,0.0,0.0,0.0,0.0,0.0,0.0,0.0,0.0,0.0,0.0,0.0,
1.8949,2.8404354583430296,2.8404354583430296,2.9293555890929164,0.0,0.0,0.0,2.870075501926325,0.0,0.0,0.0,0.0,0.0,0.0,0.0,0.0,0.0,0.0,0.0,0.0,0.0,0.0,
1.9136,2.841437639155151,2.841437639155151,2.930516792092642,0.0,0.0,0.0,2.871130690134315,0.0,0.0,0.0,0.0,0.0,0.0,0.0,0.0,0.0,0.0,0.0,0.0,0.0,0.0,
1.9324,2.842456885182484,2.842456885182484,2.931698080832223,0.0,0.0,0.0,2.8722039503990637,0.0,0.0,0.0,0.0,0.0,0.0,0.0,0.0,0.0,0.0,0.0,0.0,0.0,0.0,
1.9511,2.8434824118554136,2.8434824118554136,2.9328869677728164,0.0,0.0,0.0,2.873283930494548,0.0,0.0,0.0,0.0,0.0,0.0,0.0,0.0,0.0,0.0,0.0,0.0,0.0,0.0,
1.9699,2.8445252471845763,2.8445252471845763,2.9340962495366063,0.0,0.0,0.0,2.8743822479685863,0.0,0.0,0.0,0.0,0.0,0.0,0.0,0.0,0.0,0.0,0.0,0.0,0.0,0.0,
1.9887,2.845579999509517,2.845579999509517,2.9353196886932937,0.0,0.0,0.0,2.8754932292374424,0.0,0.0,0.0,0.0,0.0,0.0,0.0,0.0,0.0,0.0,0.0,0.0,0.0,0.0,
2.0074,2.846641024895057,2.846641024895057,2.9365507483516584,0.0,0.0,0.0,2.8766109327139247,0.0,0.0,0.0,0.0,0.0,0.0,0.0,0.0,0.0,0.0,0.0,0.0,0.0,0.0,
2.0262,2.8477197338586198,2.8477197338586198,2.937802680283923,0.0,0.0,0.0,2.8777473826670543,0.0,0.0,0.0,0.0,0.0,0.0,0.0,0.0,0.0,0.0,0.0,0.0,0.0,0.0,
2.0449,2.8488047139476795,2.8488047139476795,2.9390622522203285,0.0,0.0,0.0,2.878890560038563,0.0,0.0,0.0,0.0,0.0,0.0,0.0,0.0,0.0,0.0,0.0,0.0,0.0,0.0,
2.0637,2.849907633840118,2.849907633840118,2.940343023722387,0.0,0.0,0.0,2.8800527638008746,0.0,0.0,0.0,0.0,0.0,0.0,0.0,0.0,0.0,0.0,0.0,0.0,0.0,0.0,
2.0825,2.8510227896612816,2.8510227896612816,2.941638387584015,0.0,0.0,0.0,2.8812279889688597,0.0,0.0,0.0,0.0,0.0,0.0,0.0,0.0,0.0,0.0,0.0,0.0,0.0,0.0,
2.1012,2.852144218554474,2.852144218554474,2.9429414280098856,0.0,0.0,0.0,2.8824099550396114,0.0,0.0,0.0,0.0,0.0,0.0,0.0,0.0,0.0,0.0,0.0,0.0,0.0,0.0,
2.12,2.8532839820755242,2.8532839820755242,2.944266173914004,0.0,0.0,0.0,2.8836113793550173,0.0,0.0,0.0,0.0,0.0,0.0,0.0,0.0,0.0,0.0,0.0,0.0,0.0,0.0,
2.1387,2.8544300233038227,2.8544300233038227,2.9455986257714954,0.0,0.0,0.0,2.8848195574597137,0.0,0.0,0.0,0.0,0.0,0.0,0.0,0.0,0.0,0.0,0.0,0.0,0.0,0.0,
2.1575,2.8555946691367167,2.8555946691367167,2.9469531301454026,0.0,0.0,0.0,2.8860474894729453,0.0,0.0,0.0,0.0,0.0,0.0,0.0,0.0,0.0,0.0,0.0,0.0,0.0,0.0,
2.1763,2.8567718953208887,2.8567718953208887,2.9483226990165012,0.0,0.0,0.0,2.8872888298860926,0.0,0.0,0.0,0.0,0.0,0.0,0.0,0.0,0.0,0.0,0.0,0.0,0.0,0.0,
2.195,2.8579554113801153,2.8579554113801153,2.9497000258725423,0.0,0.0,0.0,2.888536949544258,0.0,0.0,0.0,0.0,0.0,0.0,0.0,0.0,0.0,0.0,0.0,0.0,0.0,0.0,
2.2138,2.859157948297372,2.859157948297372,2.9510999420596926,0.0,0.0,0.0,2.8898052795514793,0.0,0.0,0.0,0.0,0.0,0.0,0.0,0.0,0.0,0.0,0.0,0.0,0.0,0.0,
2.2325,2.8603667867859333,2.8603667867859333,2.9525076563724273,0.0,0.0,0.0,2.891080409981431,0.0,0.0,0.0,0.0,0.0,0.0,0.0,0.0,0.0,0.0,0.0,0.0,0.0,0.0,
2.2513,2.8615949309296664,2.8615949309296664,2.9539383285190244,0.0,0.0,0.0,2.892376063459453,0.0,0.0,0.0,0.0,0.0,0.0,0.0,0.0,0.0,0.0,0.0,0.0,0.0,0.0,
2.2701,2.862836027293529,2.862836027293529,2.9553845777120396,0.0,0.0,0.0,2.8936855440996987,0.0,0.0,0.0,0.0,0.0,0.0,0.0,0.0,0.0,0.0,0.0,0.0,0.0,0.0,
2.2888,2.8640834484046076,2.8640834484046076,2.956838693925207,0.0,0.0,0.0,2.8950018635781407,0.0,0.0,0.0,0.0,0.0,0.0,0.0,0.0,0.0,0.0,0.0,0.0,0.0,0.0,
2.3076,2.865350614542228,2.865350614542228,2.9583163384182676,0.0,0.0,0.0,2.8963391891675747,0.0,0.0,0.0,0.0,0.0,0.0,0.0,0.0,0.0,0.0,0.0,0.0,0.0,0.0,
2.3264,2.8666309701812835,2.8666309701812835,2.9598098885078237,0.0,0.0,0.0,2.8976906096234636,0.0,0.0,0.0,0.0,0.0,0.0,0.0,0.0,0.0,0.0,0.0,0.0,0.0,0.0,
2.3451,2.8679176807739393,2.8679176807739393,2.961311385386601,0.0,0.0,0.0,2.8990489156448263,0.0,0.0,0.0,0.0,0.0,0.0,0.0,0.0,0.0,0.0,0.0,0.0,0.0,0.0,
2.3639,2.8692245905268043,2.8692245905268043,2.962837002623893,0.0,0.0,0.0,2.9004287278925003,0.0,0.0,0.0,0.0,0.0,0.0,0.0,0.0,0.0,0.0,0.0,0.0,0.0,0.0,
2.3826,2.8705378794250853,2.8705378794250853,2.9643706261226144,0.0,0.0,0.0,2.901815461657595,0.0,0.0,0.0,0.0,0.0,0.0,0.0,0.0,0.0,0.0,0.0,0.0,0.0,0.0,
2.4014,2.8718716785137914,2.8718716785137914,2.965928776930622,0.0,0.0,0.0,2.9032240446527346,0.0,0.0,0.0,0.0,0.0,0.0,0.0,0.0,0.0,0.0,0.0,0.0,0.0,0.0,
2.4202,2.8732190875515773,2.8732190875515773,2.9675034183642803,0.0,0.0,0.0,2.9046471978224786,0.0,0.0,0.0,0.0,0.0,0.0,0.0,0.0,0.0,0.0,0.0,0.0,0.0,0.0,
2.4389,2.874572918444581,2.874572918444581,2.9690861653622065,0.0,0.0,0.0,2.9060773340837898,0.0,0.0,0.0,0.0,0.0,0.0,0.0,0.0,0.0,0.0,0.0,0.0,0.0,0.0,
