energies(eV),real_xx,real_yy,real_zz,real_xy,real_yz,real_xz,real_ave,imag_xx,imag_yy,imag_zz,imag_xy,imag_yz,imag_xz,imag_ave,absorption_xx,absorption_yy,absorption_zz,absorption_xy,absorption_yz,absorption_xz,absorption_ave,band_gap
0.0,3.7608931541365878,3.545977307863653,3.716052409569782,0.0,0.0,0.051875374209307414,3.674307623856674,0.0,0.0,0.0,0.0,0.0,0.0,0.0,0.0,0.0,0.0,0.0,0.0,0.0,0.0,5.1551
0.0153,3.7609017277576484,3.54598471513238,3.7160604492244373,0.0,0.0,0.051875360828610495,3.6743156307048217,0.0,0.0,0.0,0.0,0.0,0.0,0.0,0.0,0.0,0.0,0.0,0.0,0.0,0.0,
0.0305,3.76092722529146,3.546006743974913,3.7160843587422954,0.0,0.0,0.0518753210161792,3.674339442669556,0.0,0.0,0.0,0.0,0.0,0.0,0.0,0.0,0.0,0.0,0.0,0.0,0.0,0.0,
0.0458,3.7609699835966155,3.546043685375284,3.7161244539240954,0.0,0.0,0.051875254188932685,3.674379374298665,0.0,0.0,0.0,0.0,0.0,0.0,0.0,0.0,0.0,0.0,0.0,0.0,0.0,0.0,
0.0611,3.761029893251439,3.546095444716904,3.716180632032592,0.0,0.0,0.05187516042199344,3.674435323333645,0.0,0.0,0.0,0.0,0.0,0.0,0.0,0.0,0.0,0.0,0.0,0.0,0.0,0.0,
0.0763,3.761106398069168,3.5461615413676166,3.716252371344489,0.0,0.0,0.05187504045439818,3.674506770260425,0.0,0.0,0.0,0.0,0.0,0.0,0.0,0.0,0.0,0.0,0.0,0.0,0.0,0.0,
0.0916,3.7612005087879608,3.5462428484142685,3.7163406194051025,0.0,0.0,0.05187489252975614,3.6745946588691107,0.0,0.0,0.0,0.0,0.0,0.0,0.0,0.0,0.0,0.0,0.0,0.0,0.0,0.0,
0.1069,3.7613117831850422,3.5463389836182824,3.7164449612493953,0.0,0.0,0.051874717130005146,3.674698576017573,0.0,0.0,0.0,0.0,0.0,0.0,0.0,0.0,0.0,0.0,0.0,0.0,0.0,0.0,
0.1222,3.7614402272134217,3.5464499519126265,3.7165654021197163,0.0,0.0,0.05187451399646722,3.6748185270819214,0.0,0.0,0.0,0.0,0.0,0.0,0.0,0.0,0.0,0.0,0.0,0.0,0.0,0.0,
0.1374,3.7615848401964147,3.5465748885349737,3.7167010033100762,0.0,0.0,0.05187428443297239,3.674953577347155,0.0,0.0,0.0,0.0,0.0,0.0,0.0,0.0,0.0,0.0,0.0,0.0,0.0,0.0,
0.1527,3.7617475326855505,3.54671544380941,3.7168535558703786,0.0,0.0,0.051874025081943144,3.675105510788446,0.0,0.0,0.0,0.0,0.0,0.0,0.0,0.0,0.0,0.0,0.0,0.0,0.0,0.0,
0.168,3.7619274181309517,3.5468708515020144,3.7170222279960488,0.0,0.0,0.051873736982688136,3.6752734992096716,0.0,0.0,0.0,0.0,0.0,0.0,0.0,0.0,0.0,0.0,0.0,0.0,0.0,0.0,
0.1832,3.7621231621379794,3.5470399584685843,3.7172057679454262,0.0,0.0,0.05187342188505727,3.6754562961839965,0.0,0.0,0.0,0.0,0.0,0.0,0.0,0.0,0.0,0.0,0.0,0.0,0.0,0.0,
0.1985,3.7623373507855864,3.54722499850111,3.7174065999630357,0.0,0.0,0.051873075185636955,3.675656316416578,0.0,0.0,0.0,0.0,0.0,0.0,0.0,0.0,0.0,0.0,0.0,0.0,0.0,0.0,
0.2138,3.762568763994078,3.5474249171395695,3.717623579373827,0.0,0.0,0.05187269836116795,3.675872420169158,0.0,0.0,0.0,0.0,0.0,0.0,0.0,0.0,0.0,0.0,0.0,0.0,0.0,0.0,
0.229,3.7628157330190195,3.547638272334224,3.7178551408435547,0.0,0.0,0.05187229363442833,3.6761030487322657,0.0,0.0,0.0,0.0,0.0,0.0,0.0,0.0,0.0,0.0,0.0,0.0,0.0,0.0,
0.2443,3.7630815207183685,3.547867882381653,3.718104342912632,0.0,0.0,0.0518718551009533,3.6763512486708847,0.0,0.0,0.0,0.0,0.0,0.0,0.0,0.0,0.0,0.0,0.0,0.0,0.0,0.0,
0.2596,3.7633645729075633,3.548112404119072,3.7183697275285454,0.0,0.0,0.05187138469920615,3.6766155681850603,0.0,0.0,0.0,0.0,0.0,0.0,0.0,0.0,0.0,0.0,0.0,0.0,0.0,0.0,
0.2749,3.763664904789748,3.548371850142944,3.7186513080749988,0.0,0.0,0.05187088176434737,3.676896021002564,0.0,0.0,0.0,0.0,0.0,0.0,0.0,0.0,0.0,0.0,0.0,0.0,0.0,0.0,
0.2901,3.7639804003182173,3.54864439194198,3.718947099756124,0.0,0.0,0.05187034920378639,3.6771906306721074,0.0,0.0,0.0,0.0,0.0,0.0,0.0,0.0,0.0,0.0,0.0,0.0,0.0,0.0,
0.3054,3.7643152277348055,3.5489336296647522,3.7192610095185006,0.0,0.0,0.05186977926595206,3.677503288972686,0.0,0.0,0.0,0.0,0.0,0.0,0.0,0.0,0.0,0.0,0.0,0.0,0.0,0.0,
0.3207,3.7646673859687487,3.5492378340312523,3.719591160213275,0.0,0.0,0.051869174554855346,3.6778321267377585,0.0,0.0,0.0,0.0,0.0,0.0,0.0,0.0,0.0,0.0,0.0,0.0,0.0,0.0,
0.3359,3.765034422527753,3.5495548858874004,3.719935251604679,0.0,0.0,0.051868538540370865,3.6781748533399443,0.0,0.0,0.0,0.0,0.0,0.0,0.0,0.0,0.0,0.0,0.0,0.0,0.0,0.0,
0.3512,3.7654211866408067,3.5498889733721763,3.7202978286374457,0.0,0.0,0.05186786198344704,3.678535996216809,0.0,0.0,0.0,0.0,0.0,0.0,0.0,0.0,0.0,0.0,0.0,0.0,0.0,0.0,
0.3665,3.7658253411708236,3.5502380768767403,3.7206766990559155,0.0,0.0,0.051867148033094126,3.678913372367827,0.0,0.0,0.0,0.0,0.0,0.0,0.0,0.0,0.0,0.0,0.0,0.0,0.0,0.0,
0.3817,3.766244096012929,3.5505997856369444,3.7210692461562087,0.0,0.0,0.05186640077172881,3.6793043759353607,0.0,0.0,0.0,0.0,0.0,0.0,0.0,0.0,0.0,0.0,0.0,0.0,0.0,0.0,
0.397,3.766682983743775,3.5509788777373297,3.7214806549572823,0.0,0.0,0.05186560936771995,3.679714172146129,0.0,0.0,0.0,0.0,0.0,0.0,0.0,0.0,0.0,0.0,0.0,0.0,0.0,0.0,
0.4123,3.767139330051489,3.55137304232132,3.7219084171196783,0.0,0.0,0.05186477756239104,3.680140263164162,0.0,0.0,0.0,0.0,0.0,0.0,0.0,0.0,0.0,0.0,0.0,0.0,0.0,0.0,
0.4276,3.767613159629603,3.5517822998440356,3.7223525543688116,0.0,0.0,0.051863904263021295,3.680582671280817,0.0,0.0,0.0,0.0,0.0,0.0,0.0,0.0,0.0,0.0,0.0,0.0,0.0,0.0,
0.4428,3.768101229877283,3.5522038487751098,3.7228100259628514,0.0,0.0,0.05186299445968786,3.681038368205081,0.0,0.0,0.0,0.0,0.0,0.0,0.0,0.0,0.0,0.0,0.0,0.0,0.0,0.0,
0.4581,3.76860998926115,3.5526432577527354,3.723286874567014,0.0,0.0,0.05186203500555361,3.6815133738603,0.0,0.0,0.0,0.0,0.0,0.0,0.0,0.0,0.0,0.0,0.0,0.0,0.0,0.0,
0.4734,3.7691363116494054,3.553097825713558,3.72378016839714,0.0,0.0,0.05186103051820411,3.682004768586701,0.0,0.0,0.0,0.0,0.0,0.0,0.0,0.0,0.0,0.0,0.0,0.0,0.0,0.0,
0.4886,3.7696766134649637,3.5535644567295557,3.7242865472803044,0.0,0.0,0.05185998674555,3.682509205824941,0.0,0.0,0.0,0.0,0.0,0.0,0.0,0.0,0.0,0.0,0.0,0.0,0.0,0.0,
0.5039,3.770238033358198,3.554049315045851,3.7248126999663937,0.0,0.0,0.051858888641682296,3.683033349456814,0.0,0.0,0.0,0.0,0.0,0.0,0.0,0.0,0.0,0.0,0.0,0.0,0.0,0.0,
0.5192,3.770817104797945,3.554549405678826,3.725355375746258,0.0,0.0,0.05185774155507999,3.683573962074343,0.0,0.0,0.0,0.0,0.0,0.0,0.0,0.0,0.0,0.0,0.0,0.0,0.0,0.0,
0.5344,3.771409901510722,3.5550613368774218,3.7259108935013763,0.0,0.0,0.051856552066341904,3.6841273772965066,0.0,0.0,0.0,0.0,0.0,0.0,0.0,0.0,0.0,0.0,0.0,0.0,0.0,0.0,
0.5497,3.772024255838158,3.5555918713980033,3.726486591148754,0.0,0.0,0.05185530307201184,3.6847009061283047,0.0,0.0,0.0,0.0,0.0,0.0,0.0,0.0,0.0,0.0,0.0,0.0,0.0,0.0,
0.565,3.77265635919049,3.5561377189616588,3.727078897593054,0.0,0.0,0.05185400072330915,3.6852909919150676,0.0,0.0,0.0,0.0,0.0,0.0,0.0,0.0,0.0,0.0,0.0,0.0,0.0,0.0,
0.5803,3.773306246146942,3.5566989082029496,3.727687843230397,0.0,0.0,0.051852643463547815,3.6858976658600966,0.0,0.0,0.0,0.0,0.0,0.0,0.0,0.0,0.0,0.0,0.0,0.0,0.0,0.0,
0.5955,3.7739695302822724,3.5572716502610477,3.7283093161632492,0.0,0.0,0.05185123911436402,3.686516832235523,0.0,0.0,0.0,0.0,0.0,0.0,0.0,0.0,0.0,0.0,0.0,0.0,0.0,0.0,
0.6108,3.774654975438928,3.557863511371924,3.7289515256742924,0.0,0.0,0.0518497675512621,3.687156670828381,0.0,0.0,0.0,0.0,0.0,0.0,0.0,0.0,0.0,0.0,0.0,0.0,0.0,0.0,
0.6261,3.7753583138229665,3.5584708049307325,3.729610470719951,0.0,0.0,0.05184823612170154,3.6878131964912164,0.0,0.0,0.0,0.0,0.0,0.0,0.0,0.0,0.0,0.0,0.0,0.0,0.0,0.0,
0.6413,3.7760748116287117,3.5590894423731054,3.7302817143344824,0.0,0.0,0.05184665368574326,3.6884819894454335,0.0,0.0,0.0,0.0,0.0,0.0,0.0,0.0,0.0,0.0,0.0,0.0,0.0,0.0,
0.6566,3.7768139359647415,3.5597275963730075,3.730974123378628,0.0,0.0,0.051844997624539736,3.6891718852387925,0.0,0.0,0.0,0.0,0.0,0.0,0.0,0.0,0.0,0.0,0.0,0.0,0.0,0.0,
0.6719,3.7775710724407587,3.5603812812706415,3.7316833724277902,0.0,0.0,0.051843276286627174,3.68987857537973,0.0,0.0,0.0,0.0,0.0,0.0,0.0,0.0,0.0,0.0,0.0,0.0,0.0,0.0,
0.6871,3.778341137570443,3.5610461068927246,3.7324046974245637,0.0,0.0,0.05184149967254982,3.690597313962577,0.0,0.0,0.0,0.0,0.0,0.0,0.0,0.0,0.0,0.0,0.0,0.0,0.0,0.0,
0.7024,3.7791343064399814,3.5617308562510357,3.7331476269442367,0.0,0.0,0.05183964245192683,3.6913375965450848,0.0,0.0,0.0,0.0,0.0,0.0,0.0,0.0,0.0,0.0,0.0,0.0,0.0,0.0,
0.7177,3.779945615827091,3.562431242778839,3.7339075092141014,0.0,0.0,0.05183771407306854,3.692094789273344,0.0,0.0,0.0,0.0,0.0,0.0,0.0,0.0,0.0,0.0,0.0,0.0,0.0,0.0,
0.733,3.7807751107594285,3.563147303746829,3.734684383768864,0.0,0.0,0.05183571246310303,3.692868932758374,0.0,0.0,0.0,0.0,0.0,0.0,0.0,0.0,0.0,0.0,0.0,0.0,0.0,0.0,
0.7482,3.781617237360444,3.563874243391413,3.735473046766045,0.0,0.0,0.05183364931817124,3.6936548425059677,0.0,0.0,0.0,0.0,0.0,0.0,0.0,0.0,0.0,0.0,0.0,0.0,0.0,0.0,
0.7635,3.782483123188242,3.564621665561706,3.7362839165573942,0.0,0.0,0.05183149531950294,3.694462901769114,0.0,0.0,0.0,0.0,0.0,0.0,0.0,0.0,0.0,0.0,0.0,0.0,0.0,0.0,
0.7788,3.7833673358654303,3.5653848791220644,3.7371119026667508,0.0,0.0,0.05182926155123858,3.6952880392180822,0.0,0.0,0.0,0.0,0.0,0.0,0.0,0.0,0.0,0.0,0.0,0.0,0.0,0.0,
0.794,3.7842639657560784,3.566158781666093,3.7379514688158477,0.0,0.0,0.05182696112292084,3.6961247387460063,0.0,0.0,0.0,0.0,0.0,0.0,0.0,0.0,0.0,0.0,0.0,0.0,0.0,0.0,
0.8093,3.785184860867402,3.5669535977011355,3.7388137060135556,0.0,0.0,0.05182456142229249,3.696984054860698,0.0,0.0,0.0,0.0,0.0,0.0,0.0,0.0,0.0,0.0,0.0,0.0,0.0,0.0,
0.8246,3.786124234067527,3.567764330279537,3.7396931922274086,0.0,0.0,0.05182207489781803,3.697860585524824,0.0,0.0,0.0,0.0,0.0,0.0,0.0,0.0,0.0,0.0,0.0,0.0,0.0,0.0,
0.8398,3.7870758170434686,3.568585567936585,3.7405840561802357,0.0,0.0,0.05181951620507916,3.698748480386763,0.0,0.0,0.0,0.0,0.0,0.0,0.0,0.0,0.0,0.0,0.0,0.0,0.0,0.0,
0.8551,3.7880521842461388,3.569428160797133,3.7414980667937594,0.0,0.0,0.051816849154990165,3.699659470612344,0.0,0.0,0.0,0.0,0.0,0.0,0.0,0.0,0.0,0.0,0.0,0.0,0.0,0.0,
0.8704,3.7890471909410146,3.5702868037433024,3.7424294679765318,0.0,0.0,0.05181408768913521,3.7005878208869496,0.0,0.0,0.0,0.0,0.0,0.0,0.0,0.0,0.0,0.0,0.0,0.0,0.0,0.0,
0.8856,3.79005420702678,3.5711557736766313,3.743372050720042,0.0,0.0,0.05181124815176413,3.701527343807818,0.0,0.0,0.0,0.0,0.0,0.0,0.0,0.0,0.0,0.0,0.0,0.0,0.0,0.0,
0.9009,3.791086539795997,3.5720465516316158,3.7443382674661017,0.0,0.0,0.051808290471959395,3.7024904529645717,0.0,0.0,0.0,0.0,0.0,0.0,0.0,0.0,0.0,0.0,0.0,0.0,0.0,0.0,
0.9162,3.792137683871265,3.5729535218033464,3.74532202539364,0.0,0.0,0.05180523022303974,3.70347107702275,0.0,0.0,0.0,0.0,0.0,0.0,0.0,0.0,0.0,0.0,0.0,0.0,0.0,0.0,
0.9315,3.793207699014036,3.573876733622931,3.7463233768724944,0.0,0.0,0.05180206455178403,3.704469269836487,0.0,0.0,0.0,0.0,0.0,0.0,0.0,0.0,0.0,0.0,0.0,0.0,0.0,0.0,
0.9467,3.79428946728693,3.574810043959377,3.7473356577861034,0.0,0.0,0.051798812295386645,3.70547838967747,0.0,0.0,0.0,0.0,0.0,0.0,0.0,0.0,0.0,0.0,0.0,0.0,0.0,0.0,
0.962,3.7953972843158774,3.5757657843499215,3.748372241786811,0.0,0.0,0.051795427690179016,3.70651177015087,0.0,0.0,0.0,0.0,0.0,0.0,0.0,0.0,0.0,0.0,0.0,0.0,0.0,0.0,
0.9773,3.796524158529719,3.5767379203142413,3.7494265823805644,0.0,0.0,0.05179192871989347,3.7075628870748414,0.0,0.0,0.0,0.0,0.0,0.0,0.0,0.0,0.0,0.0,0.0,0.0,0.0,0.0,
0.9925,3.7976626021595243,3.5777199904314556,3.750491670661619,0.0,0.0,0.05178833628466857,3.708624754417533,0.0,0.0,0.0,0.0,0.0,0.0,0.0,0.0,0.0,0.0,0.0,0.0,0.0,0.0,
1.0078,3.7988276602333184,3.57872497084269,3.7515815783039783,0.0,0.0,0.05178459993725667,3.7097114031266627,0.0,0.0,0.0,0.0,0.0,0.0,0.0,0.0,0.0,0.0,0.0,0.0,0.0,0.0,
1.0231,3.8000119726675203,3.579746509867545,3.7526894151765022,0.0,0.0,0.05178073965727182,3.710815965903856,0.0,0.0,0.0,0.0,0.0,0.0,0.0,0.0,0.0,0.0,0.0,0.0,0.0,0.0,
1.0383,3.8012076780684634,3.5807778246572135,3.75380782425865,0.0,0.0,0.05177677858707211,3.7119311089947757,0.0,0.0,0.0,0.0,0.0,0.0,0.0,0.0,0.0,0.0,0.0,0.0,0.0,0.0,
1.0536,3.8024305786855166,3.581832542420605,3.7549515820870645,0.0,0.0,0.0517726612111706,3.713071567731062,0.0,0.0,0.0,0.0,0.0,0.0,0.0,0.0,0.0,0.0,0.0,0.0,0.0,0.0,
1.0689,3.8036729422073927,3.582903991203273,3.7561134516352497,0.0,0.0,0.05176840967963359,3.7142301283486385,0.0,0.0,0.0,0.0,0.0,0.0,0.0,0.0,0.0,0.0,0.0,0.0,0.0,0.0,
1.0842,3.804934840891026,3.5839922307324352,3.7572934961083466,0.0,0.0,0.05176402042556363,3.7154068559106026,0.0,0.0,0.0,0.0,0.0,0.0,0.0,0.0,0.0,0.0,0.0,0.0,0.0,0.0,
1.0994,3.806207908623401,3.5850900441597515,3.758483888575743,0.0,0.0,0.05175951988277748,3.7165939471196316,0.0,0.0,0.0,0.0,0.0,0.0,0.0,0.0,0.0,0.0,0.0,0.0,0.0,0.0,
1.1147,3.8075089707911496,3.5862119379674495,3.759700357233645,0.0,0.0,0.051754845129595765,3.717807088664081,0.0,0.0,0.0,0.0,0.0,0.0,0.0,0.0,0.0,0.0,0.0,0.0,0.0,0.0,
1.13,3.8088297923529546,3.587350807844188,3.7609351968804194,0.0,0.0,0.051750021504052626,3.719038599025854,0.0,0.0,0.0,0.0,0.0,0.0,0.0,0.0,0.0,0.0,0.0,0.0,0.0,0.0,
1.1452,3.810161623864496,3.588499107486402,3.762180223968272,0.0,0.0,0.05174507814891115,3.7202803184397233,0.0,0.0,0.0,0.0,0.0,0.0,0.0,0.0,0.0,0.0,0.0,0.0,0.0,0.0,
1.1605,3.811522067966325,3.589672010998379,3.763451889065596,0.0,0.0,0.051739946071111056,3.7215486560101,0.0,0.0,0.0,0.0,0.0,0.0,0.0,0.0,0.0,0.0,0.0,0.0,0.0,0.0,
1.1758,3.812902507874099,3.59086208592477,3.7647421317379233,0.0,0.0,0.0517346532339005,3.7228355751789306,0.0,0.0,0.0,0.0,0.0,0.0,0.0,0.0,0.0,0.0,0.0,0.0,0.0,0.0,
1.191,3.8142938062724308,3.5920614527536316,3.766042407847452,0.0,0.0,0.05172923171117206,3.724132555624505,0.0,0.0,0.0,0.0,0.0,0.0,0.0,0.0,0.0,0.0,0.0,0.0,0.0,0.0,
1.2063,3.815714352435661,3.5932859609598022,3.767369898525102,0.0,0.0,0.051723605960137316,3.725456737306855,0.0,0.0,0.0,0.0,0.0,0.0,0.0,0.0,0.0,0.0,0.0,0.0,0.0,0.0,
1.2216,3.817155143383107,3.594527846261828,3.768716184205077,0.0,0.0,0.05171780678584442,3.7267997246166704,0.0,0.0,0.0,0.0,0.0,0.0,0.0,0.0,0.0,0.0,0.0,0.0,0.0,0.0,
1.2369,3.8186162651595996,3.5957871797303156,3.770081339995433,0.0,0.0,0.05171182977740198,3.728161594961783,0.0,0.0,0.0,0.0,0.0,0.0,0.0,0.0,0.0,0.0,0.0,0.0,0.0,0.0,
1.2521,3.8200880555237418,3.597055631149106,3.7714563341662175,0.0,0.0,0.05170571128985357,3.7295333402796884,0.0,0.0,0.0,0.0,0.0,0.0,0.0,0.0,0.0,0.0,0.0,0.0,0.0,0.0,
1.2674,3.8215899686389094,3.598349963755698,3.7728593359626594,0.0,0.0,0.05169936624334,3.730933089452422,0.0,0.0,0.0,0.0,0.0,0.0,0.0,0.0,0.0,0.0,0.0,0.0,0.0,0.0,
1.2827,3.823112478972154,3.599661964522922,3.7742814402925857,0.0,0.0,0.05169282959561604,3.732351961262554,0.0,0.0,0.0,0.0,0.0,0.0,0.0,0.0,0.0,0.0,0.0,0.0,0.0,0.0,
1.2979,3.824645524872413,3.60098296049091,3.7757132447494937,0.0,0.0,0.05168614120859538,3.7337805767042718,0.0,0.0,0.0,0.0,0.0,0.0,0.0,0.0,0.0,0.0,0.0,0.0,0.0,0.0,
1.3132,3.8262093710054463,3.6023304099769327,3.7771736699589895,0.0,0.0,0.05167920821094292,3.7352378169804563,0.0,0.0,0.0,0.0,0.0,0.0,0.0,0.0,0.0,0.0,0.0,0.0,0.0,0.0,
1.3285,3.8277940943166633,3.6036957587675698,3.7786534417940807,0.0,0.0,0.05167206896361179,3.7367144316261047,0.0,0.0,0.0,0.0,0.0,0.0,0.0,0.0,0.0,0.0,0.0,0.0,0.0,0.0,
1.3437,3.8293892283785533,3.605069986726033,3.7801427824854814,0.0,0.0,0.0516647671084905,3.7382006658633564,0.0,0.0,0.0,0.0,0.0,0.0,0.0,0.0,0.0,0.0,0.0,0.0,0.0,0.0,
1.359,3.8310158594736166,3.606471256423245,3.781661373721836,0.0,0.0,0.05165720139267842,3.739716163206232,0.0,0.0,0.0,0.0,0.0,0.0,0.0,0.0,0.0,0.0,0.0,0.0,0.0,0.0,
1.3743,3.832663661755882,3.607890668105766,3.783199567737989,0.0,0.0,0.05164941384667821,3.7412512991998788,0.0,0.0,0.0,0.0,0.0,0.0,0.0,0.0,0.0,0.0,0.0,0.0,0.0,0.0,
1.3896,3.8343327366600097,3.6093283054851697,3.7847574528646932,0.0,0.0,0.051641399048628724,3.742806165003291,0.0,0.0,0.0,0.0,0.0,0.0,0.0,0.0,0.0,0.0,0.0,0.0,0.0,0.0,
1.4048,3.836012068944443,3.6107746779876337,3.786324742882457,0.0,0.0,0.05163320613814284,3.7443704966048443,0.0,0.0,0.0,0.0,0.0,0.0,0.0,0.0,0.0,0.0,0.0,0.0,0.0,0.0,
1.4201,3.837723859254482,3.6122489027820923,3.7879221506927188,0.0,0.0,0.0516247216964314,3.745964970909764,0.0,0.0,0.0,0.0,0.0,0.0,0.0,0.0,0.0,0.0,0.0,0.0,0.0,0.0,
1.4354,3.8394572357352823,3.61374161199069,3.789539522515208,0.0,0.0,0.05161599309318224,3.74757945674706,0.0,0.0,0.0,0.0,0.0,0.0,0.0,0.0,0.0,0.0,0.0,0.0,0.0,0.0,
1.4506,3.8412007647896393,3.6152429566505058,3.791166184924852,0.0,0.0,0.05160707395385952,3.7492033021216655,0.0,0.0,0.0,0.0,0.0,0.0,0.0,0.0,0.0,0.0,0.0,0.0,0.0,0.0,
1.4659,3.842977496836167,3.616772781414154,3.7928236363842225,0.0,0.0,0.05159784094997341,3.750857971544848,0.0,0.0,0.0,0.0,0.0,0.0,0.0,0.0,0.0,0.0,0.0,0.0,0.0,0.0,
1.4812,3.844776143890213,3.6183213618489387,3.7945013378376538,0.0,0.0,0.051588345809232126,3.752532947858935,0.0,0.0,0.0,0.0,0.0,0.0,0.0,0.0,0.0,0.0,0.0,0.0,0.0,0.0,
1.4964,3.8465848477065694,3.6198784854093,3.796188223173308,0.0,0.0,0.05157864697717917,3.754217185429726,0.0,0.0,0.0,0.0,0.0,0.0,0.0,0.0,0.0,0.0,0.0,0.0,0.0,0.0,
1.5117,3.8484275215408954,3.6214647350049227,3.7979065877666036,0.0,0.0,0.05156861049063306,3.7559329481041406,0.0,0.0,0.0,0.0,0.0,0.0,0.0,0.0,0.0,0.0,0.0,0.0,0.0,0.0,
1.527,3.8502924550962274,3.6230700245448357,3.7996455018989033,0.0,0.0,0.05155829276130635,3.7576693271799884,0.0,0.0,0.0,0.0,0.0,0.0,0.0,0.0,0.0,0.0,0.0,0.0,0.0,0.0,
1.5423,3.8521797671732134,3.6246944519809903,3.8014050687469774,0.0,0.0,0.051547687142774135,3.759426429300394,0.0,0.0,0.0,0.0,0.0,0.0,0.0,0.0,0.0,0.0,0.0,0.0,0.0,0.0,
1.5575,3.8540770227021697,3.6263273112132133,3.8031736893512504,0.0,0.0,0.05153685906724113,3.7611926744222113,0.0,0.0,0.0,0.0,0.0,0.0,0.0,0.0,0.0,0.0,0.0,0.0,0.0,0.0,
1.5728,3.8560093074557473,3.6279901877059824,3.804974740829806,0.0,0.0,0.05152565917562369,3.7629914119971786,0.0,0.0,0.0,0.0,0.0,0.0,0.0,0.0,0.0,0.0,0.0,0.0,0.0,0.0,
1.5881,3.8579643376075827,3.629672504527523,3.8067967634685047,0.0,0.0,0.051514150671013434,3.7648112018678703,0.0,0.0,0.0,0.0,0.0,0.0,0.0,0.0,0.0,0.0,0.0,0.0,0.0,0.0,
1.6033,3.8599292375643044,3.6313631788985408,3.8086277518111435,0.0,0.0,0.05150240466858761,3.7666400560913296,0.0,0.0,0.0,0.0,0.0,0.0,0.0,0.0,0.0,0.0,0.0,0.0,0.0,0.0,
1.6186,3.8619299889383263,3.6330845617433463,3.8104919085251345,0.0,0.0,0.05149025929878071,3.7685021530689355,0.0,0.0,0.0,0.0,0.0,0.0,0.0,0.0,0.0,0.0,0.0,0.0,0.0,0.0,
1.6339,3.8639538699901603,3.6348257016002736,3.8123773696569345,0.0,0.0,0.051477783290221873,3.770385647082456,0.0,0.0,0.0,0.0,0.0,0.0,0.0,0.0,0.0,0.0,0.0,0.0,0.0,0.0,
1.6491,3.8659875572628337,3.636575132958883,3.8142717168777014,0.0,0.0,0.05146505384939254,3.7722781356998065,0.0,0.0,0.0,0.0,0.0,0.0,0.0,0.0,0.0,0.0,0.0,0.0,0.0,0.0,
1.6644,3.8680579434875444,3.638355984790947,3.816199991642627,0.0,0.0,0.05145189570664483,3.7742046399737057,0.0,0.0,0.0,0.0,0.0,0.0,0.0,0.0,0.0,0.0,0.0,0.0,0.0,0.0,
1.6797,3.8701518617979174,3.6401569251560573,3.818149919489589,0.0,0.0,0.051438383514306955,3.7761529021478544,0.0,0.0,0.0,0.0,0.0,0.0,0.0,0.0,0.0,0.0,0.0,0.0,0.0,0.0,
1.6949,3.872255533191843,3.6419660994806016,3.8201086625501386,0.0,0.0,0.05142460100376302,3.7781100984075278,0.0,0.0,0.0,0.0,0.0,0.0,0.0,0.0,0.0,0.0,0.0,0.0,0.0,0.0,
1.7102,3.87439677752335,3.643807427964832,3.8221021149211065,0.0,0.0,0.051410358559306694,3.780102106803096,0.0,0.0,0.0,0.0,0.0,0.0,0.0,0.0,0.0,0.0,0.0,0.0,0.0,0.0,
1.7255,3.8765619752494302,3.645669191965373,3.8241175850763183,0.0,0.0,0.05139573717971191,3.782116250763707,0.0,0.0,0.0,0.0,0.0,0.0,0.0,0.0,0.0,0.0,0.0,0.0,0.0,0.0,
1.7408,3.878751271465904,3.6475515109553824,3.826155198537501,0.0,0.0,0.051380728206524354,3.7841526603195956,0.0,0.0,0.0,0.0,0.0,0.0,0.0,0.0,0.0,0.0,0.0,0.0,0.0,0.0,
1.756,3.8809502668679556,3.649442000963234,3.8282015468393213,0.0,0.0,0.05136542479753113,3.7861979382235034,0.0,0.0,0.0,0.0,0.0,0.0,0.0,0.0,0.0,0.0,0.0,0.0,0.0,0.0,
1.7713,3.8831880443783735,3.6513656593317054,3.830283684236995,0.0,0.0,0.0513496166212252,3.7882791293156917,0.0,0.0,0.0,0.0,0.0,0.0,0.0,0.0,0.0,0.0,0.0,0.0,0.0,0.0,
1.7866,3.885450368193996,3.6533102413441396,3.832388352091972,0.0,0.0,0.05133339384653057,3.7903829872100356,0.0,0.0,0.0,0.0,0.0,0.0,0.0,0.0,0.0,0.0,0.0,0.0,0.0,0.0,
1.8018,3.887722364124053,3.6552629580315203,3.834501705638656,0.0,0.0,0.05131685727568754,3.7924956759314097,0.0,0.0,0.0,0.0,0.0,0.0,0.0,0.0,0.0,0.0,0.0,0.0,0.0,0.0,
