energies(eV),real_xx,real_yy,real_zz,real_xy,real_yz,real_xz,real_ave,imag_xx,imag_yy,imag_zz,imag_xy,imag_yz,imag_xz,imag_ave,absorption_xx,absorption_yy,absorption_zz,absorption_xy,absorption_yz,absorption_xz,absorption_ave,band_gap
0.0,3.005812235500797,2.958959976550911,3.009963750711398,0.0,0.0,0.0,2.9915786542543685,0.0,0.0,0.0,0.0,0.0,0.0,0.0,0.0,0.0,0.0,0.0,0.0,0.0,0.0,4.3246
0.0151,3.005815853866835,2.958963569588256,3.0099674004377497,0.0,0.0,0.0,2.991582274630947,0.0,0.0,0.0,0.0,0.0,0.0,0.0,0.0,0.0,0.0,0.0,0.0,0.0,0.0,
0.0302,3.005826709090258,2.9589743488292575,3.009978349742267,0.0,0.0,0.0,2.991593135887261,0.0,0.0,0.0,0.0,0.0,0.0,0.0,0.0,0.0,0.0,0.0,0.0,0.0,0.0,
0.0454,3.0058449454888962,2.958992457595434,3.0099967441906696,0.0,0.0,0.0,2.9916113824249995,0.0,0.0,0.0,0.0,0.0,0.0,0.0,0.0,0.0,0.0,0.0,0.0,0.0,0.0,
0.0605,3.0058703237409774,2.959017658262929,3.0100223423823156,0.0,0.0,0.0,2.9916367747954076,0.0,0.0,0.0,0.0,0.0,0.0,0.0,0.0,0.0,0.0,0.0,0.0,0.0,0.0,
0.0756,3.0059029407368985,2.959050047075891,3.010055242040685,0.0,0.0,0.0,2.9916694099511587,0.0,0.0,0.0,0.0,0.0,0.0,0.0,0.0,0.0,0.0,0.0,0.0,0.0,0.0,
0.0907,3.0059427976064534,2.9590896251973025,3.0100954442968426,0.0,0.0,0.0,2.991709289033533,0.0,0.0,0.0,0.0,0.0,0.0,0.0,0.0,0.0,0.0,0.0,0.0,0.0,0.0,
0.1058,3.0059898957304525,2.959136394048513,3.0101429505330954,0.0,0.0,0.0,2.9917564134373538,0.0,0.0,0.0,0.0,0.0,0.0,0.0,0.0,0.0,0.0,0.0,0.0,0.0,0.0,
0.1209,3.0060442367408453,2.959190355309372,3.0101977623832097,0.0,0.0,0.0,2.991810784811142,0.0,0.0,0.0,0.0,0.0,0.0,0.0,0.0,0.0,0.0,0.0,0.0,0.0,0.0,
0.1361,3.0061062545265775,2.959251939907407,3.010260317480796,0.0,0.0,0.0,2.991872837304927,0.0,0.0,0.0,0.0,0.0,0.0,0.0,0.0,0.0,0.0,0.0,0.0,0.0,0.0,
0.1512,3.0061751352116803,2.959320339729544,3.010329794882307,0.0,0.0,0.0,2.9919417566078437,0.0,0.0,0.0,0.0,0.0,0.0,0.0,0.0,0.0,0.0,0.0,0.0,0.0,0.0,
0.1663,3.006251265204769,2.959395938571526,3.010406584326076,0.0,0.0,0.0,2.992017929367457,0.0,0.0,0.0,0.0,0.0,0.0,0.0,0.0,0.0,0.0,0.0,0.0,0.0,0.0,
0.1814,3.0063346471463963,2.9594787391514954,3.010490688455369,0.0,0.0,0.0,2.9921013582510874,0.0,0.0,0.0,0.0,0.0,0.0,0.0,0.0,0.0,0.0,0.0,0.0,0.0,0.0,
0.1965,3.0064252839295595,2.9595687444474903,3.010582110166146,0.0,0.0,0.0,2.9921920461810654,0.0,0.0,0.0,0.0,0.0,0.0,0.0,0.0,0.0,0.0,0.0,0.0,0.0,0.0,
0.2117,3.00652385120955,2.959666625527321,3.010681530939634,0.0,0.0,0.0,2.992290669225502,0.0,0.0,0.0,0.0,0.0,0.0,0.0,0.0,0.0,0.0,0.0,0.0,0.0,0.0,
0.2268,3.006629055467135,2.9597710980012146,3.0107876460297454,0.0,0.0,0.0,2.9923959331660317,0.0,0.0,0.0,0.0,0.0,0.0,0.0,0.0,0.0,0.0,0.0,0.0,0.0,0.0,
0.2419,3.0067415247889353,2.9598827857143535,3.010901088933839,0.0,0.0,0.0,2.9925084664790425,0.0,0.0,0.0,0.0,0.0,0.0,0.0,0.0,0.0,0.0,0.0,0.0,0.0,0.0,
0.257,3.006861263083395,2.960001692690175,3.0110218635639536,0.0,0.0,0.0,2.992628273112508,0.0,0.0,0.0,0.0,0.0,0.0,0.0,0.0,0.0,0.0,0.0,0.0,0.0,0.0,
0.2721,3.006988274513541,2.9601278232142185,3.011149974086823,0.0,0.0,0.0,2.9927553572715273,0.0,0.0,0.0,0.0,0.0,0.0,0.0,0.0,0.0,0.0,0.0,0.0,0.0,0.0,
0.2872,3.0071225634974907,2.9602611818346647,3.011285424924322,0.0,0.0,0.0,2.9928897234188256,0.0,0.0,0.0,0.0,0.0,0.0,0.0,0.0,0.0,0.0,0.0,0.0,0.0,0.0,
0.3024,3.0072650965505647,2.960402728552409,3.011429190914879,0.0,0.0,0.0,2.993032338672618,0.0,0.0,0.0,0.0,0.0,0.0,0.0,0.0,0.0,0.0,0.0,0.0,0.0,0.0,
0.3175,3.007414003195926,2.9605506060147815,3.0115793853627206,0.0,0.0,0.0,2.9931813315244757,0.0,0.0,0.0,0.0,0.0,0.0,0.0,0.0,0.0,0.0,0.0,0.0,0.0,0.0,
0.3326,3.0075702022208057,2.9607057268359984,3.0117369349625465,0.0,0.0,0.0,2.9933376213397835,0.0,0.0,0.0,0.0,0.0,0.0,0.0,0.0,0.0,0.0,0.0,0.0,0.0,0.0,
0.3477,3.0077336990711454,2.960868096622587,3.011901845164219,0.0,0.0,0.0,2.9935012136193175,0.0,0.0,0.0,0.0,0.0,0.0,0.0,0.0,0.0,0.0,0.0,0.0,0.0,0.0,
0.3628,3.0079044994510626,2.961037721246911,3.0120741216756954,0.0,0.0,0.0,2.9936721141245566,0.0,0.0,0.0,0.0,0.0,0.0,0.0,0.0,0.0,0.0,0.0,0.0,0.0,0.0,
0.378,3.0080838132367456,2.9612158024920183,3.0122549847776914,0.0,0.0,0.0,2.9938515335021516,0.0,0.0,0.0,0.0,0.0,0.0,0.0,0.0,0.0,0.0,0.0,0.0,0.0,0.0,
0.3931,3.008269287294095,2.9614000036261956,3.0124420609540503,0.0,0.0,0.0,2.994037117291447,0.0,0.0,0.0,0.0,0.0,0.0,0.0,0.0,0.0,0.0,0.0,0.0,0.0,0.0,
0.4082,3.00846208359332,2.9615914788628204,3.0126365221634814,0.0,0.0,0.0,2.9942300282065406,0.0,0.0,0.0,0.0,0.0,0.0,0.0,0.0,0.0,0.0,0.0,0.0,0.0,0.0,
0.4233,3.0086622088802963,2.9617902351470944,3.0128383751552,0.0,0.0,0.0,2.9944302730608636,0.0,0.0,0.0,0.0,0.0,0.0,0.0,0.0,0.0,0.0,0.0,0.0,0.0,0.0,
0.4384,3.008869670162938,2.96199627969412,3.0130476269402338,0.0,0.0,0.0,2.9946378589324305,0.0,0.0,0.0,0.0,0.0,0.0,0.0,0.0,0.0,0.0,0.0,0.0,0.0,0.0,
0.4535,3.009084474712097,2.9622096199898134,3.013264284792301,0.0,0.0,0.0,2.9948527931647373,0.0,0.0,0.0,0.0,0.0,0.0,0.0,0.0,0.0,0.0,0.0,0.0,0.0,0.0,
0.4687,3.0093081258087553,2.962431749370775,3.0134898648937316,0.0,0.0,0.0,2.9950765800244206,0.0,0.0,0.0,0.0,0.0,0.0,0.0,0.0,0.0,0.0,0.0,0.0,0.0,0.0,
0.4838,3.009537688518781,2.9626597531577064,3.013721406930994,0.0,0.0,0.0,2.9953062828691603,0.0,0.0,0.0,0.0,0.0,0.0,0.0,0.0,0.0,0.0,0.0,0.0,0.0,0.0,
0.4989,3.0097746179489735,2.9628950768414954,3.013960378495585,0.0,0.0,0.0,2.9955433577620183,0.0,0.0,0.0,0.0,0.0,0.0,0.0,0.0,0.0,0.0,0.0,0.0,0.0,0.0,
0.514,3.0100189224331175,2.963137729002992,3.0142067879226735,0.0,0.0,0.0,2.9957878131195947,0.0,0.0,0.0,0.0,0.0,0.0,0.0,0.0,0.0,0.0,0.0,0.0,0.0,0.0,
0.5291,3.0102706105728396,2.963387718499003,3.01446064381482,0.0,0.0,0.0,2.9960396576288875,0.0,0.0,0.0,0.0,0.0,0.0,0.0,0.0,0.0,0.0,0.0,0.0,0.0,0.0,
0.5443,3.0105314316656178,2.9636467831830378,3.0147237104511775,0.0,0.0,0.0,2.996300641766611,0.0,0.0,0.0,0.0,0.0,0.0,0.0,0.0,0.0,0.0,0.0,0.0,0.0,0.0,
0.5594,3.0107979630470045,2.963911523774335,3.014992535620456,0.0,0.0,0.0,2.996567340813932,0.0,0.0,0.0,0.0,0.0,0.0,0.0,0.0,0.0,0.0,0.0,0.0,0.0,0.0,
0.5745,3.0110719055702657,2.9641836300028253,3.015268834740412,0.0,0.0,0.0,2.996841456771168,0.0,0.0,0.0,0.0,0.0,0.0,0.0,0.0,0.0,0.0,0.0,0.0,0.0,0.0,
0.5896,3.01135326892151,2.9644631118426714,3.0155526174956084,0.0,0.0,0.0,2.9971229994199295,0.0,0.0,0.0,0.0,0.0,0.0,0.0,0.0,0.0,0.0,0.0,0.0,0.0,0.0,
0.6047,3.0116420630605165,2.9647499795500725,3.0158438938435035,0.0,0.0,0.0,2.997411978818031,0.0,0.0,0.0,0.0,0.0,0.0,0.0,0.0,0.0,0.0,0.0,0.0,0.0,0.0,
0.6198,3.0119382982219984,2.965044243664535,3.016142674015715,0.0,0.0,0.0,2.9977084053007492,0.0,0.0,0.0,0.0,0.0,0.0,0.0,0.0,0.0,0.0,0.0,0.0,0.0,0.0,
0.635,3.0122440209483967,2.9653479375480707,3.016451022030192,0.0,0.0,0.0,2.99801432684222,0.0,0.0,0.0,0.0,0.0,0.0,0.0,0.0,0.0,0.0,0.0,0.0,0.0,0.0,
0.6501,3.0125552194214182,2.9656570764012375,3.0167648915204146,0.0,0.0,0.0,2.9983257291143572,0.0,0.0,0.0,0.0,0.0,0.0,0.0,0.0,0.0,0.0,0.0,0.0,0.0,0.0,
0.6652,3.012873891358395,2.9659736450704366,3.0170862972614287,0.0,0.0,0.0,2.998644611230087,0.0,0.0,0.0,0.0,0.0,0.0,0.0,0.0,0.0,0.0,0.0,0.0,0.0,0.0,
0.6803,3.013200048109288,2.966297655244543,3.0174152505961063,0.0,0.0,0.0,2.9989709846499792,0.0,0.0,0.0,0.0,0.0,0.0,0.0,0.0,0.0,0.0,0.0,0.0,0.0,0.0,
0.6954,3.0135337013059584,2.9666291189030956,3.0177517631480755,0.0,0.0,0.0,2.999304861119043,0.0,0.0,0.0,0.0,0.0,0.0,0.0,0.0,0.0,0.0,0.0,0.0,0.0,0.0,
0.7106,3.013877147265586,2.9669703177960285,3.0180981507859967,0.0,0.0,0.0,2.9996485386158707,0.0,0.0,0.0,0.0,0.0,0.0,0.0,0.0,0.0,0.0,0.0,0.0,0.0,0.0,
0.7257,3.014225879231068,2.967316775100138,3.018449868035623,0.0,0.0,0.0,2.99999750745561,0.0,0.0,0.0,0.0,0.0,0.0,0.0,0.0,0.0,0.0,0.0,0.0,0.0,0.0,
0.7408,3.014582144328465,2.967670723672935,3.0188091811561564,0.0,0.0,0.0,3.000354016385852,0.0,0.0,0.0,0.0,0.0,0.0,0.0,0.0,0.0,0.0,0.0,0.0,0.0,0.0,
0.7559,3.0149459553348277,2.968032176674461,3.0191761029109534,0.0,0.0,0.0,3.000718078306747,0.0,0.0,0.0,0.0,0.0,0.0,0.0,0.0,0.0,0.0,0.0,0.0,0.0,0.0,
0.771,3.015317325317078,2.968401147563703,3.0195506463516977,0.0,0.0,0.0,3.0010897064108266,0.0,0.0,0.0,0.0,0.0,0.0,0.0,0.0,0.0,0.0,0.0,0.0,0.0,0.0,
0.7861,3.0156962676338095,2.968777650100345,3.019932824820106,0.0,0.0,0.0,3.0014689141847537,0.0,0.0,0.0,0.0,0.0,0.0,0.0,0.0,0.0,0.0,0.0,0.0,0.0,0.0,
0.8013,3.016085381043549,2.9691642668955662,3.0203252591114125,0.0,0.0,0.0,3.001858302350176,0.0,0.0,0.0,0.0,0.0,0.0,0.0,0.0,0.0,0.0,0.0,0.0,0.0,0.0,
0.8164,3.0164795596582534,2.9695559253333377,3.02072279962117,0.0,0.0,0.0,3.002252761537587,0.0,0.0,0.0,0.0,0.0,0.0,0.0,0.0,0.0,0.0,0.0,0.0,0.0,0.0,
0.8315,3.0168813525462497,2.9699551586185517,3.0211280170356294,0.0,0.0,0.0,3.002654842733477,0.0,0.0,0.0,0.0,0.0,0.0,0.0,0.0,0.0,0.0,0.0,0.0,0.0,0.0,
0.8466,3.0172907742527686,2.9703619817345652,3.021540925875539,0.0,0.0,0.0,3.0030645606209574,0.0,0.0,0.0,0.0,0.0,0.0,0.0,0.0,0.0,0.0,0.0,0.0,0.0,0.0,
0.8617,3.0177078396239803,2.970776409975109,3.021961540960379,0.0,0.0,0.0,3.00348193018649,0.0,0.0,0.0,0.0,0.0,0.0,0.0,0.0,0.0,0.0,0.0,0.0,0.0,0.0,
0.8769,3.018135402114463,2.971201279409295,3.0223927398465618,0.0,0.0,0.0,3.00390980712344,0.0,0.0,0.0,0.0,0.0,0.0,0.0,0.0,0.0,0.0,0.0,0.0,0.0,0.0,
0.892,3.0185678514424703,2.971631015659571,3.0228288643735395,0.0,0.0,0.0,3.004342577158527,0.0,0.0,0.0,0.0,0.0,0.0,0.0,0.0,0.0,0.0,0.0,0.0,0.0,0.0,
0.9071,3.0190079909048766,2.9720684049073127,3.02327274152096,0.0,0.0,0.0,3.004783045777717,0.0,0.0,0.0,0.0,0.0,0.0,0.0,0.0,0.0,0.0,0.0,0.0,0.0,0.0,
0.9222,3.019455836574068,2.972513463711027,3.0237243873247945,0.0,0.0,0.0,3.0052312292032966,0.0,0.0,0.0,0.0,0.0,0.0,0.0,0.0,0.0,0.0,0.0,0.0,0.0,0.0,
0.9373,3.0199114048337954,2.9729662089504325,3.0241838181296785,0.0,0.0,0.0,3.005687143971302,0.0,0.0,0.0,0.0,0.0,0.0,0.0,0.0,0.0,0.0,0.0,0.0,0.0,0.0,
0.9524,3.0203747123814955,2.973426657828856,3.02465105059104,0.0,0.0,0.0,3.0061508069337974,0.0,0.0,0.0,0.0,0.0,0.0,0.0,0.0,0.0,0.0,0.0,0.0,0.0,0.0,
0.9676,3.020848921750356,2.973897954115114,3.0251292738102236,0.0,0.0,0.0,3.006625383225231,0.0,0.0,0.0,0.0,0.0,0.0,0.0,0.0,0.0,0.0,0.0,0.0,0.0,0.0,
0.9827,3.0213278107718518,2.9743739144996524,3.0256122127565193,0.0,0.0,0.0,3.0071046460093407,0.0,0.0,0.0,0.0,0.0,0.0,0.0,0.0,0.0,0.0,0.0,0.0,0.0,0.0,
0.9978,3.0218144911965923,2.9748576322200027,3.0261030053296887,0.0,0.0,0.0,3.007591709582094,0.0,0.0,0.0,0.0,0.0,0.0,0.0,0.0,0.0,0.0,0.0,0.0,0.0,0.0,
1.0129,3.0223089810021047,2.9753491258001725,3.026601669452462,0.0,0.0,0.0,3.0080865920849127,0.0,0.0,0.0,0.0,0.0,0.0,0.0,0.0,0.0,0.0,0.0,0.0,0.0,0.0,
1.028,3.0228112984916087,2.9758484141001826,3.027108223369659,0.0,0.0,0.0,3.00858931198715,0.0,0.0,0.0,0.0,0.0,0.0,0.0,0.0,0.0,0.0,0.0,0.0,0.0,0.0,
1.0432,3.0233248670600505,2.9763589007001565,3.0276261190875187,0.0,0.0,0.0,3.0091032956159083,0.0,0.0,0.0,0.0,0.0,0.0,0.0,0.0,0.0,0.0,0.0,0.0,0.0,0.0,
1.0583,3.0238429482943863,2.976873888320279,3.0281485611904397,0.0,0.0,0.0,3.0096217992683685,0.0,0.0,0.0,0.0,0.0,0.0,0.0,0.0,0.0,0.0,0.0,0.0,0.0,0.0,
1.0734,3.0243689142308567,2.977396729415873,3.0286789499073663,0.0,0.0,0.0,3.010148197851365,0.0,0.0,0.0,0.0,0.0,0.0,0.0,0.0,0.0,0.0,0.0,0.0,0.0,0.0,
1.0885,3.0249027845036474,2.9779274442203274,3.0292173047981623,0.0,0.0,0.0,3.010682511174046,0.0,0.0,0.0,0.0,0.0,0.0,0.0,0.0,0.0,0.0,0.0,0.0,0.0,0.0,
1.1036,3.0254445790858666,2.9784660533168896,3.0297636457573303,0.0,0.0,0.0,3.0112247593866956,0.0,0.0,0.0,0.0,0.0,0.0,0.0,0.0,0.0,0.0,0.0,0.0,0.0,0.0,
1.1187,3.0259943182925637,2.979012577641573,3.0303179930166912,0.0,0.0,0.0,3.0117749629836097,0.0,0.0,0.0,0.0,0.0,0.0,0.0,0.0,0.0,0.0,0.0,0.0,0.0,0.0,
1.1339,3.026555742787193,2.979570736914348,3.03088411828161,0.0,0.0,0.0,3.0123368659943837,0.0,0.0,0.0,0.0,0.0,0.0,0.0,0.0,0.0,0.0,0.0,0.0,0.0,0.0,
1.149,3.027121486530181,2.9801332087058485,3.0314545935668065,0.0,0.0,0.0,3.012903096267612,0.0,0.0,0.0,0.0,0.0,0.0,0.0,0.0,0.0,0.0,0.0,0.0,0.0,0.0,
1.1641,3.0276952380660194,2.980703660827856,3.032033138040993,0.0,0.0,0.0,3.013477345644956,0.0,0.0,0.0,0.0,0.0,0.0,0.0,0.0,0.0,0.0,0.0,0.0,0.0,0.0,
1.1792,3.028277019109333,2.9812821156608376,3.0326197733153886,0.0,0.0,0.0,3.0140596360285197,0.0,0.0,0.0,0.0,0.0,0.0,0.0,0.0,0.0,0.0,0.0,0.0,0.0,0.0,
1.1943,3.0288668517318316,2.981868595953734,3.0332145213526998,0.0,0.0,0.0,3.014649989679422,0.0,0.0,0.0,0.0,0.0,0.0,0.0,0.0,0.0,0.0,0.0,0.0,0.0,0.0,
1.2095,3.0294687449749444,2.982467088984329,3.0338214242397554,0.0,0.0,0.0,3.015252419399676,0.0,0.0,0.0,0.0,0.0,0.0,0.0,0.0,0.0,0.0,0.0,0.0,0.0,0.0,
1.2246,3.030074802113606,2.983069743471577,3.0344325192136767,0.0,0.0,0.0,3.01585902159962,0.0,0.0,0.0,0.0,0.0,0.0,0.0,0.0,0.0,0.0,0.0,0.0,0.0,0.0,
1.2397,3.030688979376467,2.9836804940700534,3.0350517951322082,0.0,0.0,0.0,3.01647375619291,0.0,0.0,0.0,0.0,0.0,0.0,0.0,0.0,0.0,0.0,0.0,0.0,0.0,0.0,
1.2548,3.031311300299119,2.984299365039547,3.035679275397451,0.0,0.0,0.0,3.017096646912039,0.0,0.0,0.0,0.0,0.0,0.0,0.0,0.0,0.0,0.0,0.0,0.0,0.0,0.0,
1.2699,3.031941788791141,2.984926381025816,3.0363149837787904,0.0,0.0,0.0,3.0177277178652493,0.0,0.0,0.0,0.0,0.0,0.0,0.0,0.0,0.0,0.0,0.0,0.0,0.0,0.0,
1.285,3.032580469139719,2.985561567064309,3.0369589444162317,0.0,0.0,0.0,3.0183669935400865,0.0,0.0,0.0,0.0,0.0,0.0,0.0,0.0,0.0,0.0,0.0,0.0,0.0,0.0,
1.3002,3.03323167754137,2.9862092367631083,3.0376155289201385,0.0,0.0,0.0,3.0190188144082057,0.0,0.0,0.0,0.0,0.0,0.0,0.0,0.0,0.0,0.0,0.0,0.0,0.0,0.0,
1.3153,3.033886870657659,2.986860894122789,3.0382761230510744,0.0,0.0,0.0,3.0196746292771746,0.0,0.0,0.0,0.0,0.0,0.0,0.0,0.0,0.0,0.0,0.0,0.0,0.0,0.0,
1.3304,3.034550330964364,2.9875207991923105,3.03894504428486,0.0,0.0,0.0,3.020338724813845,0.0,0.0,0.0,0.0,0.0,0.0,0.0,0.0,0.0,0.0,0.0,0.0,0.0,0.0,
1.3455,3.0352220842990234,2.9881889786071456,3.03962231828129,0.0,0.0,0.0,3.0210111270624864,0.0,0.0,0.0,0.0,0.0,0.0,0.0,0.0,0.0,0.0,0.0,0.0,0.0,0.0,
1.3606,3.035902156895962,2.9888654594120934,3.040307971088484,0.0,0.0,0.0,3.0216918624655134,0.0,0.0,0.0,0.0,0.0,0.0,0.0,0.0,0.0,0.0,0.0,0.0,0.0,0.0,
1.3758,3.036595162331625,2.989554832052394,3.0410066536335747,0.0,0.0,0.0,3.022385549339198,0.0,0.0,0.0,0.0,0.0,0.0,0.0,0.0,0.0,0.0,0.0,0.0,0.0,0.0,
1.3909,3.0372920093042604,2.99024805386711,3.0417091997110366,0.0,0.0,0.0,3.023083087627469,0.0,0.0,0.0,0.0,0.0,0.0,0.0,0.0,0.0,0.0,0.0,0.0,0.0,0.0,
1.406,3.0379972568466593,2.9909496608939232,3.042420205293567,0.0,0.0,0.0,3.0237890410113835,0.0,0.0,0.0,0.0,0.0,0.0,0.0,0.0,0.0,0.0,0.0,0.0,0.0,0.0,
1.4211,3.0387109328243076,2.991659681860785,3.0431396980237984,0.0,0.0,0.0,3.02450343756963,0.0,0.0,0.0,0.0,0.0,0.0,0.0,0.0,0.0,0.0,0.0,0.0,0.0,0.0,
1.4362,3.0394330655206323,2.992378145926857,3.0438677059523345,0.0,0.0,0.0,3.0252263057999413,0.0,0.0,0.0,0.0,0.0,0.0,0.0,0.0,0.0,0.0,0.0,0.0,0.0,0.0,
1.4513,3.0401636836415427,2.99310508268715,3.0446042575418892,0.0,0.0,0.0,3.0259576746235273,0.0,0.0,0.0,0.0,0.0,0.0,0.0,0.0,0.0,0.0,0.0,0.0,0.0,0.0,
1.4665,3.040907739684708,2.9938454210463012,3.0453543449073504,0.0,0.0,0.0,3.0267025018794533,0.0,0.0,0.0,0.0,0.0,0.0,0.0,0.0,0.0,0.0,0.0,0.0,0.0,0.0,
1.4816,3.041655473168593,2.9945894503609938,3.046108127941168,0.0,0.0,0.0,3.0274510171569182,0.0,0.0,0.0,0.0,0.0,0.0,0.0,0.0,0.0,0.0,0.0,0.0,0.0,0.0,
1.4967,3.0424117809762183,2.995342044024003,3.0468705427377847,0.0,0.0,0.0,3.028208122579335,0.0,0.0,0.0,0.0,0.0,0.0,0.0,0.0,0.0,0.0,0.0,0.0,0.0,0.0,
1.5118,3.0431766935533178,2.996103233424903,3.0476416194543825,0.0,0.0,0.0,3.0289738488108675,0.0,0.0,0.0,0.0,0.0,0.0,0.0,0.0,0.0,0.0,0.0,0.0,0.0,0.0,
1.5269,3.04395024179207,2.9968730504137344,3.04842138868227,0.0,0.0,0.0,3.0297482269626914,0.0,0.0,0.0,0.0,0.0,0.0,0.0,0.0,0.0,0.0,0.0,0.0,0.0,0.0,
1.5421,3.044737666229085,2.9976567117202504,3.049215132405175,0.0,0.0,0.0,3.0305365034515037,0.0,0.0,0.0,0.0,0.0,0.0,0.0,0.0,0.0,0.0,0.0,0.0,0.0,0.0,
1.5572,3.0455286379943916,2.9984439389809836,3.0500124382758793,0.0,0.0,0.0,3.031328338417085,0.0,0.0,0.0,0.0,0.0,0.0,0.0,0.0,0.0,0.0,0.0,0.0,0.0,0.0,
1.5723,3.0463283410437323,2.9992398924172443,3.050818531296907,0.0,0.0,0.0,3.032128921585961,0.0,0.0,0.0,0.0,0.0,0.0,0.0,0.0,0.0,0.0,0.0,0.0,0.0,0.0,
1.5874,3.0471368081105425,3.0000446057774584,3.05163344384688,0.0,0.0,0.0,3.032938285911627,0.0,0.0,0.0,0.0,0.0,0.0,0.0,0.0,0.0,0.0,0.0,0.0,0.0,0.0,
1.6025,3.0479540724014154,3.0008581132977805,3.052457208762911,0.0,0.0,0.0,3.0337564648207027,0.0,0.0,0.0,0.0,0.0,0.0,0.0,0.0,0.0,0.0,0.0,0.0,0.0,0.0,
1.6176,3.048780167601745,3.0016804497078318,3.053289859345788,0.0,0.0,0.0,3.0345834922184545,0.0,0.0,0.0,0.0,0.0,0.0,0.0,0.0,0.0,0.0,0.0,0.0,0.0,0.0,
1.6328,3.0496206870457856,3.002517184501102,3.0541370324827732,0.0,0.0,0.0,3.035424968009887,0.0,0.0,0.0,0.0,0.0,0.0,0.0,0.0,0.0,0.0,0.0,0.0,0.0,0.0,
1.6479,3.050464606120883,3.003357343942863,3.0549876155937015,0.0,0.0,0.0,3.036269855219149,0.0,0.0,0.0,0.0,0.0,0.0,0.0,0.0,0.0,0.0,0.0,0.0,0.0,0.0,
1.663,3.051317460327538,3.004206439725631,3.0558471873403468,0.0,0.0,0.0,3.0371236957978383,0.0,0.0,0.0,0.0,0.0,0.0,0.0,0.0,0.0,0.0,0.0,0.0,0.0,0.0,
1.6781,3.052179285328885,3.005064508616747,3.0567157829349156,0.0,0.0,0.0,3.0379865256268492,0.0,0.0,0.0,0.0,0.0,0.0,0.0,0.0,0.0,0.0,0.0,0.0,0.0,0.0,
1.6932,3.0530501172971047,3.0059315879077833,3.0575934380807426,0.0,0.0,0.0,3.03885838109521,0.0,0.0,0.0,0.0,0.0,0.0,0.0,0.0,0.0,0.0,0.0,0.0,0.0,0.0,
1.7084,3.0539358501375844,3.0068135478347573,3.058486091899846,0.0,0.0,0.0,3.0397451632907297,0.0,0.0,0.0,0.0,0.0,0.0,0.0,0.0,0.0,0.0,0.0,0.0,0.0,0.0,
1.7235,3.0548248668879174,3.007698822235467,3.059382035854688,0.0,0.0,0.0,3.0406352416593574,0.0,0.0,0.0,0.0,0.0,0.0,0.0,0.0,0.0,0.0,0.0,0.0,0.0,0.0,
1.7386,3.0557230024926194,3.0085932223821192,3.0602871497237993,0.0,0.0,0.0,3.041534458199513,0.0,0.0,0.0,0.0,0.0,0.0,0.0,0.0,0.0,0.0,0.0,0.0,0.0,0.0,
1.7537,3.056630295229308,3.0094967877338266,3.061201471237359,0.0,0.0,0.0,3.0424428514001645,0.0,0.0,0.0,0.0,0.0,0.0,0.0,0.0,0.0,0.0,0.0,0.0,0.0,0.0,
1.7688,3.057546783918257,3.010409558308127,3.062125038646922,0.0,0.0,0.0,3.0433604602911024,0.0,0.0,0.0,0.0,0.0,0.0,0.0,0.0,0.0,0.0,0.0,0.0,0.0,0.0,
1.784,3.058478669423915,3.0113377116664086,3.063064099595059,0.0,0.0,0.0,3.0442934935617942,0.0,0.0,0.0,0.0,0.0,0.0,0.0,0.0,0.0,0.0,0.0,0.0,0.0,0.0,
1.7991,3.059413730244599,3.012269076650074,3.064006337549301,0.0,0.0,0.0,3.045229714814658,0.0,0.0,0.0,0.0,0.0,0.0,0.0,0.0,0.0,0.0,0.0,0.0,0.0,0.0,
1.8142,3.06035810707666,3.0132097706109877,3.0649579396127757,0.0,0.0,0.0,3.0461752724334743,0.0,0.0,0.0,0.0,0.0,0.0,0.0,0.0,0.0,0.0,0.0,0.0,0.0,0.0,
1.8293,3.061311840987948,3.014159835878238,3.0659189461915384,0.0,0.0,0.0,3.047130207685908,0.0,0.0,0.0,0.0,0.0,0.0,0.0,0.0,0.0,0.0,0.0,0.0,0.0,0.0,
1.8444,3.062274973626347,3.015119315377186,3.0668893982464596,0.0,0.0,0.0,3.0480945624166638,0.0,0.0,0.0,0.0,0.0,0.0,0.0,0.0,0.0,0.0,0.0,0.0,0.0,0.0,
1.8595,3.0632475472277916,3.016088252637495,3.067869337300365,0.0,0.0,0.0,3.049068379055217,0.0,0.0,0.0,0.0,0.0,0.0,0.0,0.0,0.0,0.0,0.0,0.0,0.0,0.0,
1.8747,3.0642361400235827,3.017073203301975,3.0688653900714638,0.0,0.0,0.0,3.050058244465674,0.0,0.0,0.0,0.0,0.0,0.0,0.0,0.0,0.0,0.0,0.0,0.0,0.0,0.0,
1.8898,3.0652277878925105,3.0180612525060337,3.069864493508562,0.0,0.0,0.0,3.051051177969035,0.0,0.0,0.0,0.0,0.0,0.0,0.0,0.0,0.0,0.0,0.0,0.0,0.0,0.0,
1.9049,3.0662290073368226,3.0190588940720673,3.07087321224636,0.0,0.0,0.0,3.0520537045517497,0.0,0.0,0.0,0.0,0.0,0.0,0.0,0.0,0.0,0.0,0.0,0.0,0.0,0.0,
1.92,3.0672398430321386,3.020066174035209,3.0718915901334,0.0,0.0,0.0,3.053065869066916,0.0,0.0,0.0,0.0,0.0,0.0,0.0,0.0,0.0,0.0,0.0,0.0,0.0,0.0,
1.9351,3.0682603402848327,3.0210831390778083,3.0729196716180165,0.0,0.0,0.0,3.054087716993553,0.0,0.0,0.0,0.0,0.0,0.0,0.0,0.0,0.0,0.0,0.0,0.0,0.0,0.0,
1.9503,3.0692974000495488,3.0221166684062357,3.0739644073992247,0.0,0.0,0.0,3.0551261586183363,0.0,0.0,0.0,0.0,0.0,0.0,0.0,0.0,0.0,0.0,0.0,0.0,0.0,0.0,
1.9654,3.0703374236580836,3.0231532112224255,3.075012096880244,0.0,0.0,0.0,3.0561675772535843,0.0,0.0,0.0,0.0,0.0,0.0,0.0,0.0,0.0,0.0,0.0,0.0,0.0,0.0,
