energies(eV),real_xx,real_yy,real_zz,real_xy,real_yz,real_xz,real_ave,imag_xx,imag_yy,imag_zz,imag_xy,imag_yz,imag_xz,imag_ave,absorption_xx,absorption_yy,absorption_zz,absorption_xy,absorption_yz,absorption_xz,absorption_ave,band_gap
0.0,4.34970849577767,4.3092808199490005,4.205339135598119,0.0,0.0,-0.16562526902233363,4.288109483774931,0.0,0.0,0.0,0.0,0.0,0.0,0.0,0.0,0.0,0.0,0.0,0.0,0.0,0.0,4.5134
0.0171,4.3497247715570335,4.309296110117613,4.205354114767464,0.0,0.0,-0.16562715789427487,4.288124998814037,0.0,0.0,0.0,0.0,0.0,0.0,0.0,0.0,0.0,0.0,0.0,0.0,705.351201660826,0.0,
0.0343,4.3497739815990055,4.309342340075465,4.205399404476834,0.0,0.0,-0.1656328689778628,4.288171908717102,0.0,0.0,0.0,0.0,0.0,0.0,0.0,0.0,0.0,0.0,0.0,0.0,1414.8516566688452,0.0,
0.0514,4.349855557946985,4.3094189760323856,4.20547448197289,0.0,0.0,-0.16564233651783863,4.288249671984087,0.0,0.0,0.0,0.0,0.0,0.0,0.0,0.0,0.0,0.0,0.0,0.0,2120.275613687982,0.0,
0.0686,4.3499704618583035,4.309526920647045,4.205580231861131,0.0,0.0,-0.165655672342591,4.288359204788827,0.0,0.0,0.0,0.0,0.0,0.0,0.0,0.0,0.0,0.0,0.0,0.0,2829.898095135413,0.0,
0.0857,4.350117367174731,4.309664927548724,4.2057154335334515,0.0,0.0,-0.16567272290885116,4.288499242752302,0.0,0.0,0.0,0.0,0.0,0.0,0.0,0.0,0.0,0.0,0.0,0.0,3535.491947055985,0.0,
0.1029,4.3502980049644,4.309834622259581,4.205881680016861,0.0,0.0,-0.165693689614654,4.288671435746948,0.0,0.0,0.0,0.0,0.0,0.0,0.0,0.0,0.0,0.0,0.0,0.0,4245.334201940535,0.0,
0.12,4.350510290412422,4.310034045424631,4.206077052434192,0.0,0.0,-0.16571833105894876,4.288873796090415,0.0,0.0,0.0,0.0,0.0,0.0,0.0,0.0,0.0,0.0,0.0,0.0,4951.195179683689,0.0,
0.1372,4.350756725009129,4.310265545970303,4.206303852790668,0.0,0.0,-0.16574693830334478,4.289108707923367,0.0,0.0,0.0,0.0,0.0,0.0,0.0,0.0,0.0,0.0,0.0,0.0,5661.355073232669,0.0,
0.1543,4.351034464566983,4.310526450922461,4.206559463288469,0.0,0.0,-0.16577918197926603,4.289373459592638,0.0,0.0,0.0,0.0,0.0,0.0,0.0,0.0,0.0,0.0,0.0,0.0,6367.580551460039,0.0,
0.1715,4.351346781882757,4.310819833394019,4.206846895715817,0.0,0.0,-0.16581544294772968,4.289671170330864,0.0,0.0,0.0,0.0,0.0,0.0,0.0,0.0,0.0,0.0,0.0,0.0,7078.156119875338,0.0,
0.1886,4.351690072418994,4.311142305924876,4.207162832464787,0.0,0.0,-0.16585530372279567,4.289998403602886,0.0,0.0,0.0,0.0,0.0,0.0,0.0,0.0,0.0,0.0,0.0,0.0,7784.843669518293,0.0,
0.2058,4.352068381436572,4.3114976668383544,4.207510996160451,0.0,0.0,-0.1658992351427659,4.290359014811792,0.0,0.0,0.0,0.0,0.0,0.0,0.0,0.0,0.0,0.0,0.0,0.0,8495.933172919618,0.0,
0.2229,4.352477342808303,4.311881813089035,4.2078873682564994,0.0,0.0,-0.16594673141425742,4.290748841384612,0.0,0.0,0.0,0.0,0.0,0.0,0.0,0.0,0.0,0.0,0.0,0.0,9203.180613936345,0.0,
0.2401,4.352921775691794,4.3122992694776885,4.208296383518848,0.0,0.0,-0.16599835357296355,4.291172476229443,0.0,0.0,0.0,0.0,0.0,0.0,0.0,0.0,0.0,0.0,0.0,0.0,9914.882589564488,0.0,
0.2572,4.353396550866767,4.312745216040488,4.2087333210944395,0.0,0.0,-0.16605350728753962,4.291625029333898,0.0,0.0,0.0,0.0,0.0,0.0,0.0,0.0,0.0,0.0,0.0,0.0,10622.788043986286,0.0,
0.2744,4.353907263096266,4.313224905566815,4.209203329445641,0.0,0.0,-0.16611284405365728,4.292111832702907,0.0,0.0,0.0,0.0,0.0,0.0,0.0,0.0,0.0,0.0,0.0,0.0,11335.201359728759,0.0,
0.2915,4.354448018298511,4.313732799606434,4.209700983803177,0.0,0.0,-0.16617568073080005,4.292627267236041,0.0,0.0,0.0,0.0,0.0,0.0,0.0,0.0,0.0,0.0,0.0,0.0,12043.863305057992,0.0,
0.3086,4.355021736706197,4.314271638492484,4.21022897118889,0.0,0.0,-0.16624235834105291,4.293174115462524,0.0,0.0,0.0,0.0,0.0,0.0,0.0,0.0,0.0,0.0,0.0,0.0,12752.939303917989,0.0,
0.3258,4.35563211370868,4.314844890088907,4.210790691901355,0.0,0.0,-0.1663133083392929,4.293755898566314,0.0,0.0,0.0,0.0,0.0,0.0,0.0,0.0,0.0,0.0,0.0,0.0,13466.604536382156,0.0,
0.3429,4.3562721051527635,4.315445935811574,4.211379662778712,0.0,0.0,-0.16638771390345053,4.294365901247684,0.0,0.0,0.0,0.0,0.0,0.0,0.0,0.0,0.0,0.0,0.0,0.0,14176.585381932995,0.0,
0.3601,4.356949252980695,4.316081855578755,4.212002823946513,0.0,0.0,-0.16646645397601847,4.295011310835321,0.0,0.0,0.0,0.0,0.0,0.0,0.0,0.0,0.0,0.0,0.0,0.0,14891.210779679523,0.0,
0.3772,4.357655742588013,4.316745307365522,4.212652983239072,0.0,0.0,-0.16654862206833823,4.295684677730868,0.0,0.0,0.0,0.0,0.0,0.0,0.0,0.0,0.0,0.0,0.0,0.0,15602.19607383768,0.0,
0.3944,4.358399899703372,4.317444106310492,4.213337801925583,0.0,0.0,-0.16663518884033443,4.296393935979816,0.0,0.0,0.0,0.0,0.0,0.0,0.0,0.0,0.0,0.0,0.0,0.0,16317.88208886645,0.0,
0.4115,4.3591731365591855,4.3181701845449805,4.214049376368391,0.0,0.0,-0.16672515772069044,4.297130899157519,0.0,0.0,0.0,0.0,0.0,0.0,0.0,0.0,0.0,0.0,0.0,0.0,17029.97197951443,0.0,
0.4287,4.359984565648523,4.3189320950592816,4.214796091691389,0.0,0.0,-0.16681959154463877,4.297904250799732,0.0,0.0,0.0,0.0,0.0,0.0,0.0,0.0,0.0,0.0,0.0,0.0,17746.819640947262,0.0,
0.4458,4.360824823053749,4.319721041494841,4.215569330066131,0.0,0.0,-0.1669174031998162,4.298705064871574,0.0,0.0,0.0,0.0,0.0,0.0,0.0,0.0,0.0,0.0,0.0,0.0,18460.11487770302,0.0,
0.463,4.361703811300152,4.32054631758035,4.216378203446302,0.0,0.0,-0.16701974819927817,4.299542777442268,0.0,0.0,0.0,0.0,0.0,0.0,0.0,0.0,0.0,0.0,0.0,0.0,19178.225848227135,0.0,
0.4801,4.36261138705477,4.321398395575362,4.217213376840547,0.0,0.0,-0.16712544838842566,4.30040771982356,0.0,0.0,0.0,0.0,0.0,0.0,0.0,0.0,0.0,0.0,0.0,0.0,19892.827838922552,0.0,
0.4973,4.3635582464362095,4.322287313091937,4.218084692274216,0.0,0.0,-0.1672357525058393,4.301310083934121,0.0,0.0,0.0,0.0,0.0,0.0,0.0,0.0,0.0,0.0,0.0,0.0,20612.304471981624,0.0,
0.5144,4.3645334631493835,4.323202807867156,4.218982094364755,0.0,0.0,-0.16734939081016745,4.302239455127098,0.0,0.0,0.0,0.0,0.0,0.0,0.0,0.0,0.0,0.0,0.0,0.0,21328.31533991883,0.0,
0.5316,4.365548530764293,4.324155664802773,4.2199161587216505,0.0,0.0,-0.16746770585901383,4.303206784762906,0.0,0.0,0.0,0.0,0.0,0.0,0.0,0.0,0.0,0.0,0.0,0.0,22049.260737722303,0.0,
0.5487,4.36659173619176,4.3251348837212005,4.220876106083101,0.0,0.0,-0.16758933573584098,4.304200908665353,0.0,0.0,0.0,0.0,0.0,0.0,0.0,0.0,0.0,0.0,0.0,0.0,22766.78337977894,0.0,
0.5659,4.367675374612542,4.326152000484984,4.2218732494294535,0.0,0.0,-0.16771571745722694,4.3052335415089935,0.0,0.0,0.0,0.0,0.0,0.0,0.0,0.0,0.0,0.0,0.0,0.0,23489.30145220084,0.0,
0.583,4.368786942022224,4.327195273354759,4.222896081868473,0.0,0.0,-0.16784539629846681,4.306292765748485,0.0,0.0,0.0,0.0,0.0,0.0,0.0,0.0,0.0,0.0,0.0,0.0,24208.43959785572,0.0,
0.6001,4.369932738245178,4.328270610095827,4.223950399434573,0.0,0.0,-0.1679791105681988,4.307384582591859,0.0,0.0,0.0,0.0,0.0,0.0,0.0,0.0,0.0,0.0,0.0,0.0,24928.422163133226,0.0,
0.6173,4.371119868243659,4.3293846724948235,4.225042738732407,0.0,0.0,-0.16811769361745432,4.30851575982363,0.0,0.0,0.0,0.0,0.0,0.0,0.0,0.0,0.0,0.0,0.0,0.0,25653.493393650893,0.0,
0.6344,4.372334634436646,4.330524600157894,4.226160494877806,0.0,0.0,-0.16825955036064166,4.309673243157449,0.0,0.0,0.0,0.0,0.0,0.0,0.0,0.0,0.0,0.0,0.0,0.0,26375.248595563196,0.0,
0.6516,4.3735913550572505,4.33170382306968,4.227316841589183,0.0,0.0,-0.1684063569321015,4.310870673238704,0.0,0.0,0.0,0.0,0.0,0.0,0.0,0.0,0.0,0.0,0.0,0.0,27102.15604880795,0.0,
0.6687,4.374875530020326,4.332908729024437,4.228498435802713,0.0,0.0,-0.16855642365726464,4.312094231615825,0.0,0.0,0.0,0.0,0.0,0.0,0.0,0.0,0.0,0.0,0.0,0.0,27825.789961812417,0.0,
0.6859,4.3762022961590805,4.334153513950881,4.229719204076054,0.0,0.0,-0.1687115237446912,4.313358338062005,0.0,0.0,0.0,0.0,0.0,0.0,0.0,0.0,0.0,0.0,0.0,0.0,28554.64085137108,0.0,
0.703,4.3775563457162185,4.335423809263219,4.230965060461088,0.0,0.0,-0.1688698721363149,4.3146484051468414,0.0,0.0,0.0,0.0,0.0,0.0,0.0,0.0,0.0,0.0,0.0,0.0,29280.260597365508,0.0,
0.7202,4.378953639699725,4.33673458174648,4.232250689430742,0.0,0.0,-0.16903333997347297,4.315979636958983,0.0,0.0,0.0,0.0,0.0,0.0,0.0,0.0,0.0,0.0,0.0,0.0,30011.163222471303,0.0,
0.7373,4.380378057201404,4.33807070159364,4.233561257165013,0.0,0.0,-0.16920004597205068,4.317336671986686,0.0,0.0,0.0,0.0,0.0,0.0,0.0,0.0,0.0,0.0,0.0,0.0,30738.877034909507,0.0,
0.7545,4.381846389309054,4.339447911647239,4.234912211428938,0.0,0.0,-0.1693719601158152,4.31873550412841,0.0,0.0,0.0,0.0,0.0,0.0,0.0,0.0,0.0,0.0,0.0,0.0,31471.940845604015,0.0,
0.7716,4.383341696168168,4.340850315760194,4.236287965254745,0.0,0.0,-0.1695471040031014,4.32015999239437,0.0,0.0,0.0,0.0,0.0,0.0,0.0,0.0,0.0,0.0,0.0,0.0,32201.85813496834,0.0,
0.7888,4.3848816051882284,4.342294438327926,4.2377047353833905,0.0,0.0,-0.16972754742187582,4.321626926299849,0.0,0.0,0.0,0.0,0.0,0.0,0.0,0.0,0.0,0.0,0.0,0.0,32937.19379867073,0.0,
0.8059,4.386448351450348,4.343763611461776,4.239146176129296,0.0,0.0,-0.1699112139114945,4.323119379680473,0.0,0.0,0.0,0.0,0.0,0.0,0.0,0.0,0.0,0.0,0.0,0.0,33669.425219386954,0.0,
0.8231,4.388060405271625,4.3452751469053545,4.2406292792067575,0.0,0.0,-0.17010027407912665,4.324654943794579,0.0,0.0,0.0,0.0,0.0,0.0,0.0,0.0,0.0,0.0,0.0,0.0,34407.144688960885,0.0,
0.8402,4.389699170221215,4.346811599338722,4.242136934342421,0.0,0.0,-0.1702925524127362,4.326215901300786,0.0,0.0,0.0,0.0,0.0,0.0,0.0,0.0,0.0,0.0,0.0,0.0,35141.80220784736,0.0,
0.8574,4.391383966461105,4.348391073955045,4.243686914541277,0.0,0.0,-0.170490321408106,4.327820651652476,0.0,0.0,0.0,0.0,0.0,0.0,0.0,0.0,0.0,0.0,0.0,0.0,35882.01879125656,0.0,
0.8745,4.393095359264902,4.349995342019525,4.245261338766085,0.0,0.0,-0.17069130545730607,4.329450680016837,0.0,0.0,0.0,0.0,0.0,0.0,0.0,0.0,0.0,0.0,0.0,0.0,36619.215757600454,0.0,
0.8916,4.39484319715546,4.3516336276429755,4.246869266048783,0.0,0.0,-0.17089666620844388,4.33111536361574,0.0,0.0,0.0,0.0,0.0,0.0,0.0,0.0,0.0,0.0,0.0,0.0,37357.72153630611,0.0,
0.9088,4.396638186324674,4.353315955229981,4.248520543824387,0.0,0.0,-0.17110766844399125,4.332824895126348,0.0,0.0,0.0,0.0,0.0,0.0,0.0,0.0,0.0,0.0,0.0,0.0,38101.89540660789,0.0,
0.9259,4.398459622373357,4.355022910206755,4.250196123785701,0.0,0.0,-0.17132188448608832,4.334559552121937,0.0,0.0,0.0,0.0,0.0,0.0,0.0,0.0,0.0,0.0,0.0,0.0,38843.113236818535,0.0,
0.9431,4.400328981531224,4.356774608966535,4.251915760800994,0.0,0.0,-0.1715418464454918,4.336339783766252,0.0,0.0,0.0,0.0,0.0,0.0,0.0,0.0,0.0,0.0,0.0,0.0,39590.07372029354,0.0,
0.9602,4.402224702635692,4.358550837244987,4.2536596189838916,0.0,0.0,-0.1717650237032231,4.338145052954857,0.0,0.0,0.0,0.0,0.0,0.0,0.0,0.0,0.0,0.0,0.0,0.0,40334.120723280605,0.0,
0.9774,4.404169138914183,4.360372528736779,4.255448259222725,0.0,0.0,-0.17199405444676505,4.339996642291229,0.0,0.0,0.0,0.0,0.0,0.0,0.0,0.0,0.0,0.0,0.0,0.0,41083.9864421123,0.0,
0.9945,4.406139864419911,4.362218662424953,4.257261050748397,0.0,0.0,-0.17222630387961643,4.341873192531087,0.0,0.0,0.0,0.0,0.0,0.0,0.0,0.0,0.0,0.0,0.0,0.0,41830.98138102056,0.0,
1.0117,4.408160118000445,4.364110996869856,4.259119368322992,0.0,0.0,-0.17246451759661127,4.343796827731097,0.0,0.0,0.0,0.0,0.0,0.0,0.0,0.0,0.0,0.0,0.0,0.0,42583.87264815333,0.0,
1.0288,4.410206600531284,4.366027696915621,4.261001778651355,0.0,0.0,-0.1727059553294087,4.34574535869942,0.0,0.0,0.0,0.0,0.0,0.0,0.0,0.0,0.0,0.0,0.0,0.0,43333.9360066528,0.0,
1.046,4.412303445503437,4.367991353899342,4.262930478588512,0.0,0.0,-0.17295347147301107,4.34774175933043,0.0,0.0,0.0,0.0,0.0,0.0,0.0,0.0,0.0,0.0,0.0,0.0,44089.974905999865,0.0,
1.0631,4.414426471838761,4.369979310808141,4.264883224321528,0.0,0.0,-0.17320421893352342,4.34976300232281,0.0,0.0,0.0,0.0,0.0,0.0,0.0,0.0,0.0,0.0,0.0,0.0,44843.22896914804,0.0,
1.0803,4.416600717106962,4.372015000022305,4.26688304339315,0.0,0.0,-0.17346116236279907,4.3518329201741395,0.0,0.0,0.0,0.0,0.0,0.0,0.0,0.0,0.0,0.0,0.0,0.0,45602.53943808263,0.0,
1.0974,4.418801109107992,4.3740749346137004,4.268906873123126,0.0,0.0,-0.17372134642669226,4.3539276389482735,0.0,0.0,0.0,0.0,0.0,0.0,0.0,0.0,0.0,0.0,0.0,0.0,46359.108375515214,0.0,
1.1146,4.421053599348588,4.376183396637259,4.270978580722799,0.0,0.0,-0.17398784755624871,4.356071858902882,0.0,0.0,0.0,0.0,0.0,0.0,0.0,0.0,0.0,0.0,0.0,0.0,47121.81628976794,0.0,
1.1317,4.423332214935667,4.37831606084256,4.273074275927813,0.0,0.0,-0.17425760069972118,4.35824085056868,0.0,0.0,0.0,0.0,0.0,0.0,0.0,0.0,0.0,0.0,0.0,0.0,47881.82624134588,0.0,
1.1489,4.425663831606737,4.380498067965073,4.275218674995878,0.0,0.0,-0.17453379565720917,4.360460191522563,0.0,0.0,0.0,0.0,0.0,0.0,0.0,0.0,0.0,0.0,0.0,0.0,48648.05950243529,0.0,
1.166,4.428021565790495,4.3827042456673775,4.277387050984403,0.0,0.0,-0.17481325611762863,4.362704287480758,0.0,0.0,0.0,0.0,0.0,0.0,0.0,0.0,0.0,0.0,0.0,0.0,49411.63866647772,0.0,
1.1831,4.43041909009792,4.38494737594979,4.279591976763477,0.0,0.0,-0.17509760956163473,4.364986147603729,0.0,0.0,0.0,0.0,0.0,0.0,0.0,0.0,0.0,0.0,0.0,0.0,50177.04578651452,0.0,
1.2003,4.432871014165686,4.387241110675296,4.281846885891238,0.0,0.0,-0.17538859885435465,4.367319670244073,0.0,0.0,0.0,0.0,0.0,0.0,0.0,0.0,0.0,0.0,0.0,0.0,50948.80601604873,0.0,
1.2174,4.435349070107301,4.389558990897479,4.28412577975152,0.0,0.0,-0.1756828779265283,4.369677946918767,0.0,0.0,0.0,0.0,0.0,0.0,0.0,0.0,0.0,0.0,0.0,0.0,51717.978512106165,0.0,
1.2346,4.437882490848619,4.391928344712731,4.286455539676305,0.0,0.0,-0.17598392724477796,4.372088791745885,0.0,0.0,0.0,0.0,0.0,0.0,0.0,0.0,0.0,0.0,0.0,0.0,52493.59310722547,0.0,
1.2517,4.4404420709893655,4.394321842560405,4.288809305927423,0.0,0.0,-0.17628828533471957,4.374524406492398,0.0,0.0,0.0,0.0,0.0,0.0,0.0,0.0,0.0,0.0,0.0,0.0,53266.66472458957,0.0,
1.2689,4.443058007313831,4.396767705827071,4.291214844990455,0.0,0.0,-0.1765995521548153,4.377013519377119,0.0,0.0,0.0,0.0,0.0,0.0,0.0,0.0,0.0,0.0,0.0,0.0,54046.2694018999,0.0,
1.286,4.445700145378328,4.3992377242425675,4.293644425502235,0.0,0.0,-0.1769141490434739,4.37952743170771,0.0,0.0,0.0,0.0,0.0,0.0,0.0,0.0,0.0,0.0,0.0,0.0,54823.3762753699,0.0,
1.3032,4.448399658245243,4.401761023310729,4.296126710419816,0.0,0.0,-0.1772357973704332,4.382095797325263,0.0,0.0,0.0,0.0,0.0,0.0,0.0,0.0,0.0,0.0,0.0,0.0,55607.109205664805,0.0,
1.3203,4.451125430425891,4.404308501551519,4.29863308582156,0.0,0.0,-0.17756079943137454,4.38468900593299,0.0,0.0,0.0,0.0,0.0,0.0,0.0,0.0,0.0,0.0,0.0,0.0,56388.389961194924,0.0,
1.3375,4.453909624194777,4.406910199851788,4.301193122923472,0.0,0.0,-0.1778930000064238,4.387337648990012,0.0,0.0,0.0,0.0,0.0,0.0,0.0,0.0,0.0,0.0,0.0,0.0,57176.39187338669,0.0,
1.3546,4.456720150530396,4.409536114604334,4.303777313868105,0.0,0.0,-0.17822858041730535,4.390011193000945,0.0,0.0,0.0,0.0,0.0,0.0,0.0,0.0,0.0,0.0,0.0,0.0,57961.98773314427,0.0,
1.3718,4.459590174384751,4.412217213797327,4.306416150403305,0.0,0.0,-0.17857151093590892,4.3927411795284605,0.0,0.0,0.0,0.0,0.0,0.0,0.0,0.0,0.0,0.0,0.0,0.0,58754.40202172025,0.0,
1.3889,4.46248662021344,4.41492258034931,4.309079218900154,0.0,0.0,-0.17891784990063297,4.395496139820968,0.0,0.0,0.0,0.0,0.0,0.0,0.0,0.0,0.0,0.0,0.0,0.0,59544.45691273236,0.0,
1.4061,4.4654436696612425,4.417684121534856,4.311797944413085,0.0,0.0,-0.17927169524151124,4.398308578536395,0.0,0.0,0.0,0.0,0.0,0.0,0.0,0.0,0.0,0.0,0.0,0.0,60341.42974891078,0.0,
1.4232,4.468427247152183,4.420469995008384,4.3145409952328455,0.0,0.0,-0.179628980223583,4.401146079131138,0.0,0.0,0.0,0.0,0.0,0.0,0.0,0.0,0.0,0.0,0.0,0.0,61136.09041548446,0.0,
1.4403,4.471454731264196,4.423296411463462,4.317324347005695,0.0,0.0,-0.17999179460863673,4.404025163244451,0.0,0.0,0.0,0.0,0.0,0.0,0.0,0.0,0.0,0.0,0.0,0.0,61933.10297926383,0.0,
1.4575,4.474544535375345,4.426180536647517,4.320164925170783,0.0,0.0,-0.18036235865689504,4.406963332397882,0.0,0.0,0.0,0.0,0.0,0.0,0.0,0.0,0.0,0.0,0.0,0.0,62737.186982366984,0.0,
1.4746,4.4776610588564765,4.429089118594393,4.323029998121026,0.0,0.0,-0.18073641411030944,4.4099267251906324,0.0,0.0,0.0,0.0,0.0,0.0,0.0,0.0,0.0,0.0,0.0,0.0,63539.03075365969,0.0,
1.4918,4.48084108863288,4.432056467881302,4.32595338209973,0.0,0.0,-0.18111838790986554,4.4129503128713035,0.0,0.0,0.0,0.0,0.0,0.0,0.0,0.0,0.0,0.0,0.0,0.0,64348.051419464624,0.0,
1.5089,4.484047987910506,4.435048375791483,4.328901394491019,0.0,0.0,-0.18150389113183144,4.415999252731003,0.0,0.0,0.0,0.0,0.0,0.0,0.0,0.0,0.0,0.0,0.0,0.0,65154.88069948492,0.0,
1.5261,4.487319613948507,4.438100138719646,4.3319088337477405,0.0,0.0,-0.18189748666601033,4.419109528805298,0.0,0.0,0.0,0.0,0.0,0.0,0.0,0.0,0.0,0.0,0.0,0.0,65968.99484632512,0.0,
1.5432,4.490618278323371,4.441176577744168,4.334941052150398,0.0,0.0,-0.18229465252895208,4.422245302739312,0.0,0.0,0.0,0.0,0.0,0.0,0.0,0.0,0.0,0.0,0.0,0.0,66780.96717939818,0.0,
1.5604,4.493982925366453,4.444313989563288,4.338033845624201,0.0,0.0,-0.18270009014560964,4.425443586851314,0.0,0.0,0.0,0.0,0.0,0.0,0.0,0.0,0.0,0.0,0.0,0.0,67600.3349534063,0.0,
1.5775,4.497374798956452,4.447476211084836,4.341151586699828,0.0,0.0,-0.18310914198507924,4.428667532247038,0.0,0.0,0.0,0.0,0.0,0.0,0.0,0.0,0.0,0.0,0.0,0.0,68417.6112588546,0.0,
1.5947,4.500833947903141,4.450700554357864,4.344331084648317,0.0,0.0,-0.1835266506964677,4.431955195636441,0.0,0.0,0.0,0.0,0.0,0.0,0.0,0.0,0.0,0.0,0.0,0.0,69242.39626907879,0.0,
1.6118,4.504320531693804,4.453949857624774,4.347535717032869,0.0,0.0,-0.18394782061666615,4.435268702117149,0.0,0.0,0.0,0.0,0.0,0.0,0.0,0.0,0.0,0.0,0.0,0.0,70065.14097805606,0.0,
1.629,4.507875721716486,4.457262463914354,4.3508033229779315,0.0,0.0,-0.18437763841434957,4.4386471695362575,0.0,0.0,0.0,0.0,0.0,0.0,0.0,0.0,0.0,0.0,0.0,0.0,70895.51043667026,0.0,
1.6461,4.511458575724763,4.460600197761218,4.354096269269138,0.0,0.0,-0.18481116760897406,4.4420516809183725,0.0,0.0,0.0,0.0,0.0,0.0,0.0,0.0,0.0,0.0,0.0,0.0,71723.89163418245,0.0,
1.6633,4.515111406505694,4.464002449405767,4.35745344205082,0.0,0.0,-0.1852535417945751,4.445522432654093,0.0,0.0,0.0,0.0,0.0,0.0,0.0,0.0,0.0,0.0,0.0,0.0,72560.01650204741,0.0,
1.6804,4.518792152064083,4.467430014065773,4.360836180906253,0.0,0.0,-0.18569968088381686,4.449019449012036,0.0,0.0,0.0,0.0,0.0,0.0,0.0,0.0,0.0,0.0,0.0,0.0,73394.20607442688,0.0,
1.6976,4.522544286155798,4.470923346050689,4.364284436851673,0.0,0.0,-0.1861548684164017,4.452584023019386,0.0,0.0,0.0,0.0,0.0,0.0,0.0,0.0,0.0,0.0,0.0,0.0,74236.26121226807,0.0,
1.7147,4.526324608323785,4.474442195064896,4.367758505204785,0.0,0.0,-0.1866138778009009,4.4561751028644885,0.0,0.0,0.0,0.0,0.0,0.0,0.0,0.0,0.0,0.0,0.0,0.0,75076.43500036838,0.0,
1.7318,4.530155223598986,4.478007113278151,4.371278698047803,0.0,0.0,-0.18707940398599954,4.459813678308314,0.0,0.0,0.0,0.0,0.0,0.0,0.0,0.0,0.0,0.0,0.0,0.0,75919.65913058171,0.0,
1.749,4.534059423753419,4.481639739223403,4.37486641581939,0.0,0.0,-0.18755429589454575,4.463521859598738,0.0,0.0,0.0,0.0,0.0,0.0,0.0,0.0,0.0,0.0,0.0,0.0,76770.93728425523,0.0,
1.7661,4.537992265673513,4.485298224202944,4.378480355563523,0.0,0.0,-0.18803310172294158,4.467256948479994,0.0,0.0,0.0,0.0,0.0,0.0,0.0,0.0,0.0,0.0,0.0,0.0,77620.41688762703,0.0,
1.7833,4.542000214564538,4.489025759143434,4.382163211693424,0.0,0.0,-0.1885214936475982,4.471063061800465,0.0,0.0,0.0,0.0,0.0,0.0,0.0,0.0,0.0,0.0,0.0,0.0,78478.0802977858,0.0,
1.8004,4.546037138863696,4.492779406656407,4.385872591400249,0.0,0.0,-0.1890138656231616,4.47489637897345,0.0,0.0,0.0,0.0,0.0,0.0,0.0,0.0,0.0,0.0,0.0,0.0,79334.00180539103,0.0,
1.8176,4.550150739558666,4.496603485991952,4.389652322232475,0.0,0.0,-0.18951605130453703,4.4788021825943645,0.0,0.0,0.0,0.0,0.0,0.0,0.0,0.0,0.0,0.0,0.0,0.0,80198.24025401649,0.0,
1.8347,4.554293675259925,4.500453952643673,4.393458902029055,0.0,0.0,-0.1900222870967034,4.482735509977551,0.0,0.0,0.0,0.0,0.0,0.0,0.0,0.0,0.0,0.0,0.0,0.0,81060.79463669684,0.0,
1.8519,4.558514906077679,4.5043762741705535,4.3973373127759485,0.0,0.0,-0.19053857172581604,4.486742831008061,0.0,0.0,0.0,0.0,0.0,0.0,0.0,0.0,0.0,0.0,0.0,0.0,81931.80256304503,0.0,
1.869,4.562765858586502,4.508325279828035,4.401242922699851,0.0,0.0,-0.1910589806116078,4.4907780203714625,0.0,0.0,0.0,0.0,0.0,0.0,0.0,0.0,0.0,0.0,0.0,0.0,82801.18551409198,0.0,
