energies(eV),real_xx,real_yy,real_zz,real_xy,real_yz,real_xz,real_ave,imag_xx,imag_yy,imag_zz,imag_xy,imag_yz,imag_xz,imag_ave,absorption_xx,absorption_yy,absorption_zz,absorption_xy,absorption_yz,absorption_xz,absorption_ave,band_gap
0.0,2.412053351933147,2.4024617497892846,2.4008596873342354,-0.006834949429456511,0.019468218460554174,0.006810894744919477,2.4051249296855555,0.0,0.0,0.0,0.0,0.0,0.0,0.0,0.0,0.0,0.0,0.0,0.0,0.0,0.0,7.1311
0.0151,2.412055100545045,2.402463467523637,2.400861374700476,-0.0068349651653354625,0.019468283691473354,0.006810913663401765,2.4051266475897193,0.0,0.0,0.0,0.0,0.0,0.0,0.0,0.0,0.0,0.0,126.5285774776802,0.0,0.0,0.0,
0.0301,2.412060300170891,2.402468575332577,2.400866392206918,-0.00683501195719704,0.019468477661210595,0.006810969918958999,2.405131755903462,0.0,0.0,0.0,0.0,0.0,0.0,0.0,0.0,0.0,0.0,252.22008069535514,0.0,0.0,0.0,
0.0452,2.412069020242584,2.4024771414213535,2.4008748068508954,-0.006835090430078296,0.019468802962347407,0.006811064262972481,2.4051403228382777,0.0,0.0,0.0,0.0,0.0,0.0,0.0,0.0,0.0,0.0,378.7512654826833,0.0,0.0,0.0,
0.0603,2.412081237849863,2.4024891432832316,2.400886596520042,-0.0068352003781660285,0.01946925874434177,0.006811196447885878,2.4051523258843788,0.0,0.0,0.0,0.0,0.0,0.0,0.0,0.0,0.0,0.0,505.28506631804095,0.0,0.0,0.0,
0.0754,2.4120969532358574,2.402504581155554,2.400901761442601,-0.006835341804149425,0.019469845022025277,0.006811366476767718,2.4051677652780037,0.0,0.0,0.0,0.0,0.0,0.0,0.0,0.0,0.0,0.0,631.8223572655527,0.0,0.0,0.0,
0.0904,2.412116027964573,2.402523319045093,2.400920168023572,-0.006835513462844667,0.01947055663815302,0.006811572852393551,2.4051865050110792,0.0,0.0,0.0,0.0,0.0,0.0,0.0,0.0,0.0,0.0,757.5259720182975,0.0,0.0,0.0,
0.1055,2.412138716745766,2.4025456071614144,2.4009420620408366,-0.006835717647238266,0.019471403104125477,0.006811818331235299,2.4052087953160055,0.0,0.0,0.0,0.0,0.0,0.0,0.0,0.0,0.0,0.0,884.0728282477816,0.0,0.0,0.0,
0.1206,2.4121649044496065,2.4025713324050533,2.4009673323854197,-0.006835953322181249,0.01947238013557757,0.006812101668484017,2.405234523080027,0.0,0.0,0.0,0.0,0.0,0.0,0.0,0.0,0.0,0.0,1010.6257917051455,0.0,0.0,0.0,
0.1357,2.4121945915973853,2.402600495284922,2.400995979546729,-0.006836220493439845,0.019473487764313763,0.006812422870719001,2.405263688809679,0.0,0.0,0.0,0.0,0.0,0.0,0.0,0.0,0.0,0.0,1137.1857370151997,0.0,0.0,0.0,
0.1507,2.412227547483262,2.402632869165968,2.401027780885963,-0.006836517085938693,0.019474717396201047,0.0068127794428286025,2.4052960658450644,0.0,0.0,0.0,0.0,0.0,0.0,0.0,0.0,0.0,0.0,1262.9153138872884,0.0,0.0,0.0,
0.1658,2.4122642121759004,2.402668886341253,2.4010631610376283,-0.006836847061511236,0.019476085466413245,0.006813176147398128,2.4053320865182606,0.0,0.0,0.0,0.0,0.0,0.0,0.0,0.0,0.0,0.0,1389.4917869151964,0.0,0.0,0.0,
0.1809,2.4123043782897176,2.4027083430831793,2.4011019198622012,-0.006837208555272738,0.019477584254558856,0.006813610741908483,2.405371547078366,0.0,0.0,0.0,0.0,0.0,0.0,0.0,0.0,0.0,0.0,1516.0778612012425,0.0,0.0,0.0,
0.196,2.4123480466246394,2.4027512401727362,2.401144058110627,-0.006837601576073,0.01947921380945441,0.006814083236455224,2.4054144483026674,0.0,0.0,0.0,0.0,0.0,0.0,0.0,0.0,0.0,0.0,1642.674412339627,0.0,0.0,0.0,
0.211,2.41239489413209,2.402797260261889,2.401189264031916,-0.006838023218139948,0.019480962095642877,0.006814590137119018,2.4054604728086315,0.0,0.0,0.0,0.0,0.0,0.0,0.0,0.0,0.0,0.0,1768.4438140338943,0.0,0.0,0.0,
0.2261,2.4124455463798817,2.402847017864052,2.401238141248821,-0.006838479113705712,0.019482852480635585,0.006815138214367027,2.4055102351642517,0.0,0.0,0.0,0.0,0.0,0.0,0.0,0.0,0.0,0.0,1895.0638630432134,0.0,0.0,0.0,
0.2412,2.412499703661222,2.402900218559695,2.40129040052981,-0.006838966567427899,0.019484873804037885,0.0068157242271438215,2.405563440916909,0.0,0.0,0.0,0.0,0.0,0.0,0.0,0.0,0.0,0.0,2021.697011825348,0.0,0.0,0.0,
0.2563,2.4125573670554834,2.4029568634026224,2.4013460428881475,-0.006839485591250002,0.01948702613174058,0.006816348189070143,2.4056200911154177,0.0,0.0,0.0,0.0,0.0,0.0,0.0,0.0,0.0,0.0,2148.344137353997,0.0,0.0,0.0,
0.2713,2.4126181210693156,2.403016544232152,2.4014046673647833,-0.006840032447575223,0.01948929398074598,0.00681700560612996,2.405679777555417,0.0,0.0,0.0,0.0,0.0,0.0,0.0,0.0,0.0,0.0,2274.1672451769246,0.0,0.0,0.0,
0.2864,2.412682776968982,2.403080057976728,2.4014670567578666,-0.00684061444124219,0.019491707663088248,0.006817705259186909,2.4057432972345256,0.0,0.0,0.0,0.0,0.0,0.0,0.0,0.0,0.0,0.0,2400.8448497115564,0.0,0.0,0.0,
0.3015,2.4127509426319973,2.403147019432536,2.401532832655092,-0.006841228045406321,0.019494252572616125,0.0068184429074549455,2.405810264906542,0.0,0.0,0.0,0.0,0.0,0.0,0.0,0.0,0.0,0.0,2527.53905865858,0.0,0.0,0.0,
0.3166,2.4128226194182094,2.4032174299272624,2.401601996332987,-0.0068418732751184125,0.01949692879237725,0.006819218568091973,2.40588068189282,0.0,0.0,0.0,0.0,0.0,0.0,0.0,0.0,0.0,0.0,2654.250750783296,0.0,0.0,0.0,
0.3316,2.4128972992581006,2.4032907903593017,2.40167405750111,-0.0068425455595050024,0.019499717383830883,0.006820026745325866,2.405954049039504,0.0,0.0,0.0,0.0,0.0,0.0,0.0,0.0,0.0,0.0,2780.141471156975,0.0,0.0,0.0,
0.3467,2.4129759793751946,2.4033680803247472,2.4017499783758827,-0.006843253878876974,0.01950265561935487,0.006820878233680605,2.4060313460252747,0.0,0.0,0.0,0.0,0.0,0.0,0.0,0.0,0.0,0.0,2906.8906376852633,0.0,0.0,0.0,
0.3618,2.4130581751074347,2.403448823714644,2.4018292912479735,-0.006843993873519783,0.019505725439503612,0.006821767791075571,2.4061120966900176,0.0,0.0,0.0,0.0,0.0,0.0,0.0,0.0,0.0,0.0,3033.659921039772,0.0,0.0,0.0,
0.3769,2.4131438880965304,2.4035330221318256,2.401911997658407,-0.006844765561608501,0.01950892694458627,0.006822695438220839,2.406196302628921,0.0,0.0,0.0,0.0,0.0,0.0,0.0,0.0,0.0,0.0,3160.450202192053,0.0,0.0,0.0,
0.3919,2.4132325175359473,2.403620085376774,2.401997517834339,-0.006845563537215392,0.019512237730718522,0.0068236546755576,2.4062833735823532,0.0,0.0,0.0,0.0,0.0,0.0,0.0,0.0,0.0,0.0,3286.4224732023526,0.0,0.0,0.0,
0.407,2.4133252469249005,2.4037111760241316,2.402086993709383,-0.006846398459651258,0.01951570205010076,0.00682465831528591,2.4063744722194715,0.0,0.0,0.0,0.0,0.0,0.0,0.0,0.0,0.0,0.0,3413.2572417195975,0.0,0.0,0.0,
0.4221,2.4134214989085883,2.4038057269102016,2.402179868133298,-0.006847265134638252,0.019519298380660268,0.006825700112095164,2.406469031317363,0.0,0.0,0.0,0.0,0.0,0.0,0.0,0.0,0.0,0.0,3540.115648911705,0.0,0.0,0.0,
0.4372,2.4135212754121365,2.403903739914549,2.402276142913114,-0.006848163583496566,0.019523026840093726,0.006826780090266048,2.4065670527466,0.0,0.0,0.0,0.0,0.0,0.0,0.0,0.0,0.0,0.0,3666.9985783743855,0.0,0.0,0.0,
0.4522,2.41362388270161,2.4040045335538203,2.4023751486147997,-0.006849087563138805,0.019526861547565114,0.006827890744049257,2.4066678549567433,0.0,0.0,0.0,0.0,0.0,0.0,0.0,0.0,0.0,0.0,3793.06637636508,0.0,0.0,0.0,
0.4673,2.4137306909303584,2.4041094537506664,2.4024782072443442,-0.0068500494160689315,0.01953085375825563,0.0068290469080918926,2.406772783975123,0.0,0.0,0.0,0.0,0.0,0.0,0.0,0.0,0.0,0.0,3920.0008270446338,0.0,0.0,0.0,
0.4824,2.4138410298680144,2.404217842108231,2.402584672038998,-0.006851043111425575,0.01953497847632806,0.006830241331545779,2.4068811813384143,0.0,0.0,0.0,0.0,0.0,0.0,0.0,0.0,0.0,0.0,4046.9624493568417,0.0,0.0,0.0,
0.4975,2.4139549017250346,2.4043297007846105,2.4026945450735044,-0.0068520686736983725,0.019539235837015393,0.006831474042283486,2.406993049194383,0.0,0.0,0.0,0.0,0.0,0.0,0.0,0.0,0.0,0.0,4173.952129943255,0.0,0.0,0.0,
0.5125,2.414071519619932,2.4044442567976834,2.402807067045992,-0.006853119020204816,0.01954359646909704,0.00683273652558611,2.407107614487869,0.0,0.0,0.0,0.0,0.0,0.0,0.0,0.0,0.0,0.0,4300.129476165755,0.0,0.0,0.0,
0.5276,2.414192440798892,2.404563039846494,2.4029237404465773,-0.006854208181506064,0.019548118657604592,0.006834045644078371,2.4072264070306546,0.0,0.0,0.0,0.0,0.0,0.0,0.0,0.0,0.0,0.0,4427.177736068691,0.0,0.0,0.0,
0.5427,2.4143169019435406,2.4046853000935027,2.4030438287005427,-0.006855329287807255,0.01955277391997822,0.006835393138692082,2.4073486769125285,0.0,0.0,0.0,0.0,0.0,0.0,0.0,0.0,0.0,0.0,4554.256713361705,0.0,0.0,0.0,
0.5578,2.414444905551844,2.4048110399775293,2.4031673341523407,-0.0068564823667958495,0.01955756240915918,0.006836779040916244,2.407474426560572,0.0,0.0,0.0,0.0,0.0,0.0,0.0,0.0,0.0,0.0,4681.36729815842,0.0,0.0,0.0,
0.5728,2.4145755713445314,2.404939394773441,2.4032934073973866,-0.006857659493425846,0.019562451248268994,0.006838193823905725,2.4076027911717865,0.0,0.0,0.0,0.0,0.0,0.0,0.0,0.0,0.0,0.0,4807.668265487195,0.0,0.0,0.0,
0.5879,2.414710644160259,2.4050720784443236,2.403423731878793,-0.0068588763918556225,0.019567505782803946,0.0068396563845578885,2.407735484827792,0.0,0.0,0.0,0.0,0.0,0.0,0.0,0.0,0.0,0.0,4934.844515340499,0.0,0.0,0.0,
0.603,2.414849267350169,2.405208249475348,2.4035574809822213,-0.006860125350675125,0.019572694028687963,0.006841157452524823,2.4078716659359127,0.0,0.0,0.0,0.0,0.0,0.0,0.0,0.0,0.0,0.0,5062.055042850292,0.0,0.0,0.0,
0.6181,2.414991443702206,2.4053479105884152,2.4036946573241575,-0.006861406400801494,0.01957801615676544,0.0068426970629401895,2.4080113372049263,0.0,0.0,0.0,0.0,0.0,0.0,0.0,0.0,0.0,0.0,5189.300742033525,0.0,0.0,0.0,
0.6331,2.415136199258948,2.4054901050416166,2.4038343211341004,-0.006862710771721166,0.019583435767366573,0.0068442646732951445,2.4081535418115547,0.0,0.0,0.0,0.0,0.0,0.0,0.0,0.0,0.0,0.0,5315.739461757293,0.0,0.0,0.0,
0.6482,2.4152854670123096,2.4056367316096523,2.403978337334384,-0.006864055887412331,0.01958902530085035,0.006845881221824828,2.4083001786521154,0.0,0.0,0.0,0.0,0.0,0.0,0.0,0.0,0.0,0.0,5443.057942811075,0.0,0.0,0.0,
0.6633,2.4154382967103682,2.405786856834255,2.40412578901525,-0.006865433191832868,0.019594749254977197,0.006847536423462468,2.4084503141866245,0.0,0.0,0.0,0.0,0.0,0.0,0.0,0.0,0.0,0.0,5570.414278027474,0.0,0.0,0.0,
0.6784,2.4155946914338227,2.4059404837231035,2.4042766790677015,-0.006866842719165511,0.019600607818711757,0.006849230317017581,2.408603951408209,0.0,0.0,0.0,0.0,0.0,0.0,0.0,0.0,0.0,0.0,5697.809365763851,0.0,0.0,0.0,
0.6934,2.4157535832362083,2.4060965632139744,2.4044299770634914,-0.006868274849985405,0.019606561050579258,0.006850951340396726,2.408760041171225,0.0,0.0,0.0,0.0,0.0,0.0,0.0,0.0,0.0,0.0,5824.400034463159,0.0,0.0,0.0,
0.7085,2.4159170938852976,2.4062571795010683,2.404587729988485,-0.006869748715002946,0.019612688524026974,0.006852722481014275,2.4089206677916173,0.0,0.0,0.0,0.0,0.0,0.0,0.0,0.0,0.0,0.0,5951.875055437385,0.0,0.0,0.0,
0.7236,2.4160841792231365,2.4064213068868465,2.4047489303530547,-0.0068712549101887,0.019618951200128628,0.006854532435262767,2.4090848054876792,0.0,0.0,0.0,0.0,0.0,0.0,0.0,0.0,0.0,0.0,6079.391525074968,0.0,0.0,0.0,
0.7387,2.416254842626238,2.4065889486677703,2.4049135813255376,-0.006872793473030883,0.019625349286211253,0.006856381245662002,2.4092524575398486,0.0,0.0,0.0,0.0,0.0,0.0,0.0,0.0,0.0,0.0,6206.950346517223,0.0,0.0,0.0,
0.7537,2.416427921817348,2.4067589631276647,2.4050805614992186,-0.006874353931406146,0.019631839278075113,0.006858256326225958,2.409422482148077,0.0,0.0,0.0,0.0,0.0,0.0,0.0,0.0,0.0,0.0,6333.7072330390865,0.0,0.0,0.0,
0.7688,2.4166057280252256,2.406933620549145,2.4052521005663303,-0.006875957130367522,0.019638507924358728,0.006860182722173471,2.409597149713567,0.0,0.0,0.0,0.0,0.0,0.0,0.0,0.0,0.0,0.0,6461.353177170923,0.0,0.0,0.0,
0.7839,2.4167871228521434,2.4071118026694887,2.4054271001441196,-0.006877592814200626,0.019645312629026936,0.006862148107147834,2.4097753418885843,0.0,0.0,0.0,0.0,0.0,0.0,0.0,0.0,0.0,0.0,6589.044184243295,0.0,0.0,0.0,
0.799,2.416972109973784,2.4072935130772906,2.405605563681361,-0.006879261023743072,0.019652253618035933,0.006864152527417595,2.409957062244145,0.0,0.0,0.0,0.0,0.0,0.0,0.0,0.0,0.0,0.0,6716.781162632163,0.0,0.0,0.0,
0.814,2.417159432409237,2.4074775170383655,2.4057862784429447,-0.006880950430038049,0.019659283801610007,0.0068661823684051425,2.410141075963516,0.0,0.0,0.0,0.0,0.0,0.0,0.0,0.0,0.0,0.0,6843.718615173012,0.0,0.0,0.0,
0.8291,2.417351591596531,2.4076662716542288,2.4059716575294727,-0.006882683600798712,0.019666497149611394,0.006868264742549664,2.4103298402600775,0.0,0.0,0.0,0.0,0.0,0.0,0.0,0.0,0.0,0.0,6971.549947376036,0.0,0.0,0.0,
0.8442,2.417547354533325,2.4078585657409013,2.4061605113227076,-0.00688444942458122,0.01967384748655071,0.006870386296147655,2.4105221438656446,0.0,0.0,0.0,0.0,0.0,0.0,0.0,0.0,0.0,0.0,7099.429978384769,0.0,0.0,0.0,
0.8593,2.4177467251981746,2.408054403182635,2.406352843555255,-0.006886247945621084,0.019681335057305006,0.006872547079257532,2.410717990645355,0.0,0.0,0.0,0.0,0.0,0.0,0.0,0.0,0.0,0.0,7227.359622268629,0.0,0.0,0.0,
0.8743,2.417948351502141,2.4082524558324496,2.4065473497841046,-0.006888066973640262,0.019688909161709015,0.006874732443616489,2.4109160523728983,0.0,0.0,0.0,0.0,0.0,0.0,0.0,0.0,0.0,0.0,7354.492075577176,0.0,0.0,0.0,
0.8894,2.4181549259046333,2.4084553684036827,2.4067466272801825,-0.006889930808046291,0.01969667104087444,0.006876971579099771,2.4111189738628327,0.0,0.0,0.0,0.0,0.0,0.0,0.0,0.0,0.0,0.0,7482.523349724159,0.0,0.0,0.0,
0.9045,2.4183651204025063,2.4086618364042085,2.406949394817869,-0.006891827477270317,0.019704570915557267,0.006879250099664871,2.411325450541528,0.0,0.0,0.0,0.0,0.0,0.0,0.0,0.0,0.0,0.0,7610.606981974621,0.0,0.0,0.0,
0.9196,2.4185789392811947,2.40887186401791,2.4071556564173346,-0.0068937570289982954,0.019712609049873587,0.006881568059205567,2.4115354865721463,0.0,0.0,0.0,0.0,0.0,0.0,0.0,0.0,0.0,0.0,7738.743892558785,0.0,0.0,0.0,
0.9346,2.4187949349073743,2.4090840292589966,2.4073640155182394,-0.006895706406785511,0.01972073110646301,0.0068839097702800296,2.41174765989487,0.0,0.0,0.0,0.0,0.0,0.0,0.0,0.0,0.0,0.0,7866.085875270728,0.0,0.0,0.0,
0.9497,2.4190159916387746,2.409301165308742,2.407577254384382,-0.006897701651495657,0.019729045651766884,0.006886306511224447,2.4119648037772996,0.0,0.0,0.0,0.0,0.0,0.0,0.0,0.0,0.0,0.0,7994.331741612318,0.0,0.0,0.0,
0.9648,2.419240686043346,2.4095218739489566,2.4077939997811484,-0.006899729926682999,0.01973749927650318,0.0068887428582668385,2.4121855199244835,0.0,0.0,0.0,0.0,0.0,0.0,0.0,0.0,0.0,0.0,8122.633650668275,0.0,0.0,0.0,
0.9799,2.419469022717802,2.4097461596674297,2.408014256020209,-0.006901791283541078,0.019746092264372198,0.006891218869185282,2.4124098128018137,0.0,0.0,0.0,0.0,0.0,0.0,0.0,0.0,0.0,0.0,8250.99252930652,0.0,0.0,0.0,
0.9949,2.419699458015735,2.4099725061819743,2.4082365339842107,-0.006903871794249431,0.01975476661198389,0.006893717811460644,2.41263616606064,0.0,0.0,0.0,0.0,0.0,0.0,0.0,0.0,0.0,0.0,8378.558671423709,0.0,0.0,0.0,
1.01,2.419935069135658,2.4102039360619045,2.4084638018137934,-0.006905999251629167,0.019763638269317735,0.0068962730637336725,2.4128676023371187,0.0,0.0,0.0,0.0,0.0,0.0,0.0,0.0,0.0,0.0,8507.033884155882,0.0,0.0,0.0,
1.0251,2.420174336756383,2.410438956913671,2.4086945938334954,-0.00690815994924357,0.019772650168751967,0.006898868158709459,2.41310262916785,0.0,0.0,0.0,0.0,0.0,0.0,0.0,0.0,0.0,0.0,8635.568851446129,0.0,0.0,0.0,
1.0402,2.4204172657905376,2.4106775735334596,2.4089289146508293,-0.0069103539418557975,0.01978180261394207,0.006901503158102939,2.413341251324942,0.0,0.0,0.0,0.0,0.0,0.0,0.0,0.0,0.0,0.0,8764.164507287462,0.0,0.0,0.0,
1.0552,2.420662216077158,2.4109181748530975,2.4091651821209097,-0.006912566424690769,0.019791033904571716,0.006904160278009667,2.413581857683722,0.0,0.0,0.0,0.0,0.0,0.0,0.0,0.0,0.0,0.0,8891.969547814582,0.0,0.0,0.0,
1.0703,2.4209124586645805,2.4111639738151087,2.4094065512075735,-0.0069148269537804,0.019800467436568617,0.006906875010048248,2.4138276612290874,0.0,0.0,0.0,0.0,0.0,0.0,0.0,0.0,0.0,0.0,9020.688972807877,0.0,0.0,0.0,
1.0854,2.4211663778494907,2.411413383369246,2.4096514633320263,-0.006917120947215019,0.019810042453614934,0.006909629837198878,2.4140770748502542,0.0,0.0,0.0,0.0,0.0,0.0,0.0,0.0,0.0,0.0,9149.471893398375,0.0,0.0,0.0,
1.1005,2.4214239788654974,2.4116664086250337,2.4098999234022145,-0.006919448463394115,0.019819759279722755,0.006912424825169772,2.414330103630915,0.0,0.0,0.0,0.0,0.0,0.0,0.0,0.0,0.0,0.0,9278.319251202685,0.0,0.0,0.0,
1.1155,2.4216835245022175,2.411921343206142,2.4101502557440497,-0.006921793814632715,0.019829552484645453,0.006915241131947678,2.414585041150803,0.0,0.0,0.0,0.0,0.0,0.0,0.0,0.0,0.0,0.0,9406.378045955198,0.0,0.0,0.0,
1.1306,2.4219484807344784,2.412181591479425,2.4104058031541995,-0.006924188332192854,0.019839552976955787,0.006918116375643615,2.4148452917893675,0.0,0.0,0.0,0.0,0.0,0.0,0.0,0.0,0.0,0.0,9535.356668659944,0.0,0.0,0.0,
1.1457,2.42221713495067,2.4124454712242445,2.410664913656929,-0.006926616552835513,0.019849696279190393,0.00692103198289693,2.415109173277281,0.0,0.0,0.0,0.0,0.0,0.0,0.0,0.0,0.0,0.0,9664.40255920536,0.0,0.0,0.0,
1.1608,2.422489492710772,2.4127129878687494,2.410927592465594,-0.006929078538668154,0.019859982736147207,0.0069239880234695985,2.4153766910150387,0.0,0.0,0.0,0.0,0.0,0.0,0.0,0.0,0.0,0.0,9793.516667342219,0.0,0.0,0.0,
1.1758,2.422763719186227,2.4129823391731584,2.4111920698434823,-0.006931557712757288,0.019870343152498873,0.006926964590094157,2.415646042734289,0.0,0.0,0.0,0.0,0.0,0.0,0.0,0.0,0.0,0.0,9921.844196940057,0.0,0.0,0.0,
1.1909,2.4230434764238,2.413257122046955,2.4114618774940553,-0.00693408719439498,0.019880916020533997,0.006930001441742659,2.4159208253216033,0.0,0.0,0.0,0.0,0.0,0.0,0.0,0.0,0.0,0.0,10051.097130482394,0.0,0.0,0.0,
1.206,2.4233269543436315,2.4135355585524216,2.411735269519453,-0.006936650632774662,0.019891633107056352,0.0069330789416774796,2.416199260805169,0.0,0.0,0.0,0.0,0.0,0.0,0.0,0.0,0.0,0.0,10180.421137372037,0.0,0.0,0.0,
1.2211,2.4236141588378644,2.413817654441975,2.412012251443759,-0.006939248093789205,0.019902494778112165,0.00693619716377895,2.4164813549078663,0.0,0.0,0.0,0.0,0.0,0.0,0.0,0.0,0.0,0.0,10309.817176017985,0.0,0.0,0.0,
1.2361,2.4239031568565617,2.4141015110234925,2.4122909589019095,-0.006941862104526227,0.0199134280359457,0.006939335127951817,2.416765208927321,0.0,0.0,0.0,0.0,0.0,0.0,0.0,0.0,0.0,0.0,10438.42855407992,0.0,0.0,0.0,
1.2512,2.4241978077337505,2.4143909189355717,2.41257511364356,-0.0069445275859046675,0.019924579032103783,0.006942534749264703,2.417054613437627,0.0,0.0,0.0,0.0,0.0,0.0,0.0,0.0,0.0,0.0,10567.971047563748,0.0,0.0,0.0,
1.2663,2.4244962033271005,2.4146840039433015,2.4128628752914594,-0.006947227292923111,0.019935875740888915,0.006945775320140642,2.417347694187287,0.0,0.0,0.0,0.0,0.0,0.0,0.0,0.0,0.0,0.0,10697.588455277837,0.0,0.0,0.0,
1.2814,2.4247983498670744,2.4149807721293852,2.413154249686055,-0.006949961295342605,0.01994731855008758,0.006949056918647043,2.417644457227505,0.0,0.0,0.0,0.0,0.0,0.0,0.0,0.0,0.0,0.0,10827.281744827556,0.0,0.0,0.0,
1.2964,2.4251022154440522,2.4152792277261756,2.4134472772354383,-0.006952711217142078,0.019958830619925615,0.00695235748385211,2.4179429068018887,0.0,0.0,0.0,0.0,0.0,0.0,0.0,0.0,0.0,0.0,10956.192226382462,0.0,0.0,0.0,
1.3115,2.425411857965856,2.41558335635741,2.413745870941417,-0.006955513795278164,0.019970565841320544,0.006955721103038215,2.418247028421561,0.0,0.0,0.0,0.0,0.0,0.0,0.0,0.0,0.0,0.0,11086.039673413945,0.0,0.0,0.0,
1.3266,2.4257252705985404,2.415891186876749,2.4140480953573515,-0.006958350883529848,0.019982448357075563,0.006959125989892919,2.4185548509442136,0.0,0.0,0.0,0.0,0.0,0.0,0.0,0.0,0.0,0.0,11215.965913106415,0.0,0.0,0.0,
1.3417,2.426042459917458,2.41620272570359,2.41435395664611,-0.006961222555615021,0.019994478577242472,0.006962572226744009,2.4188663807557194,0.0,0.0,0.0,0.0,0.0,0.0,0.0,0.0,0.0,0.0,11345.971922815108,0.0,0.0,0.0,
1.3567,2.426361294479247,2.4165158793366808,2.4146613993569996,-0.006964109524865553,0.02000657577814131,0.006966036663371798,2.419179524390976,0.0,0.0,0.0,0.0,0.0,0.0,0.0,0.0,0.0,0.0,11475.196912946965,0.0,0.0,0.0,
