energies(eV),real_xx,real_yy,real_zz,real_xy,real_yz,real_xz,real_ave,imag_xx,imag_yy,imag_zz,imag_xy,imag_yz,imag_xz,imag_ave,absorption_xx,absorption_yy,absorption_zz,absorption_xy,absorption_yz,absorption_xz,absorption_ave,band_gap
0.0,2.930428188330862,2.930428188330862,2.8158827687278416,0.0,0.0,0.0,2.8922463817965216,0.0,0.0,0.0,0.0,0.0,0.0,0.0,0.0,0.0,0.0,0.0,0.0,0.0,0.0,6.1695
0.0184,2.930433475606736,2.930433475606736,2.815887166666509,0.0,0.0,0.0,2.89225137262666,0.0,0.0,0.0,0.0,0.0,0.0,0.0,0.0,0.0,0.0,0.0,0.0,0.0,0.0,
0.0369,2.9304494527865916,2.9304494527865916,2.81590045641344,0.0,0.0,0.0,2.892266453995541,0.0,0.0,0.0,0.0,0.0,0.0,0.0,0.0,0.0,0.0,0.0,0.0,0.0,0.0,
0.0553,2.930475947905178,2.930475947905178,2.815922494873011,0.0,0.0,0.0,2.892291463561122,0.0,0.0,0.0,0.0,0.0,0.0,0.0,0.0,0.0,0.0,0.0,0.0,0.0,0.0,
0.0738,2.930513250231047,2.930513250231047,2.8159535225633414,0.0,0.0,0.0,2.892326674341812,0.0,0.0,0.0,0.0,0.0,0.0,0.0,0.0,0.0,0.0,0.0,0.0,0.0,0.0,
0.0922,2.9305609582728724,2.9305609582728724,2.8159932053980183,0.0,0.0,0.0,2.892371707314588,0.0,0.0,0.0,0.0,0.0,0.0,0.0,0.0,0.0,0.0,0.0,0.0,0.0,0.0,
0.1107,2.9306195928983323,2.9306195928983323,2.8160419764585334,0.0,0.0,0.0,2.8924270540850663,0.0,0.0,0.0,0.0,0.0,0.0,0.0,0.0,0.0,0.0,0.0,0.0,0.0,0.0,
0.1291,2.9306885230136994,2.9306885230136994,2.816099310609741,0.0,0.0,0.0,2.8924921188790464,0.0,0.0,0.0,0.0,0.0,0.0,0.0,0.0,0.0,0.0,0.0,0.0,0.0,0.0,
0.1476,2.930768501186531,2.930768501186531,2.816165833572871,0.0,0.0,0.0,2.8925676119819776,0.0,0.0,0.0,0.0,0.0,0.0,0.0,0.0,0.0,0.0,0.0,0.0,0.0,0.0,
0.166,2.9308586666007117,2.9308586666007117,2.8162408290730028,0.0,0.0,0.0,2.8926527207581416,0.0,0.0,0.0,0.0,0.0,0.0,0.0,0.0,0.0,0.0,0.0,0.0,0.0,0.0,
0.1845,2.930960003669375,2.930960003669375,2.816325115581493,0.0,0.0,0.0,2.892748374306747,0.0,0.0,0.0,0.0,0.0,0.0,0.0,0.0,0.0,0.0,0.0,0.0,0.0,0.0,
0.2029,2.9310714216903033,2.9310714216903033,2.816417785559284,0.0,0.0,0.0,2.8928535429799638,0.0,0.0,0.0,0.0,0.0,0.0,0.0,0.0,0.0,0.0,0.0,0.0,0.0,0.0,
0.2214,2.931194137112815,2.931194137112815,2.8165198503723996,0.0,0.0,0.0,2.8929693748660097,0.0,0.0,0.0,0.0,0.0,0.0,0.0,0.0,0.0,0.0,0.0,0.0,0.0,0.0,
0.2398,2.9313268291410397,2.9313268291410397,2.8166302110600787,0.0,0.0,0.0,2.8930946231140524,0.0,0.0,0.0,0.0,0.0,0.0,0.0,0.0,0.0,0.0,0.0,0.0,0.0,0.0,
0.2583,2.931470946496224,2.931470946496224,2.8167500720616374,0.0,0.0,0.0,2.8932306550180287,0.0,0.0,0.0,0.0,0.0,0.0,0.0,0.0,0.0,0.0,0.0,0.0,0.0,0.0,
0.2767,2.9316249380373236,2.9316249380373236,2.816878142803683,0.0,0.0,0.0,2.8933760062927765,0.0,0.0,0.0,0.0,0.0,0.0,0.0,0.0,0.0,0.0,0.0,0.0,0.0,0.0,
0.2952,2.9317904850384555,2.9317904850384555,2.8170158210116987,0.0,0.0,0.0,2.893532263696203,0.0,0.0,0.0,0.0,0.0,0.0,0.0,0.0,0.0,0.0,0.0,0.0,0.0,0.0,
0.3136,2.931965805717768,2.931965805717768,2.8171616242752857,0.0,0.0,0.0,2.8936977452369406,0.0,0.0,0.0,0.0,0.0,0.0,0.0,0.0,0.0,0.0,0.0,0.0,0.0,0.0,
0.3321,2.9321528142286035,2.9321528142286035,2.817317143853385,0.0,0.0,0.0,2.8938742574368637,0.0,0.0,0.0,0.0,0.0,0.0,0.0,0.0,0.0,0.0,0.0,0.0,0.0,0.0,
0.3505,2.932349497808419,2.932349497808419,2.817480705240577,0.0,0.0,0.0,2.894059900285805,0.0,0.0,0.0,0.0,0.0,0.0,0.0,0.0,0.0,0.0,0.0,0.0,0.0,0.0,
0.369,2.9325580038617196,2.9325580038617196,2.8176540935110834,0.0,0.0,0.0,2.8942567004115074,0.0,0.0,0.0,0.0,0.0,0.0,0.0,0.0,0.0,0.0,0.0,0.0,0.0,0.0,
0.3874,2.932776088260921,2.932776088260921,2.817835441772758,0.0,0.0,0.0,2.894462539431533,0.0,0.0,0.0,0.0,0.0,0.0,0.0,0.0,0.0,0.0,0.0,0.0,0.0,0.0,
0.4059,2.9330061320793663,2.9330061320793663,2.818026729231529,0.0,0.0,0.0,2.8946796644634207,0.0,0.0,0.0,0.0,0.0,0.0,0.0,0.0,0.0,0.0,0.0,0.0,0.0,0.0,
0.4243,2.9332456593954337,2.9332456593954337,2.8182258962829723,0.0,0.0,0.0,2.8949057383579464,0.0,0.0,0.0,0.0,0.0,0.0,0.0,0.0,0.0,0.0,0.0,0.0,0.0,0.0,
0.4428,2.933497285415064,2.933497285415064,2.818435116616005,0.0,0.0,0.0,2.895143229148711,0.0,0.0,0.0,0.0,0.0,0.0,0.0,0.0,0.0,0.0,0.0,0.0,0.0,0.0,
0.4612,2.9337583019486546,2.9337583019486546,2.8186521375543414,0.0,0.0,0.0,2.8953895804838834,0.0,0.0,0.0,0.0,0.0,0.0,0.0,0.0,0.0,0.0,0.0,0.0,0.0,0.0,
0.4797,2.9340315588448176,2.9340315588448176,2.818879327656182,0.0,0.0,0.0,2.895647481781939,0.0,0.0,0.0,0.0,0.0,0.0,0.0,0.0,0.0,0.0,0.0,0.0,0.0,0.0,
0.4981,2.93431411512679,2.93431411512679,2.8191142407795087,0.0,0.0,0.0,2.8959141570110294,0.0,0.0,0.0,0.0,0.0,0.0,0.0,0.0,0.0,0.0,0.0,0.0,0.0,0.0,
0.5166,2.9346090558425724,2.9346090558425724,2.8193594407733533,0.0,0.0,0.0,2.8961925174861656,0.0,0.0,0.0,0.0,0.0,0.0,0.0,0.0,0.0,0.0,0.0,0.0,0.0,0.0,
0.535,2.934913206663622,2.934913206663622,2.819612287601732,0.0,0.0,0.0,2.8964795669763252,0.0,0.0,0.0,0.0,0.0,0.0,0.0,0.0,0.0,0.0,0.0,0.0,0.0,0.0,
0.5535,2.9352298884409422,2.9352298884409422,2.8198755408615206,0.0,0.0,0.0,2.8967784392478015,0.0,0.0,0.0,0.0,0.0,0.0,0.0,0.0,0.0,0.0,0.0,0.0,0.0,0.0,
0.5719,2.9355556928837596,2.9355556928837596,2.8201463661597277,0.0,0.0,0.0,2.897085917309082,0.0,0.0,0.0,0.0,0.0,0.0,0.0,0.0,0.0,0.0,0.0,0.0,0.0,0.0,
0.5903,2.935892318217587,2.935892318217587,2.820426174074388,0.0,0.0,0.0,2.897403603503187,0.0,0.0,0.0,0.0,0.0,0.0,0.0,0.0,0.0,0.0,0.0,0.0,0.0,0.0,
0.6088,2.9362416987710747,2.9362416987710747,2.820716571136081,0.0,0.0,0.0,2.8977333228927438,0.0,0.0,0.0,0.0,0.0,0.0,0.0,0.0,0.0,0.0,0.0,0.0,0.0,0.0,
0.6272,2.9366000743832084,2.9366000743832084,2.8210144307364837,0.0,0.0,0.0,2.898071526500967,0.0,0.0,0.0,0.0,0.0,0.0,0.0,0.0,0.0,0.0,0.0,0.0,0.0,0.0,
0.6457,2.93697135804255,2.93697135804255,2.821323003809505,0.0,0.0,0.0,2.898421906631535,0.0,0.0,0.0,0.0,0.0,0.0,0.0,0.0,0.0,0.0,0.0,0.0,0.0,0.0,
0.6641,2.937351553897786,2.937351553897786,2.8216389680797005,0.0,0.0,0.0,2.898780691958424,0.0,0.0,0.0,0.0,0.0,0.0,0.0,0.0,0.0,0.0,0.0,0.0,0.0,0.0,
0.6826,2.9377448132273964,2.9377448132273964,2.821965772110897,0.0,0.0,0.0,2.899151799521897,0.0,0.0,0.0,0.0,0.0,0.0,0.0,0.0,0.0,0.0,0.0,0.0,0.0,0.0,
0.701,2.9381469037160377,2.9381469037160377,2.82229989737409,0.0,0.0,0.0,2.899531234935388,0.0,0.0,0.0,0.0,0.0,0.0,0.0,0.0,0.0,0.0,0.0,0.0,0.0,0.0,
0.7195,2.9385622157518307,2.9385622157518307,2.822644990683201,0.0,0.0,0.0,2.8999231407289545,0.0,0.0,0.0,0.0,0.0,0.0,0.0,0.0,0.0,0.0,0.0,0.0,0.0,0.0,
0.7379,2.9389862797340296,2.9389862797340296,2.8229973366331986,0.0,0.0,0.0,2.9003232987004193,0.0,0.0,0.0,0.0,0.0,0.0,0.0,0.0,0.0,0.0,0.0,0.0,0.0,0.0,
0.7564,2.9394237260294203,2.9394237260294203,2.8233607809453,0.0,0.0,0.0,2.900736077668047,0.0,0.0,0.0,0.0,0.0,0.0,0.0,0.0,0.0,0.0,0.0,0.0,0.0,0.0,
0.7748,2.9398698468822917,2.9398698468822917,2.8237314106798195,0.0,0.0,0.0,2.9011570348148012,0.0,0.0,0.0,0.0,0.0,0.0,0.0,0.0,0.0,0.0,0.0,0.0,0.0,0.0,
0.7933,2.9403295135570264,2.9403295135570264,2.8241132711599706,0.0,0.0,0.0,2.9015907660913407,0.0,0.0,0.0,0.0,0.0,0.0,0.0,0.0,0.0,0.0,0.0,0.0,0.0,0.0,
0.8117,2.9407977792248254,2.9407977792248254,2.82450225121599,0.0,0.0,0.0,2.90203260322188,0.0,0.0,0.0,0.0,0.0,0.0,0.0,0.0,0.0,0.0,0.0,0.0,0.0,0.0,
0.8302,2.9412797570169134,2.9412797570169134,2.8249025965057974,0.0,0.0,0.0,2.9024873701798746,0.0,0.0,0.0,0.0,0.0,0.0,0.0,0.0,0.0,0.0,0.0,0.0,0.0,0.0,
0.8486,2.941770260064027,2.941770260064027,2.825309996897094,0.0,0.0,0.0,2.902950172341716,0.0,0.0,0.0,0.0,0.0,0.0,0.0,0.0,0.0,0.0,0.0,0.0,0.0,0.0,
0.8671,2.9422746443844767,2.9422746443844767,2.8257288991534466,0.0,0.0,0.0,2.9034260626408,0.0,0.0,0.0,0.0,0.0,0.0,0.0,0.0,0.0,0.0,0.0,0.0,0.0,0.0,
0.8855,2.9427874820515374,2.9427874820515374,2.826154793410144,0.0,0.0,0.0,2.9039099191710727,0.0,0.0,0.0,0.0,0.0,0.0,0.0,0.0,0.0,0.0,0.0,0.0,0.0,0.0,
0.904,2.9433143730424036,2.9433143730424036,2.8265923283461647,0.0,0.0,0.0,2.904407024810324,0.0,0.0,0.0,0.0,0.0,0.0,0.0,0.0,0.0,0.0,0.0,0.0,0.0,0.0,
0.9224,2.943849647305453,2.943849647305453,2.8270367935564957,0.0,0.0,0.0,2.904912029389134,0.0,0.0,0.0,0.0,0.0,0.0,0.0,0.0,0.0,0.0,0.0,0.0,0.0,0.0,
0.9409,2.9443991499009066,2.9443991499009066,2.8274930404845815,0.0,0.0,0.0,2.9054304467621317,0.0,0.0,0.0,0.0,0.0,0.0,0.0,0.0,0.0,0.0,0.0,0.0,0.0,0.0,
0.9593,2.9449569675337854,2.9449569675337854,2.8279561573389755,0.0,0.0,0.0,2.9059566974688487,0.0,0.0,0.0,0.0,0.0,0.0,0.0,0.0,0.0,0.0,0.0,0.0,0.0,0.0,
0.9778,2.9455291915244706,2.9455291915244706,2.828431199216226,0.0,0.0,0.0,2.9064965274217225,0.0,0.0,0.0,0.0,0.0,0.0,0.0,0.0,0.0,0.0,0.0,0.0,0.0,0.0,
0.9962,2.9461096641644815,2.9461096641644815,2.828913052053491,0.0,0.0,0.0,2.907044126794151,0.0,0.0,0.0,0.0,0.0,0.0,0.0,0.0,0.0,0.0,0.0,0.0,0.0,0.0,
1.0147,2.9467047242651976,2.9467047242651976,2.8294069755293965,0.0,0.0,0.0,2.9076054746865974,0.0,0.0,0.0,0.0,0.0,0.0,0.0,0.0,0.0,0.0,0.0,0.0,0.0,0.0,
1.0331,2.9473079684821215,2.9473079684821215,2.829907652385395,0.0,0.0,0.0,2.9081745297832122,0.0,0.0,0.0,0.0,0.0,0.0,0.0,0.0,0.0,0.0,0.0,0.0,0.0,0.0,
1.0516,2.9479259844028736,2.9479259844028736,2.830420547851933,0.0,0.0,0.0,2.90875750555256,0.0,0.0,0.0,0.0,0.0,0.0,0.0,0.0,0.0,0.0,0.0,0.0,0.0,0.0,
1.07,2.9485521217713897,2.9485521217713897,2.83094014051059,0.0,0.0,0.0,2.9093481280177897,0.0,0.0,0.0,0.0,0.0,0.0,0.0,0.0,0.0,0.0,0.0,0.0,0.0,0.0,
1.0885,2.9491932182920957,2.9491932182920957,2.8314721021547498,0.0,0.0,0.0,2.909952846246314,0.0,0.0,0.0,0.0,0.0,0.0,0.0,0.0,0.0,0.0,0.0,0.0,0.0,0.0,
1.1069,2.9498423754677576,2.9498423754677576,2.8320107062015603,0.0,0.0,0.0,2.910565152379025,0.0,0.0,0.0,0.0,0.0,0.0,0.0,0.0,0.0,0.0,0.0,0.0,0.0,0.0,
1.1254,2.9505066825163793,2.9505066825163793,2.8325618320603922,0.0,0.0,0.0,2.9111917323643834,0.0,0.0,0.0,0.0,0.0,0.0,0.0,0.0,0.0,0.0,0.0,0.0,0.0,0.0,
1.1438,2.9511789913152993,2.9511789913152993,2.8331195469384296,0.0,0.0,0.0,2.911825843189676,0.0,0.0,0.0,0.0,0.0,0.0,0.0,0.0,0.0,0.0,0.0,0.0,0.0,0.0,
1.1622,2.9518628954362183,2.9518628954362183,2.8336868297095332,0.0,0.0,0.0,2.9124708735273237,0.0,0.0,0.0,0.0,0.0,0.0,0.0,0.0,0.0,0.0,0.0,0.0,0.0,0.0,
1.1807,2.952562241532063,2.952562241532063,2.834266868025245,0.0,0.0,0.0,2.9131304503631235,0.0,0.0,0.0,0.0,0.0,0.0,0.0,0.0,0.0,0.0,0.0,0.0,0.0,0.0,
1.1991,2.953269504666947,2.953269504666947,2.8348534180086835,0.0,0.0,0.0,2.9137974757808593,0.0,0.0,0.0,0.0,0.0,0.0,0.0,0.0,0.0,0.0,0.0,0.0,0.0,0.0,
1.2176,2.953992408983077,2.953992408983077,2.8354528827115337,0.0,0.0,0.0,2.9144792335592293,0.0,0.0,0.0,0.0,0.0,0.0,0.0,0.0,0.0,0.0,0.0,0.0,0.0,0.0,
1.236,2.9547231762153525,2.9547231762153525,2.8360588092512993,0.0,0.0,0.0,2.9151683872273346,0.0,0.0,0.0,0.0,0.0,0.0,0.0,0.0,0.0,0.0,0.0,0.0,0.0,0.0,
1.2545,2.955469787361288,2.955469787361288,2.8366778123194774,0.0,0.0,0.0,2.9158724623473513,0.0,0.0,0.0,0.0,0.0,0.0,0.0,0.0,0.0,0.0,0.0,0.0,0.0,0.0,
1.2729,2.956224209243867,2.956224209243867,2.837303228834152,0.0,0.0,0.0,2.9165838824406287,0.0,0.0,0.0,0.0,0.0,0.0,0.0,0.0,0.0,0.0,0.0,0.0,0.0,0.0,
1.2914,2.956994681376824,2.956994681376824,2.8379418863766235,0.0,0.0,0.0,2.9173104163767576,0.0,0.0,0.0,0.0,0.0,0.0,0.0,0.0,0.0,0.0,0.0,0.0,0.0,0.0,
1.3098,2.957772914029478,2.957772914029478,2.8385869104277806,0.0,0.0,0.0,2.918044246162246,0.0,0.0,0.0,0.0,0.0,0.0,0.0,0.0,0.0,0.0,0.0,0.0,0.0,0.0,
1.3283,2.958567406954466,2.958567406954466,2.839245342754538,0.0,0.0,0.0,2.91879338555449,0.0,0.0,0.0,0.0,0.0,0.0,0.0,0.0,0.0,0.0,0.0,0.0,0.0,0.0,
1.3467,2.959369612165772,2.959369612165772,2.8399100961181234,0.0,0.0,0.0,2.9195497734832223,0.0,0.0,0.0,0.0,0.0,0.0,0.0,0.0,0.0,0.0,0.0,0.0,0.0,0.0,
1.3652,2.9601882914401285,2.9601882914401285,2.840588427813445,0.0,0.0,0.0,2.920321670231234,0.0,0.0,0.0,0.0,0.0,0.0,0.0,0.0,0.0,0.0,0.0,0.0,0.0,0.0,
1.3836,2.961014636773591,2.961014636773591,2.8412730365541865,0.0,0.0,0.0,2.921100770033789,0.0,0.0,0.0,0.0,0.0,0.0,0.0,0.0,0.0,0.0,0.0,0.0,0.0,0.0,
1.4021,2.961857673816219,2.961857673816219,2.841971396553056,0.0,0.0,0.0,2.9218955813951646,0.0,0.0,0.0,0.0,0.0,0.0,0.0,0.0,0.0,0.0,0.0,0.0,0.0,0.0,
1.4205,2.962708332721175,2.962708332721175,2.842675991102131,0.0,0.0,0.0,2.922697552181494,0.0,0.0,0.0,0.0,0.0,0.0,0.0,0.0,0.0,0.0,0.0,0.0,0.0,0.0,
1.439,2.9635759049262864,2.9635759049262864,2.84339451276997,0.0,0.0,0.0,2.9235154408741812,0.0,0.0,0.0,0.0,0.0,0.0,0.0,0.0,0.0,0.0,0.0,0.0,0.0,0.0,
1.4574,2.9644510568535862,2.9644510568535862,2.8441192280058525,0.0,0.0,0.0,2.9243404472376753,0.0,0.0,0.0,0.0,0.0,0.0,0.0,0.0,0.0,0.0,0.0,0.0,0.0,0.0,
1.4759,2.9653433477095232,2.9653433477095232,2.844858049221508,0.0,0.0,0.0,2.925181581546852,0.0,0.0,0.0,0.0,0.0,0.0,0.0,0.0,0.0,0.0,0.0,0.0,0.0,0.0,
1.4943,2.9662431782320877,2.9662431782320877,2.845603024554322,0.0,0.0,0.0,2.926029793672832,0.0,0.0,0.0,0.0,0.0,0.0,0.0,0.0,0.0,0.0,0.0,0.0,0.0,0.0,
1.5128,2.9671603774451274,2.9671603774451274,2.846362287796636,0.0,0.0,0.0,2.9268943475622966,0.0,0.0,0.0,0.0,0.0,0.0,0.0,0.0,0.0,0.0,0.0,0.0,0.0,0.0,
1.5312,2.9680850783837105,2.9680850783837105,2.847127667256002,0.0,0.0,0.0,2.927765941341141,0.0,0.0,0.0,0.0,0.0,0.0,0.0,0.0,0.0,0.0,0.0,0.0,0.0,0.0,
1.5497,2.9690273820070745,2.9690273820070745,2.8479075196938726,0.0,0.0,0.0,2.9286540945693407,0.0,0.0,0.0,0.0,0.0,0.0,0.0,0.0,0.0,0.0,0.0,0.0,0.0,0.0,
1.5681,2.9699771515613502,2.9699771515613502,2.848693452020309,0.0,0.0,0.0,2.9295492517143367,0.0,0.0,0.0,0.0,0.0,0.0,0.0,0.0,0.0,0.0,0.0,0.0,0.0,0.0,
1.5866,2.970944762129795,2.970944762129795,2.849494045606612,0.0,0.0,0.0,2.9304611899554005,0.0,0.0,0.0,0.0,0.0,0.0,0.0,0.0,0.0,0.0,0.0,0.0,0.0,0.0,
1.605,2.971919805014837,2.971919805014837,2.850300684346856,0.0,0.0,0.0,2.9313800981255103,0.0,0.0,0.0,0.0,0.0,0.0,0.0,0.0,0.0,0.0,0.0,0.0,0.0,0.0,
1.6235,2.9729129316847613,2.9729129316847613,2.851122175916099,0.0,0.0,0.0,2.9323160130952073,0.0,0.0,0.0,0.0,0.0,0.0,0.0,0.0,0.0,0.0,0.0,0.0,0.0,0.0,
1.6419,2.973913459273417,2.973913459273417,2.851949679522214,0.0,0.0,0.0,2.933258866023016,0.0,0.0,0.0,0.0,0.0,0.0,0.0,0.0,0.0,0.0,0.0,0.0,0.0,0.0,
1.6604,2.9749323179689418,2.9749323179689418,2.8527922308922937,0.0,0.0,0.0,2.9342189556100586,0.0,0.0,0.0,0.0,0.0,0.0,0.0,0.0,0.0,0.0,0.0,0.0,0.0,0.0,
1.6788,2.975958548440054,2.975958548440054,2.853640762824904,0.0,0.0,0.0,2.935185953235004,0.0,0.0,0.0,0.0,0.0,0.0,0.0,0.0,0.0,0.0,0.0,0.0,0.0,0.0,
1.6973,2.977003362005094,2.977003362005094,2.8545045409029486,0.0,0.0,0.0,2.936170421637712,0.0,0.0,0.0,0.0,0.0,0.0,0.0,0.0,0.0,0.0,0.0,0.0,0.0,0.0,
1.7157,2.978055520497932,2.978055520497932,2.855374269738668,0.0,0.0,0.0,2.937161770244844,0.0,0.0,0.0,0.0,0.0,0.0,0.0,0.0,0.0,0.0,0.0,0.0,0.0,0.0,
1.7342,2.979126518854716,2.979126518854716,2.8562594466312605,0.0,0.0,0.0,2.9381708281135643,0.0,0.0,0.0,0.0,0.0,0.0,0.0,0.0,0.0,0.0,0.0,0.0,0.0,0.0,
1.7526,2.9802048376298336,2.9802048376298336,2.8571505461745073,0.0,0.0,0.0,2.9391867404780583,0.0,0.0,0.0,0.0,0.0,0.0,0.0,0.0,0.0,0.0,0.0,0.0,0.0,0.0,
1.771,2.9812962901433053,2.9812962901433053,2.858052368713655,0.0,0.0,0.0,2.940214983000088,0.0,0.0,0.0,0.0,0.0,0.0,0.0,0.0,0.0,0.0,0.0,0.0,0.0,0.0,
1.7895,2.982406976550706,2.982406976550706,2.858969948701611,0.0,0.0,0.0,2.941261300601008,0.0,0.0,0.0,0.0,0.0,0.0,0.0,0.0,0.0,0.0,0.0,0.0,0.0,0.0,
1.8079,2.983524951123404,2.983524951123404,2.859893412462635,0.0,0.0,0.0,2.942314438236481,0.0,0.0,0.0,0.0,0.0,0.0,0.0,0.0,0.0,0.0,0.0,0.0,0.0,0.0,
1.8264,2.9846624288541377,2.9846624288541377,2.8608328447878426,0.0,0.0,0.0,2.9433859008320393,0.0,0.0,0.0,0.0,0.0,0.0,0.0,0.0,0.0,0.0,0.0,0.0,0.0,0.0,
1.8448,2.9858071762877394,2.9858071762877394,2.861778137156411,0.0,0.0,0.0,2.9444641632439628,0.0,0.0,0.0,0.0,0.0,0.0,0.0,0.0,0.0,0.0,0.0,0.0,0.0,0.0,
1.8633,2.9869717013731023,2.9869717013731023,2.862739613049781,0.0,0.0,0.0,2.9455610052653287,0.0,0.0,0.0,0.0,0.0,0.0,0.0,0.0,0.0,0.0,0.0,0.0,0.0,0.0,
1.8817,2.988143480207843,2.988143480207843,2.863706927067451,0.0,0.0,0.0,2.946664629161045,0.0,0.0,0.0,0.0,0.0,0.0,0.0,0.0,0.0,0.0,0.0,0.0,0.0,0.0,
1.9002,2.989335316555792,2.989335316555792,2.86469064351306,0.0,0.0,0.0,2.9477870922082148,0.0,0.0,0.0,0.0,0.0,0.0,0.0,0.0,0.0,0.0,0.0,0.0,0.0,0.0,
1.9186,2.9905343932635966,2.9905343932635966,2.865680178010939,0.0,0.0,0.0,2.9489163215127108,0.0,0.0,0.0,0.0,0.0,0.0,0.0,0.0,0.0,0.0,0.0,0.0,0.0,0.0,
1.9371,2.991753812857064,2.991753812857064,2.8666863378831975,0.0,0.0,0.0,2.950064654532442,0.0,0.0,0.0,0.0,0.0,0.0,0.0,0.0,0.0,0.0,0.0,0.0,0.0,0.0,
1.9555,2.9929804620427634,2.9929804620427634,2.8676982976211223,0.0,0.0,0.0,2.951219740568883,0.0,0.0,0.0,0.0,0.0,0.0,0.0,0.0,0.0,0.0,0.0,0.0,0.0,0.0,
1.974,2.9942277451461106,2.9942277451461106,2.8687271098273617,0.0,0.0,0.0,2.9523942000398606,0.0,0.0,0.0,0.0,0.0,0.0,0.0,0.0,0.0,0.0,0.0,0.0,0.0,0.0,
1.9924,2.9954822497571136,2.9954822497571136,2.8697617056386444,0.0,0.0,0.0,2.953575401717624,0.0,0.0,0.0,0.0,0.0,0.0,0.0,0.0,0.0,0.0,0.0,0.0,0.0,0.0,
2.0109,2.996757685131212,2.996757685131212,2.8708133852677165,0.0,0.0,0.0,2.95477625184338,0.0,0.0,0.0,0.0,0.0,0.0,0.0,0.0,0.0,0.0,0.0,0.0,0.0,0.0,
2.0293,2.9980403366758157,2.9980403366758157,2.871870834209842,0.0,0.0,0.0,2.9559838358538246,0.0,0.0,0.0,0.0,0.0,0.0,0.0,0.0,0.0,0.0,0.0,0.0,0.0,0.0,
2.0478,2.999344221802187,2.999344221802187,2.8729456026866154,0.0,0.0,0.0,2.957211348763663,0.0,0.0,0.0,0.0,0.0,0.0,0.0,0.0,0.0,0.0,0.0,0.0,0.0,0.0,
2.0662,3.000655320577115,3.000655320577115,2.8740261281979973,0.0,0.0,0.0,2.9584455897840756,0.0,0.0,0.0,0.0,0.0,0.0,0.0,0.0,0.0,0.0,0.0,0.0,0.0,0.0,
2.0847,3.0019879618914183,3.0019879618914183,2.8751242134441872,0.0,0.0,0.0,2.9597000457423412,0.0,0.0,0.0,0.0,0.0,0.0,0.0,0.0,0.0,0.0,0.0,0.0,0.0,0.0,
2.1031,3.0033278172188727,3.0033278172188727,2.8762280455074465,0.0,0.0,0.0,2.960961226648397,0.0,0.0,0.0,0.0,0.0,0.0,0.0,0.0,0.0,0.0,0.0,0.0,0.0,0.0,
2.1216,3.004689530354193,3.004689530354193,2.8773496821091267,0.0,0.0,0.0,2.962242914272504,0.0,0.0,0.0,0.0,0.0,0.0,0.0,0.0,0.0,0.0,0.0,0.0,0.0,0.0,
2.14,3.0060584608288736,3.0060584608288736,2.8784770574209535,0.0,0.0,0.0,2.963531326359567,0.0,0.0,0.0,0.0,0.0,0.0,0.0,0.0,0.0,0.0,0.0,0.0,0.0,0.0,
2.1585,3.007449570869299,3.007449570869299,2.8796224868027274,0.0,0.0,0.0,2.9648405428471087,0.0,0.0,0.0,0.0,0.0,0.0,0.0,0.0,0.0,0.0,0.0,0.0,0.0,0.0,
2.1769,3.008847904615948,3.008847904615948,2.8807736489508096,0.0,0.0,0.0,2.966156486060902,0.0,0.0,0.0,0.0,0.0,0.0,0.0,0.0,0.0,0.0,0.0,0.0,0.0,0.0,
2.1954,3.010268746360917,3.010268746360917,2.8819431195574037,0.0,0.0,0.0,2.9674935374264124,0.0,0.0,0.0,0.0,0.0,0.0,0.0,0.0,0.0,0.0,0.0,0.0,0.0,0.0,
2.2138,3.0116968213026305,3.0116968213026305,2.8831183192045344,0.0,0.0,0.0,2.968837320603265,0.0,0.0,0.0,0.0,0.0,0.0,0.0,0.0,0.0,0.0,0.0,0.0,0.0,0.0,
2.2323,3.0131477395424526,3.0131477395424526,2.884312086689722,0.0,0.0,0.0,2.9702025219248758,0.0,0.0,0.0,0.0,0.0,0.0,0.0,0.0,0.0,0.0,0.0,0.0,0.0,0.0,
2.2507,3.0146059036806565,3.0146059036806565,2.885511581765681,0.0,0.0,0.0,2.9715744630423315,0.0,0.0,0.0,0.0,0.0,0.0,0.0,0.0,0.0,0.0,0.0,0.0,0.0,0.0,
2.2692,3.016087253483809,3.016087253483809,2.8867299091890786,0.0,0.0,0.0,2.972968138718899,0.0,0.0,0.0,0.0,0.0,0.0,0.0,0.0,0.0,0.0,0.0,0.0,0.0,0.0,
2.2876,3.01757586518995,3.01757586518995,2.8879539650903783,0.0,0.0,0.0,2.9743685651567593,0.0,0.0,0.0,0.0,0.0,0.0,0.0,0.0,0.0,0.0,0.0,0.0,0.0,0.0,
2.3061,3.01908801220282,3.01908801220282,2.889197123122485,0.0,0.0,0.0,2.975791049176042,0.0,0.0,0.0,0.0,0.0,0.0,0.0,0.0,0.0,0.0,0.0,0.0,0.0,0.0,
2.3245,3.020607440522833,3.020607440522833,2.8904460129204987,0.0,0.0,0.0,2.9772202979887212,0.0,0.0,0.0,0.0,0.0,0.0,0.0,0.0,0.0,0.0,0.0,0.0,0.0,0.0,
2.3429,3.0221423766933433,3.0221423766933433,2.8917073904958204,0.0,0.0,0.0,2.9786640479608355,0.0,0.0,0.0,0.0,0.0,0.0,0.0,0.0,0.0,0.0,0.0,0.0,0.0,0.0,
2.3614,3.0237013862540043,3.0237013862540043,2.8929882847141215,0.0,0.0,0.0,2.9801303524073766,0.0,0.0,0.0,0.0,0.0,0.0,0.0,0.0,0.0,0.0,0.0,0.0,0.0,0.0,
2.3798,3.025267712790046,3.025267712790046,2.894274920268761,0.0,0.0,0.0,2.981603448616285,0.0,0.0,0.0,0.0,0.0,0.0,0.0,0.0,0.0,0.0,0.0,0.0,0.0,0.0,
2.3983,3.026858481498096,3.026858481498096,2.895581356094067,0.0,0.0,0.0,2.983099439696753,0.0,0.0,0.0,0.0,0.0,0.0,0.0,0.0,0.0,0.0,0.0,0.0,0.0,0.0,
