energies(eV),real_xx,real_yy,real_zz,real_xy,real_yz,real_xz,real_ave,imag_xx,imag_yy,imag_zz,imag_xy,imag_yz,imag_xz,imag_ave,absorption_xx,absorption_yy,absorption_zz,absorption_xy,absorption_yz,absorption_xz,absorption_ave,band_gap
0.0,2.4754993884099004,2.4947223044799207,2.526623991833305,0.0,0.0,0.0,2.4989485615743754,0.0,0.0,0.0,0.0,0.0,0.0,0.0,0.0,0.0,0.0,0.0,0.0,0.0,0.0,6.6333
0.0149,2.475501287831021,2.4947242574731043,2.526626040378307,0.0,0.0,0.0,2.498950528560811,0.0,0.0,0.0,0.0,0.0,0.0,0.0,0.0,0.0,0.0,0.0,0.0,0.0,0.0,
0.0299,2.4755070372147783,2.4947301690150643,2.5266322411474023,0.0,0.0,0.0,2.4989564824590818,0.0,0.0,0.0,0.0,0.0,0.0,0.0,0.0,0.0,0.0,0.0,0.0,0.0,0.0,
0.0448,2.475516560032828,2.4947399604195017,2.526642511604394,0.0,0.0,0.0,2.4989663440189074,0.0,0.0,0.0,0.0,0.0,0.0,0.0,0.0,0.0,0.0,0.0,0.0,0.0,0.0,
0.0598,2.475529984327108,2.494753763340527,2.526656989844578,0.0,0.0,0.0,2.498980245837404,0.0,0.0,0.0,0.0,0.0,0.0,0.0,0.0,0.0,0.0,0.0,0.0,0.0,0.0,
0.0747,2.475547131410811,2.494771394052683,2.526675483153413,0.0,0.0,0.0,2.4989980028723022,0.0,0.0,0.0,0.0,0.0,0.0,0.0,0.0,0.0,0.0,0.0,0.0,0.0,0.0,
0.0897,2.475568231840273,2.4947930896165844,2.526698240189672,0.0,0.0,0.0,2.4990198538821766,0.0,0.0,0.0,0.0,0.0,0.0,0.0,0.0,0.0,0.0,0.0,0.0,0.0,0.0,
0.1046,2.4755930047540025,2.494818561250862,2.5267249580428732,0.0,0.0,0.0,2.4990455080159126,0.0,0.0,0.0,0.0,0.0,0.0,0.0,0.0,0.0,0.0,0.0,0.0,0.0,0.0,
0.1195,2.4756215786309648,2.494847941060306,2.5267557752808285,0.0,0.0,0.0,2.4990750983240333,0.0,0.0,0.0,0.0,0.0,0.0,0.0,0.0,0.0,0.0,0.0,0.0,0.0,0.0,
0.1345,2.4756541842481683,2.4948814663335614,2.526790940801334,0.0,0.0,0.0,2.4991088637943544,0.0,0.0,0.0,0.0,0.0,0.0,0.0,0.0,0.0,0.0,0.0,0.0,0.0,0.0,
0.1494,2.475690387602258,2.4949186908288032,2.5268299865294352,0.0,0.0,0.0,2.499146354986832,0.0,0.0,0.0,0.0,0.0,0.0,0.0,0.0,0.0,0.0,0.0,0.0,0.0,0.0,
0.1644,2.475730675476969,2.4949601150629395,2.52687343746972,0.0,0.0,0.0,2.4991880760032097,0.0,0.0,0.0,0.0,0.0,0.0,0.0,0.0,0.0,0.0,0.0,0.0,0.0,0.0,
0.1793,2.4757745116130616,2.495005187654436,2.526920715263447,0.0,0.0,0.0,2.499233471510315,0.0,0.0,0.0,0.0,0.0,0.0,0.0,0.0,0.0,0.0,0.0,0.0,0.0,0.0,
0.1942,2.475822152827118,2.4950541726673414,2.526972096893558,0.0,0.0,0.0,2.4992828074626723,0.0,0.0,0.0,0.0,0.0,0.0,0.0,0.0,0.0,0.0,0.0,0.0,0.0,0.0,
0.2092,2.4758739583447293,2.4951074394640296,2.5270279697930382,0.0,0.0,0.0,2.4993364558672657,0.0,0.0,0.0,0.0,0.0,0.0,0.0,0.0,0.0,0.0,0.0,0.0,0.0,0.0,
0.2241,2.475929238599623,2.4951642790320276,2.527087590259942,0.0,0.0,0.0,2.499393702630531,0.0,0.0,0.0,0.0,0.0,0.0,0.0,0.0,0.0,0.0,0.0,0.0,0.0,0.0,
0.2391,2.4759887368813533,2.4952254556319,2.5271517599458195,0.0,0.0,0.0,2.499455317486358,0.0,0.0,0.0,0.0,0.0,0.0,0.0,0.0,0.0,0.0,0.0,0.0,0.0,0.0,
0.254,2.476051661228425,2.4952901549676754,2.5272196247141787,0.0,0.0,0.0,2.4995204803034263,0.0,0.0,0.0,0.0,0.0,0.0,0.0,0.0,0.0,0.0,0.0,0.0,0.0,0.0,
0.269,2.476118857712379,2.4953592469825407,2.5272920970694948,0.0,0.0,0.0,2.499590067254805,0.0,0.0,0.0,0.0,0.0,0.0,0.0,0.0,0.0,0.0,0.0,0.0,0.0,0.0,
0.2839,2.4761894319043947,2.495431812022611,2.527368212362679,0.0,0.0,0.0,2.4996631520965615,0.0,0.0,0.0,0.0,0.0,0.0,0.0,0.0,0.0,0.0,0.0,0.0,0.0,0.0,
0.2988,2.476263820592722,2.4955082992032462,2.5274484416811243,0.0,0.0,0.0,2.499740187159031,0.0,0.0,0.0,0.0,0.0,0.0,0.0,0.0,0.0,0.0,0.0,0.0,0.0,0.0,
0.3138,2.4763425632285383,2.495589263200192,2.527533366836951,0.0,0.0,0.0,2.4998217310885607,0.0,0.0,0.0,0.0,0.0,0.0,0.0,0.0,0.0,0.0,0.0,0.0,0.0,0.0,
0.3287,2.476424611697923,2.4956736263384713,2.5276218574287714,0.0,0.0,0.0,2.4999066984883886,0.0,0.0,0.0,0.0,0.0,0.0,0.0,0.0,0.0,0.0,0.0,0.0,0.0,0.0,
0.3437,2.476511069215543,2.495762522962533,2.527715103297396,0.0,0.0,0.0,2.499996231825157,0.0,0.0,0.0,0.0,0.0,0.0,0.0,0.0,0.0,0.0,0.0,0.0,0.0,0.0,
0.3586,2.4766007849789844,2.4958547698112126,2.527811863289541,0.0,0.0,0.0,2.5000891393599125,0.0,0.0,0.0,0.0,0.0,0.0,0.0,0.0,0.0,0.0,0.0,0.0,0.0,0.0,
0.3736,2.4766949652980204,2.4959516072347165,2.527913438437637,0.0,0.0,0.0,2.500186670323458,0.0,0.0,0.0,0.0,0.0,0.0,0.0,0.0,0.0,0.0,0.0,0.0,0.0,0.0,
0.3885,2.4767923565766745,2.4960517462773035,2.5280184767228655,0.0,0.0,0.0,2.5002875265256144,0.0,0.0,0.0,0.0,0.0,0.0,0.0,0.0,0.0,0.0,0.0,0.0,0.0,0.0,
0.4034,2.4768935760676625,2.496155821614178,2.528127643869975,0.0,0.0,0.0,2.5003923471839387,0.0,0.0,0.0,0.0,0.0,0.0,0.0,0.0,0.0,0.0,0.0,0.0,0.0,0.0,
0.4184,2.476999344056496,2.4962645738625504,2.528241716728499,0.0,0.0,0.0,2.500501878215849,0.0,0.0,0.0,0.0,0.0,0.0,0.0,0.0,0.0,0.0,0.0,0.0,0.0,0.0,
0.4333,2.4771082527115507,2.4963765554774557,2.528359176931692,0.0,0.0,0.0,2.5006146617068996,0.0,0.0,0.0,0.0,0.0,0.0,0.0,0.0,0.0,0.0,0.0,0.0,0.0,0.0,
0.4483,2.477221766413853,2.496493272168055,2.5284816038520592,0.0,0.0,0.0,2.5007322141446555,0.0,0.0,0.0,0.0,0.0,0.0,0.0,0.0,0.0,0.0,0.0,0.0,0.0,0.0,
0.4632,2.47733837423441,2.4966131703812664,2.528607367928676,0.0,0.0,0.0,2.5008529708481175,0.0,0.0,0.0,0.0,0.0,0.0,0.0,0.0,0.0,0.0,0.0,0.0,0.0,0.0,
0.4781,2.477458822719661,2.4967370177380737,2.528737274335316,0.0,0.0,0.0,2.500977704931017,0.0,0.0,0.0,0.0,0.0,0.0,0.0,0.0,0.0,0.0,0.0,0.0,0.0,0.0,
0.4931,2.477583961784609,2.4968656881479285,2.528872239733654,0.0,0.0,0.0,2.5011072965553973,0.0,0.0,0.0,0.0,0.0,0.0,0.0,0.0,0.0,0.0,0.0,0.0,0.0,0.0,
0.508,2.4777121257647665,2.496997468952716,2.5290104676741496,0.0,0.0,0.0,2.5012400207972108,0.0,0.0,0.0,0.0,0.0,0.0,0.0,0.0,0.0,0.0,0.0,0.0,0.0,0.0,
0.523,2.477845037955081,2.497134132090035,2.5291538167805836,0.0,0.0,0.0,2.501377662275233,0.0,0.0,0.0,0.0,0.0,0.0,0.0,0.0,0.0,0.0,0.0,0.0,0.0,0.0,
0.5379,2.4779809292301884,2.4972738585186,2.5293003790159903,0.0,0.0,0.0,2.501518388921593,0.0,0.0,0.0,0.0,0.0,0.0,0.0,0.0,0.0,0.0,0.0,0.0,0.0,0.0,
0.5529,2.4781216267899895,2.497418527017304,2.5294521250714768,0.0,0.0,0.0,2.50166409295959,0.0,0.0,0.0,0.0,0.0,0.0,0.0,0.0,0.0,0.0,0.0,0.0,0.0,0.0,
0.5678,2.478265257885887,2.4975662119941457,2.529607035147071,0.0,0.0,0.0,2.501812835009035,0.0,0.0,0.0,0.0,0.0,0.0,0.0,0.0,0.0,0.0,0.0,0.0,0.0,0.0,
0.5827,2.478412750852255,2.4977178679954095,2.5297661104848244,0.0,0.0,0.0,2.501965576444163,0.0,0.0,0.0,0.0,0.0,0.0,0.0,0.0,0.0,0.0,0.0,0.0,0.0,0.0,
0.5977,2.478565137963829,2.4978745564459075,2.529930464433024,0.0,0.0,0.0,2.50212338628092,0.0,0.0,0.0,0.0,0.0,0.0,0.0,0.0,0.0,0.0,0.0,0.0,0.0,0.0,
0.6126,2.478720390885382,2.4980341917702615,2.5300979093823996,0.0,0.0,0.0,2.5022841640126807,0.0,0.0,0.0,0.0,0.0,0.0,0.0,0.0,0.0,0.0,0.0,0.0,0.0,0.0,
0.6276,2.4788805971657473,2.4981989204564616,2.530270696826973,0.0,0.0,0.0,2.5024500714830604,0.0,0.0,0.0,0.0,0.0,0.0,0.0,0.0,0.0,0.0,0.0,0.0,0.0,0.0,
0.6425,2.4790436243982743,2.498366549915981,2.530446526909759,0.0,0.0,0.0,2.5026189004080046,0.0,0.0,0.0,0.0,0.0,0.0,0.0,0.0,0.0,0.0,0.0,0.0,0.0,0.0,
0.6575,2.4792116646713334,2.4985393341328423,2.5306277638781327,0.0,0.0,0.0,2.502792920894103,0.0,0.0,0.0,0.0,0.0,0.0,0.0,0.0,0.0,0.0,0.0,0.0,0.0,0.0,
0.6724,2.4793824813103362,2.4987149733025182,2.530811995414842,0.0,0.0,0.0,2.5029698166758987,0.0,0.0,0.0,0.0,0.0,0.0,0.0,0.0,0.0,0.0,0.0,0.0,0.0,0.0,
0.6873,2.479557185493582,2.4988946099861717,2.531000419971758,0.0,0.0,0.0,2.5031507384838374,0.0,0.0,0.0,0.0,0.0,0.0,0.0,0.0,0.0,0.0,0.0,0.0,0.0,0.0,
0.7023,2.479736993032101,2.4990794943377113,2.531194348855383,0.0,0.0,0.0,2.5033369454083982,0.0,0.0,0.0,0.0,0.0,0.0,0.0,0.0,0.0,0.0,0.0,0.0,0.0,0.0,
0.7172,2.47991951063418,2.4992671655060477,2.5313912008249173,0.0,0.0,0.0,2.503525958988382,0.0,0.0,0.0,0.0,0.0,0.0,0.0,0.0,0.0,0.0,0.0,0.0,0.0,0.0,
0.7322,2.480107192474589,2.499460146976852,2.5315936228087477,0.0,0.0,0.0,2.5037203207533962,0.0,0.0,0.0,0.0,0.0,0.0,0.0,0.0,0.0,0.0,0.0,0.0,0.0,0.0,
0.7471,2.480297540459182,2.499655870131539,2.5317989205278915,0.0,0.0,0.0,2.503917443706204,0.0,0.0,0.0,0.0,0.0,0.0,0.0,0.0,0.0,0.0,0.0,0.0,0.0,0.0,
0.7621,2.480493114059132,2.4998569667326875,2.5320098544821494,0.0,0.0,0.0,2.504119978424656,0.0,0.0,0.0,0.0,0.0,0.0,0.0,0.0,0.0,0.0,0.0,0.0,0.0,0.0,
0.777,2.4806913101463928,2.5000607601554288,2.5322236171041066,0.0,0.0,0.0,2.5043252291353095,0.0,0.0,0.0,0.0,0.0,0.0,0.0,0.0,0.0,0.0,0.0,0.0,0.0,0.0,
0.7919,2.480893424013132,2.5002685822858606,2.532441605427805,0.0,0.0,0.0,2.504534537242266,0.0,0.0,0.0,0.0,0.0,0.0,0.0,0.0,0.0,0.0,0.0,0.0,0.0,0.0,
0.8069,2.481100856399548,2.500481873444006,2.532665330223145,0.0,0.0,0.0,2.504749353355566,0.0,0.0,0.0,0.0,0.0,0.0,0.0,0.0,0.0,0.0,0.0,0.0,0.0,0.0,
0.8218,2.4813108463470304,2.5006977947064017,2.532891813687257,0.0,0.0,0.0,2.504966818246896,0.0,0.0,0.0,0.0,0.0,0.0,0.0,0.0,0.0,0.0,0.0,0.0,0.0,0.0,
0.8368,2.4815262174593875,2.5009192494482813,2.5331241012123504,0.0,0.0,0.0,2.505189856040006,0.0,0.0,0.0,0.0,0.0,0.0,0.0,0.0,0.0,0.0,0.0,0.0,0.0,0.0,
0.8517,2.481744103121397,2.5011432900974593,2.5333591010339913,0.0,0.0,0.0,2.5054154980842824,0.0,0.0,0.0,0.0,0.0,0.0,0.0,0.0,0.0,0.0,0.0,0.0,0.0,0.0,
0.8666,2.4819659310080926,2.501371384672689,2.5335983529738737,0.0,0.0,0.0,2.505645222884885,0.0,0.0,0.0,0.0,0.0,0.0,0.0,0.0,0.0,0.0,0.0,0.0,0.0,0.0,
0.8816,2.482193234901704,2.5016051103067527,2.5338435113018276,0.0,0.0,0.0,2.5058806188367613,0.0,0.0,0.0,0.0,0.0,0.0,0.0,0.0,0.0,0.0,0.0,0.0,0.0,0.0,
0.8965,2.4824229893754026,2.5018413561167057,2.5340913129575813,0.0,0.0,0.0,2.506118552816563,0.0,0.0,0.0,0.0,0.0,0.0,0.0,0.0,0.0,0.0,0.0,0.0,0.0,0.0,
0.9115,2.4826582838201507,2.5020832987971904,2.5343450900133577,0.0,0.0,0.0,2.506362224210233,0.0,0.0,0.0,0.0,0.0,0.0,0.0,0.0,0.0,0.0,0.0,0.0,0.0,0.0,
0.9264,2.4828959864653988,2.5023277181076677,2.5346014647047395,0.0,0.0,0.0,2.5066083897592684,0.0,0.0,0.0,0.0,0.0,0.0,0.0,0.0,0.0,0.0,0.0,0.0,0.0,0.0,
0.9414,2.4831392935885663,2.502577900659908,2.534863884393289,0.0,0.0,0.0,2.5068603595472543,0.0,0.0,0.0,0.0,0.0,0.0,0.0,0.0,0.0,0.0,0.0,0.0,0.0,0.0,
0.9563,2.483384966782035,2.502830516553179,2.535128856293467,0.0,0.0,0.0,2.5071147798762268,0.0,0.0,0.0,0.0,0.0,0.0,0.0,0.0,0.0,0.0,0.0,0.0,0.0,0.0,
0.9712,2.483634620522922,2.503087225904215,2.5353981217132286,0.0,0.0,0.0,2.5073733227134554,0.0,0.0,0.0,0.0,0.0,0.0,0.0,0.0,0.0,0.0,0.0,0.0,0.0,0.0,
0.9862,2.4838899764290647,2.503349799009773,2.535673537525038,0.0,0.0,0.0,2.5076377709879583,0.0,0.0,0.0,0.0,0.0,0.0,0.0,0.0,0.0,0.0,0.0,0.0,0.0,0.0,
1.0011,2.484147635743338,2.5036147410718863,2.5359514379857644,0.0,0.0,0.0,2.5079046049336626,0.0,0.0,0.0,0.0,0.0,0.0,0.0,0.0,0.0,0.0,0.0,0.0,0.0,0.0,
1.0161,2.484411063124216,2.50388561469729,2.536235559938649,0.0,0.0,0.0,2.508177412586718,0.0,0.0,0.0,0.0,0.0,0.0,0.0,0.0,0.0,0.0,0.0,0.0,0.0,0.0,
1.031,2.4846767523980335,2.5041588146237226,2.5365221217773284,0.0,0.0,0.0,2.508452562933028,0.0,0.0,0.0,0.0,0.0,0.0,0.0,0.0,0.0,0.0,0.0,0.0,0.0,0.0,
1.046,2.4849482762138746,2.5044380145139318,2.536814976826749,0.0,0.0,0.0,2.508733755851518,0.0,0.0,0.0,0.0,0.0,0.0,0.0,0.0,0.0,0.0,0.0,0.0,0.0,0.0,
1.0609,2.485222020650677,2.504719498300065,2.537110227259924,0.0,0.0,0.0,2.5090172487368885,0.0,0.0,0.0,0.0,0.0,0.0,0.0,0.0,0.0,0.0,0.0,0.0,0.0,0.0,
1.0758,2.485499788864182,2.505005120132272,2.537409817897318,0.0,0.0,0.0,2.5093049089645905,0.0,0.0,0.0,0.0,0.0,0.0,0.0,0.0,0.0,0.0,0.0,0.0,0.0,0.0,
1.0908,2.4857834923167017,2.5052968455431666,2.5377158103828217,0.0,0.0,0.0,2.509598716080897,0.0,0.0,0.0,0.0,0.0,0.0,0.0,0.0,0.0,0.0,0.0,0.0,0.0,0.0,
1.1057,2.4860693550030066,2.5055907917783866,2.5380241320581316,0.0,0.0,0.0,2.509894759613175,0.0,0.0,0.0,0.0,0.0,0.0,0.0,0.0,0.0,0.0,0.0,0.0,0.0,0.0,
1.1207,2.486361220879439,2.5058909115136414,2.5383389288893037,0.0,0.0,0.0,2.5101970204274613,0.0,0.0,0.0,0.0,0.0,0.0,0.0,0.0,0.0,0.0,0.0,0.0,0.0,0.0,
1.1356,2.4866552053186046,2.5061932102867335,2.538656011052728,0.0,0.0,0.0,2.510501475552689,0.0,0.0,0.0,0.0,0.0,0.0,0.0,0.0,0.0,0.0,0.0,0.0,0.0,0.0,
1.1505,2.4869532474997724,2.5064996821354297,2.5389774700875627,0.0,0.0,0.0,2.5108101332409216,0.0,0.0,0.0,0.0,0.0,0.0,0.0,0.0,0.0,0.0,0.0,0.0,0.0,0.0,
1.1655,2.4872573958248205,2.506812433424722,2.5393055153451645,0.0,0.0,0.0,2.5111251148649023,0.0,0.0,0.0,0.0,0.0,0.0,0.0,0.0,0.0,0.0,0.0,0.0,0.0,0.0,
1.1804,2.487563602219338,2.507127301600219,2.5396357806990197,0.0,0.0,0.0,2.511442228172859,0.0,0.0,0.0,0.0,0.0,0.0,0.0,0.0,0.0,0.0,0.0,0.0,0.0,0.0,
1.1954,2.487875984246266,2.5074485207218533,2.5399727072380074,0.0,0.0,0.0,2.511765737402042,0.0,0.0,0.0,0.0,0.0,0.0,0.0,0.0,0.0,0.0,0.0,0.0,0.0,0.0,
1.2103,2.4881903842642483,2.507771815552964,2.5403118106502873,0.0,0.0,0.0,2.5120913368225,0.0,0.0,0.0,0.0,0.0,0.0,0.0,0.0,0.0,0.0,0.0,0.0,0.0,0.0,
1.2253,2.488511030036598,2.508101533488336,2.540657650891415,0.0,0.0,0.0,2.5124234048054497,0.0,0.0,0.0,0.0,0.0,0.0,0.0,0.0,0.0,0.0,0.0,0.0,0.0,0.0,
1.2402,2.488833653956794,2.508433286198416,2.5410056250344244,0.0,0.0,0.0,2.512757521729878,0.0,0.0,0.0,0.0,0.0,0.0,0.0,0.0,0.0,0.0,0.0,0.0,0.0,0.0,
1.2551,2.489160387652341,2.5087692656417024,2.5413580321990583,0.0,0.0,0.0,2.5130958951643674,0.0,0.0,0.0,0.0,0.0,0.0,0.0,0.0,0.0,0.0,0.0,0.0,0.0,0.0,
1.2701,2.48949347337676,2.5091117775510834,2.5417172908315795,0.0,0.0,0.0,2.513440847253141,0.0,0.0,0.0,0.0,0.0,0.0,0.0,0.0,0.0,0.0,0.0,0.0,0.0,0.0,
1.285,2.4898284779888935,2.5094562633519,2.5420786194488025,0.0,0.0,0.0,2.5137877869298655,0.0,0.0,0.0,0.0,0.0,0.0,0.0,0.0,0.0,0.0,0.0,0.0,0.0,0.0,
1.3,2.490169906381338,2.5098073554555356,2.542446876929632,0.0,0.0,0.0,2.514141379588835,0.0,0.0,0.0,0.0,0.0,0.0,0.0,0.0,0.0,0.0,0.0,0.0,0.0,0.0,
1.3149,2.4905132144017763,2.510160381115712,2.54281716204696,0.0,0.0,0.0,2.5144969191881494,0.0,0.0,0.0,0.0,0.0,0.0,0.0,0.0,0.0,0.0,0.0,0.0,0.0,0.0,
1.3299,2.4908630186256495,2.5105200876072233,2.543194454145402,0.0,0.0,0.0,2.514859186792758,0.0,0.0,0.0,0.0,0.0,0.0,0.0,0.0,0.0,0.0,0.0,0.0,0.0,0.0,
1.3448,2.491214663449919,2.5108816875589843,2.5435737317797473,0.0,0.0,0.0,2.5152233609295505,0.0,0.0,0.0,0.0,0.0,0.0,0.0,0.0,0.0,0.0,0.0,0.0,0.0,0.0,
1.3597,2.491570475486414,2.511247573465061,2.543957504385551,0.0,0.0,0.0,2.515591851112342,0.0,0.0,0.0,0.0,0.0,0.0,0.0,0.0,0.0,0.0,0.0,0.0,0.0,0.0,
1.3747,2.4919328935221614,2.511620253191116,2.544348402395544,0.0,0.0,0.0,2.5159671830362735,0.0,0.0,0.0,0.0,0.0,0.0,0.0,0.0,0.0,0.0,0.0,0.0,0.0,0.0,
1.3896,2.4922970941152944,2.511994766745051,2.54474122332248,0.0,0.0,0.0,2.516344361394275,0.0,0.0,0.0,0.0,0.0,0.0,0.0,0.0,0.0,0.0,0.0,0.0,0.0,0.0,
1.4046,2.4926679748595113,2.512376150427726,2.5451412496278283,0.0,0.0,0.0,2.5167284583050216,0.0,0.0,0.0,0.0,0.0,0.0,0.0,0.0,0.0,0.0,0.0,0.0,0.0,0.0,
1.4195,2.4930405997109224,2.5127593284351324,2.545543157364505,0.0,0.0,0.0,2.517114361836853,0.0,0.0,0.0,0.0,0.0,0.0,0.0,0.0,0.0,0.0,0.0,0.0,0.0,0.0,
1.4344,2.4934174362253234,2.5131468382220854,2.5459496079931965,0.0,0.0,0.0,2.5175046274802018,0.0,0.0,0.0,0.0,0.0,0.0,0.0,0.0,0.0,0.0,0.0,0.0,0.0,0.0,
1.4494,2.49380106533273,2.513541333851056,2.54636338526427,0.0,0.0,0.0,2.5179019281493518,0.0,0.0,0.0,0.0,0.0,0.0,0.0,0.0,0.0,0.0,0.0,0.0,0.0,0.0,
1.4643,2.4941863813673617,2.5139375650586837,2.5467789822658693,0.0,0.0,0.0,2.518300976230638,0.0,0.0,0.0,0.0,0.0,0.0,0.0,0.0,0.0,0.0,0.0,0.0,0.0,0.0,
1.4793,2.4945785659511306,2.5143408602747046,2.5472019878204026,0.0,0.0,0.0,2.518707138015413,0.0,0.0,0.0,0.0,0.0,0.0,0.0,0.0,0.0,0.0,0.0,0.0,0.0,0.0,
1.4942,2.4949723995869313,2.514745852156514,2.5476267722308625,0.0,0.0,0.0,2.5191150079914357,0.0,0.0,0.0,0.0,0.0,0.0,0.0,0.0,0.0,0.0,0.0,0.0,0.0,0.0,
1.5092,2.4953731784723603,2.5151579869792897,2.5480590479031493,0.0,0.0,0.0,2.5195300711182664,0.0,0.0,0.0,0.0,0.0,0.0,0.0,0.0,0.0,0.0,0.0,0.0,0.0,0.0,
1.5241,2.495775568764499,2.515571779790888,2.548493061800624,0.0,0.0,0.0,2.5199468034520036,0.0,0.0,0.0,0.0,0.0,0.0,0.0,0.0,0.0,0.0,0.0,0.0,0.0,0.0,
1.539,2.4961822379628957,2.515989973693831,2.548931691044352,0.0,0.0,0.0,2.5203679675670263,0.0,0.0,0.0,0.0,0.0,0.0,0.0,0.0,0.0,0.0,0.0,0.0,0.0,0.0,
1.554,2.496595968755112,2.516415430267906,2.549377936999237,0.0,0.0,0.0,2.5207964453407516,0.0,0.0,0.0,0.0,0.0,0.0,0.0,0.0,0.0,0.0,0.0,0.0,0.0,0.0,
1.5689,2.4970112549793555,2.5168424873213677,2.54982586075706,0.0,0.0,0.0,2.5212265343525946,0.0,0.0,0.0,0.0,0.0,0.0,0.0,0.0,0.0,0.0,0.0,0.0,0.0,0.0,
1.5839,2.4974336814152656,2.5172768879518186,2.5502814859901153,0.0,0.0,0.0,2.5216640184524,0.0,0.0,0.0,0.0,0.0,0.0,0.0,0.0,0.0,0.0,0.0,0.0,0.0,0.0,
1.5988,2.497857626212497,2.5177128509739446,2.5507387490038393,0.0,0.0,0.0,2.5221030753967604,0.0,0.0,0.0,0.0,0.0,0.0,0.0,0.0,0.0,0.0,0.0,0.0,0.0,0.0,
1.6138,2.4982887906305944,2.5181562392932015,2.5512037991046115,0.0,0.0,0.0,2.5225496096761355,0.0,0.0,0.0,0.0,0.0,0.0,0.0,0.0,0.0,0.0,0.0,0.0,0.0,0.0,
1.6287,2.4987214365697676,2.518601152152592,2.551670447207301,0.0,0.0,0.0,2.5229976786432204,0.0,0.0,0.0,0.0,0.0,0.0,0.0,0.0,0.0,0.0,0.0,0.0,0.0,0.0,
1.6436,2.49915843474335,2.5190505416723656,2.5521417896145135,0.0,0.0,0.0,2.5234502553434095,0.0,0.0,0.0,0.0,0.0,0.0,0.0,0.0,0.0,0.0,0.0,0.0,0.0,0.0,
1.6586,2.499602773030942,2.51950748048855,2.5526210490023677,0.0,0.0,0.0,2.523910434173953,0.0,0.0,0.0,0.0,0.0,0.0,0.0,0.0,0.0,0.0,0.0,0.0,0.0,0.0,
1.6735,2.500048538073093,2.519965887573685,2.5531018472468454,0.0,0.0,0.0,2.524372090964541,0.0,0.0,0.0,0.0,0.0,0.0,0.0,0.0,0.0,0.0,0.0,0.0,0.0,0.0,
1.6885,2.5005017246780303,2.5204319277736227,2.5535906502671084,0.0,0.0,0.0,2.5248414342395873,0.0,0.0,0.0,0.0,0.0,0.0,0.0,0.0,0.0,0.0,0.0,0.0,0.0,0.0,
1.7034,2.5009563017751364,2.5208993989828583,2.554080952974785,0.0,0.0,0.0,2.5253122179109266,0.0,0.0,0.0,0.0,0.0,0.0,0.0,0.0,0.0,0.0,0.0,0.0,0.0,0.0,
1.7183,2.501415287366767,2.5213714048211484,2.5545760105293596,0.0,0.0,0.0,2.5257875675724253,0.0,0.0,0.0,0.0,0.0,0.0,0.0,0.0,0.0,0.0,0.0,0.0,0.0,0.0,
1.7333,2.5018818181392852,2.521851170987877,2.555079206096968,0.0,0.0,0.0,2.5262707317413766,0.0,0.0,0.0,0.0,0.0,0.0,0.0,0.0,0.0,0.0,0.0,0.0,0.0,0.0,
1.7482,2.5023496855065215,2.522332312782436,2.5555838431219295,0.0,0.0,0.0,2.5267552804702955,0.0,0.0,0.0,0.0,0.0,0.0,0.0,0.0,0.0,0.0,0.0,0.0,0.0,0.0,
1.7632,2.5028251816363984,2.52282130091744,2.5560967082361197,0.0,0.0,0.0,2.5272477302633196,0.0,0.0,0.0,0.0,0.0,0.0,0.0,0.0,0.0,0.0,0.0,0.0,0.0,0.0,
1.7781,2.5033019786812254,2.5233116280167707,2.556610976251139,0.0,0.0,0.0,2.5277415276497117,0.0,0.0,0.0,0.0,0.0,0.0,0.0,0.0,0.0,0.0,0.0,0.0,0.0,0.0,
1.7931,2.50378648895159,2.5238098883745885,2.557133563373257,0.0,0.0,0.0,2.5282433135664784,0.0,0.0,0.0,0.0,0.0,0.0,0.0,0.0,0.0,0.0,0.0,0.0,0.0,0.0,
1.808,2.5042722646921582,2.5243094512735813,2.557657515086211,0.0,0.0,0.0,2.52874641035065,0.0,0.0,0.0,0.0,0.0,0.0,0.0,0.0,0.0,0.0,0.0,0.0,0.0,0.0,
1.8229,2.504762533417701,2.524813635840305,2.5581863125063427,0.0,0.0,0.0,2.529254160588116,0.0,0.0,0.0,0.0,0.0,0.0,0.0,0.0,0.0,0.0,0.0,0.0,0.0,0.0,
1.8379,2.5052606436066087,2.525325885629161,2.5587235672076636,0.0,0.0,0.0,2.529770032147811,0.0,0.0,0.0,0.0,0.0,0.0,0.0,0.0,0.0,0.0,0.0,0.0,0.0,0.0,
1.8528,2.505759966600482,2.525839383837718,2.5592621295626286,0.0,0.0,0.0,2.530287160000276,0.0,0.0,0.0,0.0,0.0,0.0,0.0,0.0,0.0,0.0,0.0,0.0,0.0,0.0,
1.8678,2.506267217793729,2.5263610365230926,2.559809242643996,0.0,0.0,0.0,2.5308124989869394,0.0,0.0,0.0,0.0,0.0,0.0,0.0,0.0,0.0,0.0,0.0,0.0,0.0,0.0,
1.8827,2.506775646940086,2.5268839018108586,2.5603576256896763,0.0,0.0,0.0,2.5313390581468735,0.0,0.0,0.0,0.0,0.0,0.0,0.0,0.0,0.0,0.0,0.0,0.0,0.0,0.0,
1.8977,2.5072920919614363,2.5274150117957377,2.5609146539095207,0.0,0.0,0.0,2.5318739192222317,0.0,0.0,0.0,0.0,0.0,0.0,0.0,0.0,0.0,0.0,0.0,0.0,0.0,0.0,
1.9126,2.50780968032407,2.5279472988107416,2.5614729146549973,0.0,0.0,0.0,2.532409964596603,0.0,0.0,0.0,0.0,0.0,0.0,0.0,0.0,0.0,0.0,0.0,0.0,0.0,0.0,
1.9275,2.50833185316068,2.528484301717409,2.5620361194106294,0.0,0.0,0.0,2.5329507580962396,0.0,0.0,0.0,0.0,0.0,0.0,0.0,0.0,0.0,0.0,0.0,0.0,0.0,0.0,
1.9425,2.5088621750361533,2.529029686347374,2.5626081127706577,0.0,0.0,0.0,2.5334999913847285,0.0,0.0,0.0,0.0,0.0,0.0,0.0,0.0,0.0,0.0,0.0,0.0,0.0,0.0,
