energies(eV),real_xx,real_yy,real_zz,real_xy,real_yz,real_xz,real_ave,imag_xx,imag_yy,imag_zz,imag_xy,imag_yz,imag_xz,imag_ave,absorption_xx,absorption_yy,absorption_zz,absorption_xy,absorption_yz,absorption_xz,absorption_ave,band_gap
0.0,3.2725619081327886,3.0327832653572226,3.4190863393685986,0.0,0.0,-0.15602388209881704,3.24147717095287,0.0,0.0,0.0,0.0,0.0,0.0,0.0,0.0,0.0,0.0,0.0,0.0,0.0,0.0,3.6195000000000004
0.0151,3.2725694213200445,3.032789499193099,3.4190951956822606,0.0,0.0,-0.1560247246253979,3.241484705398468,0.0,0.0,0.0,0.0,0.0,0.0,0.0,0.0,0.0,0.0,0.0,0.0,604.5290636249659,0.0,
0.0303,3.2725921606887733,3.032808366469749,3.419122000200881,0.0,0.0,-0.15602727460450913,3.241507509119801,0.0,0.0,0.0,0.0,0.0,0.0,0.0,0.0,0.0,0.0,0.0,0.0,1213.0715437357621,0.0,
0.0454,3.272629828384289,3.0328396200079855,3.41916640197462,0.0,0.0,-0.15603149861427654,3.2415452834556313,0.0,0.0,0.0,0.0,0.0,0.0,0.0,0.0,0.0,0.0,0.0,0.0,1817.63015055126,0.0,
0.0606,3.2726829255835064,3.032883675569588,3.4192289920357815,0.0,0.0,-0.1560374528213598,3.2415985310629587,0.0,0.0,0.0,0.0,0.0,0.0,0.0,0.0,0.0,0.0,0.0,0.0,2426.222219174024,0.0,
0.0757,3.272750756786256,3.0329399559854826,3.4193089508976753,0.0,0.0,-0.15604505918561176,3.241666554556472,0.0,0.0,0.0,0.0,0.0,0.0,0.0,0.0,0.0,0.0,0.0,0.0,3030.84981023403,0.0,
0.0909,3.2728342245026587,3.0330092099477066,3.4194073428948686,0.0,0.0,-0.156054418848862,3.241750259115078,0.0,0.0,0.0,0.0,0.0,0.0,0.0,0.0,0.0,0.0,0.0,0.0,3639.531176617203,0.0,
0.106,3.272932235422445,3.0330905301661297,3.419522879791292,0.0,0.0,-0.15606540913660855,3.2418485484599557,0.0,0.0,0.0,0.0,0.0,0.0,0.0,0.0,0.0,0.0,0.0,0.0,4244.267209189407,0.0,
0.1212,3.273046093606675,3.033184998436623,3.4196570995054207,0.0,0.0,-0.15607817618672076,3.24196273051624,0.0,0.0,0.0,0.0,0.0,0.0,0.0,0.0,0.0,0.0,0.0,0.0,4853.07760356805,0.0,
0.1363,3.2731743076761184,3.03329137714153,3.419808244717662,0.0,0.0,-0.15609255266504823,3.242091309845103,0.0,0.0,0.0,0.0,0.0,0.0,0.0,0.0,0.0,0.0,0.0,0.0,5457.961560403588,0.0,
0.1515,3.273318583557445,3.0334110814315567,3.419978327337528,0.0,0.0,-0.15610872973566978,3.2422359974421764,0.0,0.0,0.0,0.0,0.0,0.0,0.0,0.0,0.0,0.0,0.0,0.0,6066.9407433308625,0.0,
0.1666,3.2734770314491355,3.033542543079862,3.4201651205058057,0.0,0.0,-0.15612649537028125,3.242394898344934,0.0,0.0,0.0,0.0,0.0,0.0,0.0,0.0,0.0,0.0,0.0,0.0,6672.012141934829,0.0,
0.1818,3.2736517595554417,3.0336875109203936,3.4203711106560037,0.0,0.0,-0.15614608579862138,3.242570127043946,0.0,0.0,0.0,0.0,0.0,0.0,0.0,0.0,0.0,0.0,0.0,0.0,7281.1999136140275,0.0,
0.1969,3.2738404792045728,3.0338440857599456,3.42059360081099,0.0,0.0,-0.15616724425451955,3.242759388591836,0.0,0.0,0.0,0.0,0.0,0.0,0.0,0.0,0.0,0.0,0.0,0.0,7886.498315516431,0.0,
0.2121,3.274045701387824,3.0340143505220167,3.420835552587491,0.0,0.0,-0.15619025208212964,3.2429652014991106,0.0,0.0,0.0,0.0,0.0,0.0,0.0,0.0,0.0,0.0,0.0,0.0,8495.934525133878,0.0,
0.2272,3.2742647380201317,3.03419607461405,3.4210937981892893,0.0,0.0,-0.15621480772446492,3.2431848702744905,0.0,0.0,0.0,0.0,0.0,0.0,0.0,0.0,0.0,0.0,0.0,0.0,9101.499545161396,0.0,
0.2423,3.274498902276802,3.034390347110071,3.4213698872825287,0.0,0.0,-0.15624105820179343,3.2434197122231336,0.0,0.0,0.0,0.0,0.0,0.0,0.0,0.0,0.0,0.0,0.0,0.0,9707.21224362293,0.0,
0.2575,3.274749909652449,3.034598590779376,3.421665844187166,0.0,0.0,-0.1562691955932453,3.2436714482063302,0.0,0.0,0.0,0.0,0.0,0.0,0.0,0.0,0.0,0.0,0.0,0.0,10317.095415768405,0.0,
0.2726,3.2750144723763603,3.034818077500702,3.4219777940738103,0.0,0.0,-0.1562988511102388,3.2439367813169575,0.0,0.0,0.0,0.0,0.0,0.0,0.0,0.0,0.0,0.0,0.0,0.0,10923.134209218013,0.0,
0.2878,3.2752961106122287,3.0350517271582396,3.422309889446558,0.0,0.0,-0.15633041908265358,3.2442192424056753,0.0,0.0,0.0,0.0,0.0,0.0,0.0,0.0,0.0,0.0,0.0,0.0,11533.365651728802,0.0,
0.3029,3.2755911354013625,3.0352964788164334,3.4226577823651403,0.0,0.0,-0.15636348575839437,3.244515132194312,0.0,0.0,0.0,0.0,0.0,0.0,0.0,0.0,0.0,0.0,0.0,0.0,12139.770328668918,0.0,
0.3181,3.275903472250662,3.0355555884873113,3.4230261038253205,0.0,0.0,-0.15639849082568413,3.2448283881877646,0.0,0.0,0.0,0.0,0.0,0.0,0.0,0.0,0.0,0.0,0.0,0.0,12750.390135533946,0.0,
0.3332,3.276229030134478,3.0358256617201733,3.4234100316405227,0.0,0.0,-0.1564349754835613,3.2451549078317243,0.0,0.0,0.0,0.0,0.0,0.0,0.0,0.0,0.0,0.0,0.0,0.0,13357.200570202991,0.0,
0.3484,3.276572140856968,3.0361102914157616,3.4238146765334982,0.0,0.0,-0.1564734248693521,3.245499036268743,0.0,0.0,0.0,0.0,0.0,0.0,0.0,0.0,0.0,0.0,0.0,0.0,13968.248926381828,0.0,
0.3635,3.2769283103491778,3.03640574882973,3.424234740809917,0.0,0.0,-0.15651333503857406,3.245856266662942,0.0,0.0,0.0,0.0,0.0,0.0,0.0,0.0,0.0,0.0,0.0,0.0,14575.505088026315,0.0,
0.3787,3.2773022777672782,3.036715964592601,3.424675816285404,0.0,0.0,-0.15655523667779633,3.246231352881761,0.0,0.0,0.0,0.0,0.0,0.0,0.0,0.0,0.0,0.0,0.0,0.0,15187.022278782,0.0,
0.3938,3.2776891449245307,3.037036874809697,3.4251321283694507,0.0,0.0,-0.1565985805950345,3.246619382701226,0.0,0.0,0.0,0.0,0.0,0.0,0.0,0.0,0.0,0.0,0.0,0.0,15794.764240926983,0.0,
0.409,3.27809405948517,3.0373727487632634,3.42560975146801,0.0,0.0,-0.15664394313563895,3.247025519905481,0.0,0.0,0.0,0.0,0.0,0.0,0.0,0.0,0.0,0.0,0.0,0.0,16406.790661156487,0.0,
0.4241,3.278511717971448,3.037719186472801,3.4261024325779204,0.0,0.0,-0.15669072974678847,3.247444445674056,0.0,0.0,0.0,0.0,0.0,0.0,0.0,0.0,0.0,0.0,0.0,0.0,17015.05861087279,0.0,
0.4393,3.2789476778139215,3.038080796875731,3.426616730325763,0.0,0.0,-0.15673956255158508,3.2478817350051385,0.0,0.0,0.0,0.0,0.0,0.0,0.0,0.0,0.0,0.0,0.0,0.0,17627.63477443399,0.0,
0.4544,3.279396228970906,3.038452842890758,3.427145911649968,0.0,0.0,-0.15678980151366367,3.248331661170544,0.0,0.0,0.0,0.0,0.0,0.0,0.0,0.0,0.0,0.0,0.0,0.0,18236.469021602305,0.0,
0.4695,3.2798602157290033,3.0388376828927837,3.4276933349580387,0.0,0.0,-0.15684176478135503,3.2487970778599418,0.0,0.0,0.0,0.0,0.0,0.0,0.0,0.0,0.0,0.0,0.0,0.0,18845.60057345604,0.0,
0.4847,3.2803428929241902,3.0392380155148873,3.4282628439661793,0.0,0.0,-0.15689581634540647,3.249281250801752,0.0,0.0,0.0,0.0,0.0,0.0,0.0,0.0,0.0,0.0,0.0,0.0,19459.076557203873,0.0,
0.4998,3.2808379387370445,3.0396485965056232,3.4288469829514883,0.0,0.0,-0.15695124776898461,3.249777839398052,0.0,0.0,0.0,0.0,0.0,0.0,0.0,0.0,0.0,0.0,0.0,0.0,20068.835054878484,0.0,
0.515,3.2813519405155485,3.0400748883067057,3.429453528300588,0.0,0.0,-0.15700879612584492,3.250293452374281,0.0,0.0,0.0,0.0,0.0,0.0,0.0,0.0,0.0,0.0,0.0,0.0,20682.96258068088,0.0,
0.5301,3.2818781662538057,3.0405113066773746,3.4300745395465637,0.0,0.0,-0.1570677071478672,3.250821337492581,0.0,0.0,0.0,0.0,0.0,0.0,0.0,0.0,0.0,0.0,0.0,0.0,21293.388681315795,0.0,
0.5453,3.282423618287331,3.040963657878614,3.4307182840658474,0.0,0.0,-0.1571287641772173,3.251368520077264,0.0,0.0,0.0,0.0,0.0,0.0,0.0,0.0,0.0,0.0,0.0,0.0,21908.20875249651,0.0,
0.5604,3.2829811527939423,3.041426016380813,3.4313763345383363,0.0,0.0,-0.15719116695874172,3.2519278345710307,0.0,0.0,0.0,0.0,0.0,0.0,0.0,0.0,0.0,0.0,0.0,0.0,22519.34326838643,0.0,
0.5756,3.2835581888280805,3.0419045336451216,3.4320574515765734,0.0,0.0,-0.1572557452646685,3.252506724683258,0.0,0.0,0.0,0.0,0.0,0.0,0.0,0.0,0.0,0.0,0.0,0.0,23134.897049093728,0.0,
0.5907,3.2841471690169644,3.0423929414701174,3.432752718761988,0.0,0.0,-0.1573216526875461,3.2530976097496898,0.0,0.0,0.0,0.0,0.0,0.0,0.0,0.0,0.0,0.0,0.0,0.0,23746.780956906678,0.0,
0.6059,3.2847559309738625,3.042897737984734,3.433471392331272,0.0,0.0,-0.15738976560087503,3.25370835376329,0.0,0.0,0.0,0.0,0.0,0.0,0.0,0.0,0.0,0.0,0.0,0.0,24363.109781383224,0.0,
0.621,3.2853765019351915,3.0434123108482343,3.4342040643842577,0.0,0.0,-0.1574591912700971,3.254330959055894,0.0,0.0,0.0,0.0,0.0,0.0,0.0,0.0,0.0,0.0,0.0,0.0,24975.78423135994,0.0,
0.6362,3.286017140023041,3.0439435064127514,3.4349604893134873,0.0,0.0,-0.15753085285078308,3.2549737119164264,0.0,0.0,0.0,0.0,0.0,0.0,0.0,0.0,0.0,0.0,0.0,0.0,25592.929613192628,0.0,
0.6513,3.28666945513548,3.0444843666452615,3.4357307652142253,0.0,0.0,-0.15760381109686847,3.2556281956649893,0.0,0.0,0.0,0.0,0.0,0.0,0.0,0.0,0.0,0.0,0.0,0.0,26206.435938323168,0.0,
0.6665,3.287342127965005,3.0450420877655464,3.4365251473125107,0.0,0.0,-0.1576790361364118,3.2563031210143536,0.0,0.0,0.0,0.0,0.0,0.0,0.0,0.0,0.0,0.0,0.0,0.0,26824.439579667167,0.0,
0.6816,3.288026349015015,3.0456093644084454,3.437333237034058,0.0,0.0,-0.1577555420178163,3.2569896501525064,0.0,0.0,0.0,0.0,0.0,0.0,0.0,0.0,0.0,0.0,0.0,0.0,27438.81930483975,0.0,
0.6967,3.2887265334352938,3.0461898559569884,3.4381602531266333,0.0,0.0,-0.1578338217117815,3.257692214172972,0.0,0.0,0.0,0.0,0.0,0.0,0.0,0.0,0.0,0.0,0.0,0.0,28053.64985429123,0.0,
0.7119,3.289447521031621,3.0467875733038747,3.4390119179503364,0.0,0.0,-0.1579144153472354,3.2584156707619445,0.0,0.0,0.0,0.0,0.0,0.0,0.0,0.0,0.0,0.0,0.0,0.0,28673.01795672979,0.0,
0.727,3.290179869817359,3.0473946873971025,3.439877083442949,0.0,0.0,-0.157996266607117,3.2591505468858037,0.0,0.0,0.0,0.0,0.0,0.0,0.0,0.0,0.0,0.0,0.0,0.0,29288.784504095816,0.0,
0.7422,3.2909333259689033,3.048019276330452,3.4407672687664523,0.0,0.0,-0.15808046386858288,3.2599066236886025,0.0,0.0,0.0,0.0,0.0,0.0,0.0,0.0,0.0,0.0,0.0,0.0,29909.11593682368,0.0,
0.7573,3.291698022481734,3.048653159235237,3.441670821896033,0.0,0.0,-0.15816590358201826,3.2606740012043343,0.0,0.0,0.0,0.0,0.0,0.0,0.0,0.0,0.0,0.0,0.0,0.0,30525.8605261724,0.0,
0.7725,3.2924841362169417,3.0493047705464096,3.4425997733769784,0.0,0.0,-0.1582537218392566,3.2614628933801098,0.0,0.0,0.0,0.0,0.0,0.0,0.0,0.0,0.0,0.0,0.0,0.0,31147.197723108013,0.0,
0.7876,3.2932813727023222,3.0499655756246895,3.4435419640421308,0.0,0.0,-0.158342767630163,3.2622629707897146,0.0,0.0,0.0,0.0,0.0,0.0,0.0,0.0,0.0,0.0,0.0,0.0,31764.962622109648,0.0,
0.8028,3.2941003420687336,3.0506443673088435,3.444509939184517,0.0,0.0,-0.1584342249952516,3.2630848828540313,0.0,0.0,0.0,0.0,0.0,0.0,0.0,0.0,0.0,0.0,0.0,0.0,32387.348246765974,0.0,
0.8179,3.2949303198098066,3.051332255142044,3.4454910291619663,0.0,0.0,-0.1585268952260976,3.263917868037939,0.0,0.0,0.0,0.0,0.0,0.0,0.0,0.0,0.0,0.0,0.0,0.0,33006.1759556396,0.0,
0.8331,3.295782352033054,3.052038392526803,3.446498297539992,0.0,0.0,-0.15862201055565972,3.264773014033283,0.0,0.0,0.0,0.0,0.0,0.0,0.0,0.0,0.0,0.0,0.0,0.0,33629.65291009626,0.0,
0.8482,3.296645281512907,3.0527535310470433,3.4475185607129655,0.0,0.0,-0.15871832432963293,3.2656391244243053,0.0,0.0,0.0,0.0,0.0,0.0,0.0,0.0,0.0,0.0,0.0,0.0,34249.58617048865,0.0,
0.8634,3.2975305931644017,3.0534871869282,3.448565404207162,0.0,0.0,-0.1588171172269513,3.266527728099921,0.0,0.0,0.0,0.0,0.0,0.0,0.0,0.0,0.0,0.0,0.0,0.0,34874.19760429102,0.0,
0.8785,3.2984266942369076,3.054229751556813,3.4496251268061857,0.0,0.0,-0.1589170943899877,3.2674271908666355,0.0,0.0,0.0,0.0,0.0,0.0,0.0,0.0,0.0,0.0,0.0,0.0,35495.279408076705,0.0,
0.8937,3.299345511410318,3.0549911063414075,3.4507118398520835,0.0,0.0,-0.15901958520698053,3.2683494858679363,0.0,0.0,0.0,0.0,0.0,0.0,0.0,0.0,0.0,0.0,0.0,0.0,36121.06872705166,0.0,
0.9088,3.3002750134801384,3.055761280134772,3.451811320708584,0.0,0.0,-0.1591232463496326,3.269282538107831,0.0,0.0,0.0,0.0,0.0,0.0,0.0,0.0,0.0,0.0,0.0,0.0,36743.34232504329,0.0,
0.9239,3.301221249600633,3.0565452837105838,3.4529307306453103,0.0,0.0,-0.1592287513224037,3.2702324213188425,0.0,0.0,0.0,0.0,0.0,0.0,0.0,0.0,0.0,0.0,0.0,0.0,37366.22608407659,0.0,
0.9391,3.3021907141888303,3.0573484957949137,3.4540777613720697,0.0,0.0,-0.15933682264774093,3.2712056571186046,0.0,0.0,0.0,0.0,0.0,0.0,0.0,0.0,0.0,0.0,0.0,0.0,37993.86211057316,0.0,
0.9542,3.3031707133266703,3.058160397445908,3.4552374014918894,0.0,0.0,-0.15944604384925923,3.2721895040881557,0.0,0.0,0.0,0.0,0.0,0.0,0.0,0.0,0.0,0.0,0.0,0.0,38618.00297207146,0.0,
0.9694,3.304174291151342,3.058991793422081,3.4564250939899095,0.0,0.0,-0.1595578672231802,3.273197059521111,0.0,0.0,0.0,0.0,0.0,0.0,0.0,0.0,0.0,0.0,0.0,0.0,39246.92650349424,0.0,
0.9845,3.3051883074203134,3.0598317959685266,3.457625295802804,0.0,0.0,-0.15967082711107053,3.2742151330638816,0.0,0.0,0.0,0.0,0.0,0.0,0.0,0.0,0.0,0.0,0.0,0.0,39872.36840254458,0.0,
0.9997,3.3062262594123557,3.060691584108842,3.4588539905818734,0.0,0.0,-0.15978642551695857,3.2752572780343567,0.0,0.0,0.0,0.0,0.0,0.0,0.0,0.0,0.0,0.0,0.0,0.0,40502.62380911661,0.0,
1.0148,3.307274557181931,3.061559898579278,3.460095099194501,0.0,0.0,-0.15990314729815683,3.2763098516519036,0.0,0.0,0.0,0.0,0.0,0.0,0.0,0.0,0.0,0.0,0.0,0.0,41129.41096930932,0.0,
1.03,3.3083471547076626,3.062448295509733,3.4613651506092245,0.0,0.0,-0.1600225444740333,3.2773868669422064,0.0,0.0,0.0,0.0,0.0,0.0,0.0,0.0,0.0,0.0,0.0,0.0,41761.04291577768,0.0,
1.0451,3.309430008827895,3.0633451413241874,3.46264752504291,0.0,0.0,-0.16014305210541344,3.2784742250649974,0.0,0.0,0.0,0.0,0.0,0.0,0.0,0.0,0.0,0.0,0.0,0.0,42389.219857329634,0.0,
1.0603,3.3105375339208503,3.0642623722135616,3.4639593016207035,0.0,0.0,-0.1602662725443758,3.279586402585038,0.0,0.0,0.0,0.0,0.0,0.0,0.0,0.0,0.0,0.0,0.0,0.0,43022.27331105467,0.0,
1.0754,3.3116552299580966,3.065187977376092,3.4652833151454003,0.0,0.0,-0.16039059073297743,3.2807088408265295,0.0,0.0,0.0,0.0,0.0,0.0,0.0,0.0,0.0,0.0,0.0,0.0,43651.88485875258,0.0,
1.0906,3.3127979755621526,3.066134276134642,3.4666371999310273,0.0,0.0,-0.16051765968318915,3.281856483875941,0.0,0.0,0.0,0.0,0.0,0.0,0.0,0.0,0.0,0.0,0.0,0.0,44286.405097602765,0.0,
1.1057,3.313950810046551,3.0670888774356464,3.468003240415965,0.0,0.0,-0.16064581388596547,3.283014309299387,0.0,0.0,0.0,0.0,0.0,0.0,0.0,0.0,0.0,0.0,0.0,0.0,44917.496388541025,0.0,
1.1209,3.3151290802710043,3.0680644869237335,3.4693996313331796,0.0,0.0,-0.16077675735015462,3.284197732842639,0.0,0.0,0.0,0.0,0.0,0.0,0.0,0.0,0.0,0.0,0.0,0.0,45553.52900857161,0.0,
1.136,3.3163173609559045,3.069048330152396,3.4708081016148764,0.0,0.0,-0.16090877377319784,3.2853912642410585,0.0,0.0,0.0,0.0,0.0,0.0,0.0,0.0,0.0,0.0,0.0,0.0,46186.14549966236,0.0,
1.1511,3.3175234247122147,3.0700468407148476,3.4722378719364264,0.0,0.0,-0.16104272494971247,3.286602712454496,0.0,0.0,0.0,0.0,0.0,0.0,0.0,0.0,0.0,0.0,0.0,0.0,46819.53914680735,0.0,
1.1663,3.3187555174769097,3.071066842567107,3.4736987301143465,0.0,0.0,-0.1611795241047275,3.287840363386121,0.0,0.0,0.0,0.0,0.0,0.0,0.0,0.0,0.0,0.0,0.0,0.0,47457.92389777297,0.0,
1.1814,3.3199975101597414,3.0720949806684676,3.4751715626851487,0.0,0.0,-0.16131737816636,3.289088017837786,0.0,0.0,0.0,0.0,0.0,0.0,0.0,0.0,0.0,0.0,0.0,0.0,48092.911469781386,0.0,
1.1966,3.321265937894003,3.073144940576257,3.476675988702159,0.0,0.0,-0.16145812008805746,3.290362289057473,0.0,0.0,0.0,0.0,0.0,0.0,0.0,0.0,0.0,0.0,0.0,0.0,48732.92395534337,0.0,
1.2117,3.3225441965138947,3.074202975487431,3.478192325481906,0.0,0.0,-0.1615999051049577,3.291646499161077,0.0,0.0,0.0,0.0,0.0,0.0,0.0,0.0,0.0,0.0,0.0,0.0,49369.55173919977,0.0,
1.2269,3.3238493045780864,3.075283169419718,3.4797407724246,0.0,0.0,-0.16174461842286944,3.2929577488074684,0.0,0.0,0.0,0.0,0.0,0.0,0.0,0.0,0.0,0.0,0.0,0.0,50011.23872515587,0.0,
1.242,3.3251641783792683,3.076371380241064,3.481301071776469,0.0,0.0,-0.16189036320632605,3.2942788767989337,0.0,0.0,0.0,0.0,0.0,0.0,0.0,0.0,0.0,0.0,0.0,0.0,50649.55335170156,0.0,
1.2572,3.3265063246079967,3.0774820941929457,3.4828940094707286,0.0,0.0,-0.1620390772940664,3.295627476090557,0.0,0.0,0.0,0.0,0.0,0.0,0.0,0.0,0.0,0.0,0.0,0.0,51292.96195309967,0.0,
1.2723,3.3278581753890353,3.078600770118929,3.4844987466181876,0.0,0.0,-0.1621888113923658,3.296985897375384,0.0,0.0,0.0,0.0,0.0,0.0,0.0,0.0,0.0,0.0,0.0,0.0,51933.010403124565,0.0,
1.2875,3.329237730421537,3.0797423003846647,3.4861366621001832,0.0,0.0,-0.16234155636296058,3.298372230968795,0.0,0.0,0.0,0.0,0.0,0.0,0.0,0.0,0.0,0.0,0.0,0.0,52578.18809018724,0.0,
1.3026,3.33062693287146,3.0808917409819023,3.487786329606179,0.0,0.0,-0.16249531005622453,3.299768334486514,0.0,0.0,0.0,0.0,0.0,0.0,0.0,0.0,0.0,0.0,0.0,0.0,53220.017700098455,0.0,
1.3178,3.332044280498042,3.0820643944417547,3.4894697276162217,0.0,0.0,-0.1626521167563708,3.301192800852006,0.0,0.0,0.0,0.0,0.0,0.0,0.0,0.0,0.0,0.0,0.0,0.0,53867.01230370056,0.0,
1.3329,3.333471222548591,3.083244909940928,3.491164835885719,0.0,0.0,-0.16280992105027237,3.3026269894584126,0.0,0.0,0.0,0.0,0.0,0.0,0.0,0.0,0.0,0.0,0.0,0.0,54510.67077072283,0.0,
1.3481,3.334926760073592,3.0844490043622974,3.4928942393865725,0.0,0.0,-0.16297082105339408,3.304090001274154,0.0,0.0,0.0,0.0,0.0,0.0,0.0,0.0,0.0,0.0,0.0,0.0,55159.53048737008,0.0,
1.3632,3.336391843268372,3.0856609159648962,3.494635317193878,0.0,0.0,-0.16313270767161756,3.305562692142382,0.0,0.0,0.0,0.0,0.0,0.0,0.0,0.0,0.0,0.0,0.0,0.0,55805.0658742244,0.0,
1.3783,3.3378760883498084,3.0868885972296174,3.496399507192391,0.0,0.0,-0.1632966407804268,3.307054730923939,0.0,0.0,0.0,0.0,0.0,0.0,0.0,0.0,0.0,0.0,0.0,0.0,56451.55468281422,0.0,
1.3935,3.3393896217720638,3.0881404205192986,3.498198862956262,0.0,0.0,-0.16346373464490624,3.308576301749208,0.0,0.0,0.0,0.0,0.0,0.0,0.0,0.0,0.0,0.0,0.0,0.0,57103.30000948364,0.0,
1.4086,3.3409126359775096,3.089400000401317,3.5000098503781145,0.0,0.0,-0.16363179893521265,3.310107495585647,0.0,0.0,0.0,0.0,0.0,0.0,0.0,0.0,0.0,0.0,0.0,0.0,57751.73844555229,0.0,
1.4238,3.342465413498637,3.090684108237276,3.501856601437887,0.0,0.0,-0.16380306810210316,3.3116687077246,0.0,0.0,0.0,0.0,0.0,0.0,0.0,0.0,0.0,0.0,0.0,0.0,58405.47092230588,0.0,
1.4389,3.3440276341109074,3.0919759367910116,3.503714963427591,0.0,0.0,-0.1639752970489958,3.31323951144317,0.0,0.0,0.0,0.0,0.0,0.0,0.0,0.0,0.0,0.0,0.0,0.0,59055.90797821059,0.0,
1.4541,3.345620103428047,3.0932926876249804,3.5056097009506346,0.0,0.0,-0.16415077555891852,3.314840830667887,0.0,0.0,0.0,0.0,0.0,0.0,0.0,0.0,0.0,0.0,0.0,0.0,59711.67711129922,0.0,
1.4692,3.347221982779225,3.0946171270764706,3.5075160350795014,0.0,0.0,-0.16432720331713857,3.316451714978399,0.0,0.0,0.0,0.0,0.0,0.0,0.0,0.0,0.0,0.0,0.0,0.0,60364.162156277656,0.0,
1.4844,3.348854606965513,3.0959668918031396,3.5094593711208093,0.0,0.0,-0.16450692588753846,3.3180936232964875,0.0,0.0,0.0,0.0,0.0,0.0,0.0,0.0,0.0,0.0,0.0,0.0,61022.017832211495,0.0,
1.4995,3.350496612893502,3.0973243169338147,3.5114142960417287,0.0,0.0,-0.16468758727638388,3.3197450752896818,0.0,0.0,0.0,0.0,0.0,0.0,0.0,0.0,0.0,0.0,0.0,0.0,61676.6006139163,0.0,
1.5147,3.352169870868778,3.0987074792870253,3.513406864219364,0.0,0.0,-0.164871589285243,3.321428071458389,0.0,0.0,0.0,0.0,0.0,0.0,0.0,0.0,0.0,0.0,0.0,0.0,62336.593100557046,0.0,
1.5298,3.353852487196194,3.1000982778373625,3.515411020354411,0.0,0.0,-0.16505651977127309,3.3231205951293226,0.0,0.0,0.0,0.0,0.0,0.0,0.0,0.0,0.0,0.0,0.0,0.0,62993.32374567245,0.0,
1.545,3.355566874220731,3.1015152348069264,3.517453476558727,0.0,0.0,-0.16524483723851022,3.3248451951954614,0.0,0.0,0.0,0.0,0.0,0.0,0.0,0.0,0.0,0.0,0.0,0.0,63655.50369235628,0.0,
1.5601,3.3572906012574197,3.1029398079013504,3.5195075268211906,0.0,0.0,-0.1654340729158073,3.3265793119933202,0.0,0.0,0.0,0.0,0.0,0.0,0.0,0.0,0.0,0.0,0.0,0.0,64314.43270619715,0.0,
1.5753,3.3590466294500003,3.1043909701718397,3.5216005499597167,0.0,0.0,-0.16562674248209536,3.328346049860519,0.0,0.0,0.0,0.0,0.0,0.0,0.0,0.0,0.0,0.0,0.0,0.0,64978.85114278079,0.0,
1.5904,3.3608119845201903,3.1058497327659564,3.523705180512397,0.0,0.0,-0.16582032004985126,3.3301222992661814,0.0,0.0,0.0,0.0,0.0,0.0,0.0,0.0,0.0,0.0,0.0,0.0,65640.0294077701,0.0,
1.6055,3.362598283497516,3.1073256930436295,3.525835281368446,0.0,0.0,-0.1660160752810119,3.3319197526365305,0.0,0.0,0.0,0.0,0.0,0.0,0.0,0.0,0.0,0.0,0.0,0.0,66302.34770024651,0.0,
1.6207,3.3644177013977075,3.108828906530591,3.5280053943443077,0.0,0.0,-0.16621533568971822,3.333750667424202,0.0,0.0,0.0,0.0,0.0,0.0,0.0,0.0,0.0,0.0,0.0,0.0,66970.21651538985,0.0,
1.6358,3.3662464366026157,3.1103397049797015,3.5301871488688,0.0,0.0,-0.16641548887585855,3.335591096817039,0.0,0.0,0.0,0.0,0.0,0.0,0.0,0.0,0.0,0.0,0.0,0.0,67634.86099811197,0.0,
