energies(eV),real_xx,real_yy,real_zz,real_xy,real_yz,real_xz,real_ave,imag_xx,imag_yy,imag_zz,imag_xy,imag_yz,imag_xz,imag_ave,absorption_xx,absorption_yy,absorption_zz,absorption_xy,absorption_yz,absorption_xz,absorption_ave,band_gap
0.0,3.241575204414007,3.241575204414007,3.241575204414007,0.0,0.0,0.0,3.241575204414007,0.0,0.0,0.0,0.0,0.0,0.0,0.0,0.0,0.0,0.0,0.0,0.0,0.0,0.0,5.0695
0.0216,3.2415838866461097,3.2415838866461097,3.2415838866461097,0.0,0.0,0.0,3.2415838866461097,0.0,0.0,0.0,0.0,0.0,0.0,0.0,0.0,0.0,0.0,0.0,0.0,0.0,0.0,
0.0432,3.2416099339247024,3.2416099339247024,3.2416099339247024,0.0,0.0,0.0,3.241609933924702,0.0,0.0,0.0,0.0,0.0,0.0,0.0,0.0,0.0,0.0,0.0,0.0,0.0,0.0,
0.0647,3.241653106986957,3.241653106986957,3.241653106986957,0.0,0.0,0.0,3.241653106986957,0.0,0.0,0.0,0.0,0.0,0.0,0.0,0.0,0.0,0.0,0.0,0.0,0.0,0.0,
0.0863,3.241713810341007,3.241713810341007,3.241713810341007,0.0,0.0,0.0,3.241713810341007,0.0,0.0,0.0,0.0,0.0,0.0,0.0,0.0,0.0,0.0,0.0,0.0,0.0,0.0,
0.1079,3.241791887457085,3.241791887457085,3.241791887457085,0.0,0.0,0.0,3.241791887457085,0.0,0.0,0.0,0.0,0.0,0.0,0.0,0.0,0.0,0.0,0.0,0.0,0.0,0.0,
0.1295,3.2418873435742244,3.2418873435742244,3.2418873435742244,0.0,0.0,0.0,3.241887343574225,0.0,0.0,0.0,0.0,0.0,0.0,0.0,0.0,0.0,0.0,0.0,0.0,0.0,0.0,
0.1511,3.2420001850991462,3.2420001850991462,3.2420001850991462,0.0,0.0,0.0,3.2420001850991462,0.0,0.0,0.0,0.0,0.0,0.0,0.0,0.0,0.0,0.0,0.0,0.0,0.0,0.0,
0.1726,3.242129776581939,3.242129776581939,3.242129776581939,0.0,0.0,0.0,3.242129776581939,0.0,0.0,0.0,0.0,0.0,0.0,0.0,0.0,0.0,0.0,0.0,0.0,0.0,0.0,
0.1942,3.242277332234678,3.242277332234678,3.242277332234678,0.0,0.0,0.0,3.242277332234678,0.0,0.0,0.0,0.0,0.0,0.0,0.0,0.0,0.0,0.0,0.0,0.0,0.0,0.0,
0.2158,3.242442299487386,3.242442299487386,3.242442299487386,0.0,0.0,0.0,3.242442299487386,0.0,0.0,0.0,0.0,0.0,0.0,0.0,0.0,0.0,0.0,0.0,0.0,0.0,0.0,
0.2374,3.242624689427913,3.242624689427913,3.242624689427913,0.0,0.0,0.0,3.242624689427913,0.0,0.0,0.0,0.0,0.0,0.0,0.0,0.0,0.0,0.0,0.0,0.0,0.0,0.0,
0.259,3.242824514320923,3.242824514320923,3.242824514320923,0.0,0.0,0.0,3.242824514320923,0.0,0.0,0.0,0.0,0.0,0.0,0.0,0.0,0.0,0.0,0.0,0.0,0.0,0.0,
0.2806,3.2430417876105557,3.2430417876105557,3.2430417876105557,0.0,0.0,0.0,3.2430417876105557,0.0,0.0,0.0,0.0,0.0,0.0,0.0,0.0,0.0,0.0,0.0,0.0,0.0,0.0,
0.3021,3.243275396920693,3.243275396920693,3.243275396920693,0.0,0.0,0.0,3.243275396920693,0.0,0.0,0.0,0.0,0.0,0.0,0.0,0.0,0.0,0.0,0.0,0.0,0.0,0.0,
0.3237,3.2435275311092133,3.2435275311092133,3.2435275311092133,0.0,0.0,0.0,3.2435275311092133,0.0,0.0,0.0,0.0,0.0,0.0,0.0,0.0,0.0,0.0,0.0,0.0,0.0,0.0,
0.3453,3.243797161051377,3.243797161051377,3.243797161051377,0.0,0.0,0.0,3.243797161051377,0.0,0.0,0.0,0.0,0.0,0.0,0.0,0.0,0.0,0.0,0.0,0.0,0.0,0.0,
0.3669,3.2440843049343226,3.2440843049343226,3.2440843049343226,0.0,0.0,0.0,3.2440843049343226,0.0,0.0,0.0,0.0,0.0,0.0,0.0,0.0,0.0,0.0,0.0,0.0,0.0,0.0,
0.3885,3.244388982141275,3.244388982141275,3.244388982141275,0.0,0.0,0.0,3.2443889821412752,0.0,0.0,0.0,0.0,0.0,0.0,0.0,0.0,0.0,0.0,0.0,0.0,0.0,0.0,
0.41,3.2447096809661535,3.2447096809661535,3.2447096809661535,0.0,0.0,0.0,3.2447096809661535,0.0,0.0,0.0,0.0,0.0,0.0,0.0,0.0,0.0,0.0,0.0,0.0,0.0,0.0,
0.4316,3.2450494063551023,3.2450494063551023,3.2450494063551023,0.0,0.0,0.0,3.2450494063551023,0.0,0.0,0.0,0.0,0.0,0.0,0.0,0.0,0.0,0.0,0.0,0.0,0.0,0.0,
0.4532,3.2454067303275362,3.2454067303275362,3.2454067303275362,0.0,0.0,0.0,3.2454067303275362,0.0,0.0,0.0,0.0,0.0,0.0,0.0,0.0,0.0,0.0,0.0,0.0,0.0,0.0,
0.4748,3.245781677089182,3.245781677089182,3.245781677089182,0.0,0.0,0.0,3.245781677089182,0.0,0.0,0.0,0.0,0.0,0.0,0.0,0.0,0.0,0.0,0.0,0.0,0.0,0.0,
0.4964,3.246174272065023,3.246174272065023,3.246174272065023,0.0,0.0,0.0,3.246174272065023,0.0,0.0,0.0,0.0,0.0,0.0,0.0,0.0,0.0,0.0,0.0,0.0,0.0,0.0,
0.5179,3.2465826017403856,3.2465826017403856,3.2465826017403856,0.0,0.0,0.0,3.2465826017403856,0.0,0.0,0.0,0.0,0.0,0.0,0.0,0.0,0.0,0.0,0.0,0.0,0.0,0.0,
0.5395,3.2470104923005803,3.2470104923005803,3.2470104923005803,0.0,0.0,0.0,3.2470104923005803,0.0,0.0,0.0,0.0,0.0,0.0,0.0,0.0,0.0,0.0,0.0,0.0,0.0,0.0,
0.5611,3.247456114583295,3.247456114583295,3.247456114583295,0.0,0.0,0.0,3.247456114583295,0.0,0.0,0.0,0.0,0.0,0.0,0.0,0.0,0.0,0.0,0.0,0.0,0.0,0.0,
0.5827,3.2479194989417315,3.2479194989417315,3.2479194989417315,0.0,0.0,0.0,3.2479194989417315,0.0,0.0,0.0,0.0,0.0,0.0,0.0,0.0,0.0,0.0,0.0,0.0,0.0,0.0,
0.6043,3.2484006769781884,3.2484006769781884,3.2484006769781884,0.0,0.0,0.0,3.248400676978188,0.0,0.0,0.0,0.0,0.0,0.0,0.0,0.0,0.0,0.0,0.0,0.0,0.0,0.0,
0.6259,3.248899681550924,3.248899681550924,3.248899681550924,0.0,0.0,0.0,3.248899681550924,0.0,0.0,0.0,0.0,0.0,0.0,0.0,0.0,0.0,0.0,0.0,0.0,0.0,0.0,
0.6474,3.2494141126801317,3.2494141126801317,3.2494141126801317,0.0,0.0,0.0,3.2494141126801317,0.0,0.0,0.0,0.0,0.0,0.0,0.0,0.0,0.0,0.0,0.0,0.0,0.0,0.0,
0.669,3.2499487910239937,3.2499487910239937,3.2499487910239937,0.0,0.0,0.0,3.249948791023994,0.0,0.0,0.0,0.0,0.0,0.0,0.0,0.0,0.0,0.0,0.0,0.0,0.0,0.0,
0.6906,3.2505014019141236,3.2505014019141236,3.2505014019141236,0.0,0.0,0.0,3.2505014019141236,0.0,0.0,0.0,0.0,0.0,0.0,0.0,0.0,0.0,0.0,0.0,0.0,0.0,0.0,
0.7122,3.251071983300441,3.251071983300441,3.251071983300441,0.0,0.0,0.0,3.251071983300441,0.0,0.0,0.0,0.0,0.0,0.0,0.0,0.0,0.0,0.0,0.0,0.0,0.0,0.0,
0.7338,3.251660574427194,3.251660574427194,3.251660574427194,0.0,0.0,0.0,3.2516605744271936,0.0,0.0,0.0,0.0,0.0,0.0,0.0,0.0,0.0,0.0,0.0,0.0,0.0,0.0,
0.7553,3.252264365663211,3.252264365663211,3.252264365663211,0.0,0.0,0.0,3.2522643656632106,0.0,0.0,0.0,0.0,0.0,0.0,0.0,0.0,0.0,0.0,0.0,0.0,0.0,0.0,
0.7769,3.252889015365819,3.252889015365819,3.252889015365819,0.0,0.0,0.0,3.252889015365819,0.0,0.0,0.0,0.0,0.0,0.0,0.0,0.0,0.0,0.0,0.0,0.0,0.0,0.0,
0.7985,3.2535318001921634,3.2535318001921634,3.2535318001921634,0.0,0.0,0.0,3.2535318001921634,0.0,0.0,0.0,0.0,0.0,0.0,0.0,0.0,0.0,0.0,0.0,0.0,0.0,0.0,
0.8201,3.254192764646701,3.254192764646701,3.254192764646701,0.0,0.0,0.0,3.254192764646701,0.0,0.0,0.0,0.0,0.0,0.0,0.0,0.0,0.0,0.0,0.0,0.0,0.0,0.0,
0.8417,3.2548719545742655,3.2548719545742655,3.2548719545742655,0.0,0.0,0.0,3.254871954574265,0.0,0.0,0.0,0.0,0.0,0.0,0.0,0.0,0.0,0.0,0.0,0.0,0.0,0.0,
0.8632,3.2555661460008594,3.2555661460008594,3.2555661460008594,0.0,0.0,0.0,3.2555661460008594,0.0,0.0,0.0,0.0,0.0,0.0,0.0,0.0,0.0,0.0,0.0,0.0,0.0,0.0,
0.8848,3.256281844887324,3.256281844887324,3.256281844887324,0.0,0.0,0.0,3.256281844887324,0.0,0.0,0.0,0.0,0.0,0.0,0.0,0.0,0.0,0.0,0.0,0.0,0.0,0.0,
0.9064,3.2570159146928153,3.2570159146928153,3.2570159146928153,0.0,0.0,0.0,3.2570159146928153,0.0,0.0,0.0,0.0,0.0,0.0,0.0,0.0,0.0,0.0,0.0,0.0,0.0,0.0,
0.928,3.257768406722445,3.257768406722445,3.257768406722445,0.0,0.0,0.0,3.257768406722445,0.0,0.0,0.0,0.0,0.0,0.0,0.0,0.0,0.0,0.0,0.0,0.0,0.0,0.0,
0.9496,3.258539373675978,3.258539373675978,3.258539373675978,0.0,0.0,0.0,3.258539373675978,0.0,0.0,0.0,0.0,0.0,0.0,0.0,0.0,0.0,0.0,0.0,0.0,0.0,0.0,
0.9712,3.2593288696596594,3.2593288696596594,3.2593288696596594,0.0,0.0,0.0,3.2593288696596594,0.0,0.0,0.0,0.0,0.0,0.0,0.0,0.0,0.0,0.0,0.0,0.0,0.0,0.0,
0.9927,3.2601331661775808,3.2601331661775808,3.2601331661775808,0.0,0.0,0.0,3.2601331661775803,0.0,0.0,0.0,0.0,0.0,0.0,0.0,0.0,0.0,0.0,0.0,0.0,0.0,0.0,
1.0143,3.260959801791419,3.260959801791419,3.260959801791419,0.0,0.0,0.0,3.260959801791419,0.0,0.0,0.0,0.0,0.0,0.0,0.0,0.0,0.0,0.0,0.0,0.0,0.0,0.0,
1.0359,3.261805137044085,3.261805137044085,3.261805137044085,0.0,0.0,0.0,3.261805137044085,0.0,0.0,0.0,0.0,0.0,0.0,0.0,0.0,0.0,0.0,0.0,0.0,0.0,0.0,
1.0575,3.262669231787485,3.262669231787485,3.262669231787485,0.0,0.0,0.0,3.2626692317874855,0.0,0.0,0.0,0.0,0.0,0.0,0.0,0.0,0.0,0.0,0.0,0.0,0.0,0.0,
1.0791,3.2635521473450235,3.2635521473450235,3.2635521473450235,0.0,0.0,0.0,3.2635521473450235,0.0,0.0,0.0,0.0,0.0,0.0,0.0,0.0,0.0,0.0,0.0,0.0,0.0,0.0,
1.1006,3.264449727921893,3.264449727921893,3.264449727921893,0.0,0.0,0.0,3.264449727921893,0.0,0.0,0.0,0.0,0.0,0.0,0.0,0.0,0.0,0.0,0.0,0.0,0.0,0.0,
1.1222,3.265370387162781,3.265370387162781,3.265370387162781,0.0,0.0,0.0,3.265370387162781,0.0,0.0,0.0,0.0,0.0,0.0,0.0,0.0,0.0,0.0,0.0,0.0,0.0,0.0,
1.1438,3.2663100598524664,3.2663100598524664,3.2663100598524664,0.0,0.0,0.0,3.2663100598524664,0.0,0.0,0.0,0.0,0.0,0.0,0.0,0.0,0.0,0.0,0.0,0.0,0.0,0.0,
1.1654,3.2672688133390095,3.2672688133390095,3.2672688133390095,0.0,0.0,0.0,3.2672688133390095,0.0,0.0,0.0,0.0,0.0,0.0,0.0,0.0,0.0,0.0,0.0,0.0,0.0,0.0,
1.187,3.268246716516768,3.268246716516768,3.268246716516768,0.0,0.0,0.0,3.2682467165167686,0.0,0.0,0.0,0.0,0.0,0.0,0.0,0.0,0.0,0.0,0.0,0.0,0.0,0.0,
1.2085,3.2692391791361666,3.2692391791361666,3.2692391791361666,0.0,0.0,0.0,3.2692391791361666,0.0,0.0,0.0,0.0,0.0,0.0,0.0,0.0,0.0,0.0,0.0,0.0,0.0,0.0,
1.2301,3.2702555051625923,3.2702555051625923,3.2702555051625923,0.0,0.0,0.0,3.270255505162593,0.0,0.0,0.0,0.0,0.0,0.0,0.0,0.0,0.0,0.0,0.0,0.0,0.0,0.0,
1.2517,3.2712911966617773,3.2712911966617773,3.2712911966617773,0.0,0.0,0.0,3.271291196661777,0.0,0.0,0.0,0.0,0.0,0.0,0.0,0.0,0.0,0.0,0.0,0.0,0.0,0.0,
1.2733,3.2723463288730477,3.2723463288730477,3.2723463288730477,0.0,0.0,0.0,3.272346328873047,0.0,0.0,0.0,0.0,0.0,0.0,0.0,0.0,0.0,0.0,0.0,0.0,0.0,0.0,
1.2949,3.2734209786678647,3.2734209786678647,3.2734209786678647,0.0,0.0,0.0,3.2734209786678647,0.0,0.0,0.0,0.0,0.0,0.0,0.0,0.0,0.0,0.0,0.0,0.0,0.0,0.0,
1.3165,3.274515224568352,3.274515224568352,3.274515224568352,0.0,0.0,0.0,3.274515224568352,0.0,0.0,0.0,0.0,0.0,0.0,0.0,0.0,0.0,0.0,0.0,0.0,0.0,0.0,
1.338,3.2756239442581174,3.2756239442581174,3.2756239442581174,0.0,0.0,0.0,3.275623944258117,0.0,0.0,0.0,0.0,0.0,0.0,0.0,0.0,0.0,0.0,0.0,0.0,0.0,0.0,
1.3596,3.276757532970297,3.276757532970297,3.276757532970297,0.0,0.0,0.0,3.276757532970297,0.0,0.0,0.0,0.0,0.0,0.0,0.0,0.0,0.0,0.0,0.0,0.0,0.0,0.0,
1.3812,3.277910963060504,3.277910963060504,3.277910963060504,0.0,0.0,0.0,3.277910963060504,0.0,0.0,0.0,0.0,0.0,0.0,0.0,0.0,0.0,0.0,0.0,0.0,0.0,0.0,
1.4028,3.279084319841102,3.279084319841102,3.279084319841102,0.0,0.0,0.0,3.279084319841102,0.0,0.0,0.0,0.0,0.0,0.0,0.0,0.0,0.0,0.0,0.0,0.0,0.0,0.0,
1.4244,3.280277690375403,3.280277690375403,3.280277690375403,0.0,0.0,0.0,3.280277690375403,0.0,0.0,0.0,0.0,0.0,0.0,0.0,0.0,0.0,0.0,0.0,0.0,0.0,0.0,
1.4459,3.281485499111815,3.281485499111815,3.281485499111815,0.0,0.0,0.0,3.281485499111815,0.0,0.0,0.0,0.0,0.0,0.0,0.0,0.0,0.0,0.0,0.0,0.0,0.0,0.0,
1.4675,3.2827190717578927,3.2827190717578927,3.2827190717578927,0.0,0.0,0.0,3.2827190717578927,0.0,0.0,0.0,0.0,0.0,0.0,0.0,0.0,0.0,0.0,0.0,0.0,0.0,0.0,
1.4891,3.2839729296412035,3.2839729296412035,3.2839729296412035,0.0,0.0,0.0,3.2839729296412035,0.0,0.0,0.0,0.0,0.0,0.0,0.0,0.0,0.0,0.0,0.0,0.0,0.0,0.0,
1.5107,3.285247167043127,3.285247167043127,3.285247167043127,0.0,0.0,0.0,3.2852471670431265,0.0,0.0,0.0,0.0,0.0,0.0,0.0,0.0,0.0,0.0,0.0,0.0,0.0,0.0,
1.5323,3.2865418801100734,3.2865418801100734,3.2865418801100734,0.0,0.0,0.0,3.2865418801100734,0.0,0.0,0.0,0.0,0.0,0.0,0.0,0.0,0.0,0.0,0.0,0.0,0.0,0.0,
1.5538,3.287851030031382,3.287851030031382,3.287851030031382,0.0,0.0,0.0,3.287851030031382,0.0,0.0,0.0,0.0,0.0,0.0,0.0,0.0,0.0,0.0,0.0,0.0,0.0,0.0,
1.5754,3.289186894507298,3.289186894507298,3.289186894507298,0.0,0.0,0.0,3.289186894507298,0.0,0.0,0.0,0.0,0.0,0.0,0.0,0.0,0.0,0.0,0.0,0.0,0.0,0.0,
1.597,3.290543534051439,3.290543534051439,3.290543534051439,0.0,0.0,0.0,3.290543534051439,0.0,0.0,0.0,0.0,0.0,0.0,0.0,0.0,0.0,0.0,0.0,0.0,0.0,0.0,
1.6186,3.2919210525142137,3.2919210525142137,3.2919210525142137,0.0,0.0,0.0,3.2919210525142137,0.0,0.0,0.0,0.0,0.0,0.0,0.0,0.0,0.0,0.0,0.0,0.0,0.0,0.0,
1.6402,3.293319555740675,3.293319555740675,3.293319555740675,0.0,0.0,0.0,3.293319555740675,0.0,0.0,0.0,0.0,0.0,0.0,0.0,0.0,0.0,0.0,0.0,0.0,0.0,0.0,
1.6618,3.2947391515984354,3.2947391515984354,3.2947391515984354,0.0,0.0,0.0,3.2947391515984354,0.0,0.0,0.0,0.0,0.0,0.0,0.0,0.0,0.0,0.0,0.0,0.0,0.0,0.0,
1.6833,3.296173230619808,3.296173230619808,3.296173230619808,0.0,0.0,0.0,3.2961732306198086,0.0,0.0,0.0,0.0,0.0,0.0,0.0,0.0,0.0,0.0,0.0,0.0,0.0,0.0,
1.7049,3.2976352446378026,3.2976352446378026,3.2976352446378026,0.0,0.0,0.0,3.2976352446378026,0.0,0.0,0.0,0.0,0.0,0.0,0.0,0.0,0.0,0.0,0.0,0.0,0.0,0.0,
1.7265,3.299118686782764,3.299118686782764,3.299118686782764,0.0,0.0,0.0,3.299118686782764,0.0,0.0,0.0,0.0,0.0,0.0,0.0,0.0,0.0,0.0,0.0,0.0,0.0,0.0,
1.7481,3.30062367329686,3.30062367329686,3.30062367329686,0.0,0.0,0.0,3.30062367329686,0.0,0.0,0.0,0.0,0.0,0.0,0.0,0.0,0.0,0.0,0.0,0.0,0.0,0.0,
1.7697,3.302150322595606,3.302150322595606,3.302150322595606,0.0,0.0,0.0,3.302150322595606,0.0,0.0,0.0,0.0,0.0,0.0,0.0,0.0,0.0,0.0,0.0,0.0,0.0,0.0,
1.7912,3.3036915362519363,3.3036915362519363,3.3036915362519363,0.0,0.0,0.0,3.3036915362519363,0.0,0.0,0.0,0.0,0.0,0.0,0.0,0.0,0.0,0.0,0.0,0.0,0.0,0.0,
1.8128,3.3052617735189327,3.3052617735189327,3.3052617735189327,0.0,0.0,0.0,3.3052617735189327,0.0,0.0,0.0,0.0,0.0,0.0,0.0,0.0,0.0,0.0,0.0,0.0,0.0,0.0,
1.8344,3.306854041602116,3.306854041602116,3.306854041602116,0.0,0.0,0.0,3.3068540416021164,0.0,0.0,0.0,0.0,0.0,0.0,0.0,0.0,0.0,0.0,0.0,0.0,0.0,0.0,
1.856,3.308468467933399,3.308468467933399,3.308468467933399,0.0,0.0,0.0,3.3084684679333995,0.0,0.0,0.0,0.0,0.0,0.0,0.0,0.0,0.0,0.0,0.0,0.0,0.0,0.0,
1.8776,3.3101051822891745,3.3101051822891745,3.3101051822891745,0.0,0.0,0.0,3.3101051822891745,0.0,0.0,0.0,0.0,0.0,0.0,0.0,0.0,0.0,0.0,0.0,0.0,0.0,0.0,
1.8991,3.3117565837851646,3.3117565837851646,3.3117565837851646,0.0,0.0,0.0,3.3117565837851646,0.0,0.0,0.0,0.0,0.0,0.0,0.0,0.0,0.0,0.0,0.0,0.0,0.0,0.0,
1.9207,3.313438168348415,3.313438168348415,3.313438168348415,0.0,0.0,0.0,3.3134381683484144,0.0,0.0,0.0,0.0,0.0,0.0,0.0,0.0,0.0,0.0,0.0,0.0,0.0,0.0,
1.9423,3.315142444065942,3.315142444065942,3.315142444065942,0.0,0.0,0.0,3.3151424440659425,0.0,0.0,0.0,0.0,0.0,0.0,0.0,0.0,0.0,0.0,0.0,0.0,0.0,0.0,
1.9639,3.3168695504593364,3.3168695504593364,3.3168695504593364,0.0,0.0,0.0,3.316869550459336,0.0,0.0,0.0,0.0,0.0,0.0,0.0,0.0,0.0,0.0,0.0,0.0,0.0,0.0,
1.9855,3.318619629588941,3.318619629588941,3.318619629588941,0.0,0.0,0.0,3.318619629588941,0.0,0.0,0.0,0.0,0.0,0.0,0.0,0.0,0.0,0.0,0.0,0.0,0.0,0.0,
2.0071,3.320392826095912,3.320392826095912,3.320392826095912,0.0,0.0,0.0,3.320392826095912,0.0,0.0,0.0,0.0,0.0,0.0,0.0,0.0,0.0,0.0,0.0,0.0,0.0,0.0,
2.0286,3.3221809164627367,3.3221809164627367,3.3221809164627367,0.0,0.0,0.0,3.3221809164627367,0.0,0.0,0.0,0.0,0.0,0.0,0.0,0.0,0.0,0.0,0.0,0.0,0.0,0.0,
2.0502,3.3240006834371796,3.3240006834371796,3.3240006834371796,0.0,0.0,0.0,3.324000683437179,0.0,0.0,0.0,0.0,0.0,0.0,0.0,0.0,0.0,0.0,0.0,0.0,0.0,0.0,
2.0718,3.32584401692069,3.32584401692069,3.32584401692069,0.0,0.0,0.0,3.32584401692069,0.0,0.0,0.0,0.0,0.0,0.0,0.0,0.0,0.0,0.0,0.0,0.0,0.0,0.0,
2.0934,3.327711072307107,3.327711072307107,3.327711072307107,0.0,0.0,0.0,3.327711072307107,0.0,0.0,0.0,0.0,0.0,0.0,0.0,0.0,0.0,0.0,0.0,0.0,0.0,0.0,
2.115,3.3296020077978885,3.3296020077978885,3.3296020077978885,0.0,0.0,0.0,3.3296020077978885,0.0,0.0,0.0,0.0,0.0,0.0,0.0,0.0,0.0,0.0,0.0,0.0,0.0,0.0,
2.1365,3.3315080631753164,3.3315080631753164,3.3315080631753164,0.0,0.0,0.0,3.3315080631753164,0.0,0.0,0.0,0.0,0.0,0.0,0.0,0.0,0.0,0.0,0.0,0.0,0.0,0.0,
2.1581,3.333447132513726,3.333447132513726,3.333447132513726,0.0,0.0,0.0,3.333447132513726,0.0,0.0,0.0,0.0,0.0,0.0,0.0,0.0,0.0,0.0,0.0,0.0,0.0,0.0,
2.1797,3.335410573124856,3.335410573124856,3.335410573124856,0.0,0.0,0.0,3.335410573124856,0.0,0.0,0.0,0.0,0.0,0.0,0.0,0.0,0.0,0.0,0.0,0.0,0.0,0.0,
2.2013,3.337398554931044,3.337398554931044,3.337398554931044,0.0,0.0,0.0,3.337398554931044,0.0,0.0,0.0,0.0,0.0,0.0,0.0,0.0,0.0,0.0,0.0,0.0,0.0,0.0,
2.2229,3.3394112509210094,3.3394112509210094,3.3394112509210094,0.0,0.0,0.0,3.339411250921009,0.0,0.0,0.0,0.0,0.0,0.0,0.0,0.0,0.0,0.0,0.0,0.0,0.0,0.0,
2.2444,3.341439346312875,3.341439346312875,3.341439346312875,0.0,0.0,0.0,3.341439346312875,0.0,0.0,0.0,0.0,0.0,0.0,0.0,0.0,0.0,0.0,0.0,0.0,0.0,0.0,
2.266,3.3435018857029144,3.3435018857029144,3.3435018857029144,0.0,0.0,0.0,3.343501885702915,0.0,0.0,0.0,0.0,0.0,0.0,0.0,0.0,0.0,0.0,0.0,0.0,0.0,0.0,
2.2876,3.345589676356685,3.345589676356685,3.345589676356685,0.0,0.0,0.0,3.345589676356685,0.0,0.0,0.0,0.0,0.0,0.0,0.0,0.0,0.0,0.0,0.0,0.0,0.0,0.0,
2.3092,3.3477029040889814,3.3477029040889814,3.3477029040889814,0.0,0.0,0.0,3.3477029040889814,0.0,0.0,0.0,0.0,0.0,0.0,0.0,0.0,0.0,0.0,0.0,0.0,0.0,0.0,
2.3308,3.3498417580765874,3.3498417580765874,3.3498417580765874,0.0,0.0,0.0,3.3498417580765874,0.0,0.0,0.0,0.0,0.0,0.0,0.0,0.0,0.0,0.0,0.0,0.0,0.0,0.0,
2.3524,3.3520064309225215,3.3520064309225215,3.3520064309225215,0.0,0.0,0.0,3.3520064309225215,0.0,0.0,0.0,0.0,0.0,0.0,0.0,0.0,0.0,0.0,0.0,0.0,0.0,0.0,
2.3739,3.35418691640323,3.35418691640323,3.35418691640323,0.0,0.0,0.0,3.3541869164032305,0.0,0.0,0.0,0.0,0.0,0.0,0.0,0.0,0.0,0.0,0.0,0.0,0.0,0.0,
2.3955,3.356403696981786,3.356403696981786,3.356403696981786,0.0,0.0,0.0,3.356403696981786,0.0,0.0,0.0,0.0,0.0,0.0,0.0,0.0,0.0,0.0,0.0,0.0,0.0,0.0,
2.4171,3.358646894504046,3.358646894504046,3.358646894504046,0.0,0.0,0.0,3.358646894504046,0.0,0.0,0.0,0.0,0.0,0.0,0.0,0.0,0.0,0.0,0.0,0.0,0.0,0.0,
2.4387,3.3609167159387177,3.3609167159387177,3.3609167159387177,0.0,0.0,0.0,3.3609167159387177,0.0,0.0,0.0,0.0,0.0,0.0,0.0,0.0,0.0,0.0,0.0,0.0,0.0,0.0,
2.4603,3.363213372029092,3.363213372029092,3.363213372029092,0.0,0.0,0.0,3.363213372029092,0.0,0.0,0.0,0.0,0.0,0.0,0.0,0.0,0.0,0.0,0.0,0.0,0.0,0.0,
2.4818,3.365526256816285,3.365526256816285,3.365526256816285,0.0,0.0,0.0,3.365526256816285,0.0,0.0,0.0,0.0,0.0,0.0,0.0,0.0,0.0,0.0,0.0,0.0,0.0,0.0,
2.5034,3.3678771031781953,3.3678771031781953,3.3678771031781953,0.0,0.0,0.0,3.3678771031781953,0.0,0.0,0.0,0.0,0.0,0.0,0.0,0.0,0.0,0.0,0.0,0.0,0.0,0.0,
2.525,3.3702554388024386,3.3702554388024386,3.3702554388024386,0.0,0.0,0.0,3.3702554388024386,0.0,0.0,0.0,0.0,0.0,0.0,0.0,0.0,0.0,0.0,0.0,0.0,0.0,0.0,
2.5466,3.3726614902915184,3.3726614902915184,3.3726614902915184,0.0,0.0,0.0,3.3726614902915184,0.0,0.0,0.0,0.0,0.0,0.0,0.0,0.0,0.0,0.0,0.0,0.0,0.0,0.0,
2.5682,3.3750954884233706,3.3750954884233706,3.3750954884233706,0.0,0.0,0.0,3.3750954884233706,0.0,0.0,0.0,0.0,0.0,0.0,0.0,0.0,0.0,0.0,0.0,0.0,0.0,0.0,
2.5897,3.377546203959779,3.377546203959779,3.377546203959779,0.0,0.0,0.0,3.377546203959779,0.0,0.0,0.0,0.0,0.0,0.0,0.0,0.0,0.0,0.0,0.0,0.0,0.0,0.0,
2.6113,3.380036672715467,3.380036672715467,3.380036672715467,0.0,0.0,0.0,3.3800366727154674,0.0,0.0,0.0,0.0,0.0,0.0,0.0,0.0,0.0,0.0,0.0,0.0,0.0,0.0,
2.6329,3.382555805248729,3.382555805248729,3.382555805248729,0.0,0.0,0.0,3.3825558052487295,0.0,0.0,0.0,0.0,0.0,0.0,0.0,0.0,0.0,0.0,0.0,0.0,0.0,0.0,
2.6545,3.3851038499185786,3.3851038499185786,3.3851038499185786,0.0,0.0,0.0,3.3851038499185786,0.0,0.0,0.0,0.0,0.0,0.0,0.0,0.0,0.0,0.0,0.0,0.0,0.0,0.0,
2.6761,3.3876810597227065,3.3876810597227065,3.3876810597227065,0.0,0.0,0.0,3.387681059722707,0.0,0.0,0.0,0.0,0.0,0.0,0.0,0.0,0.0,0.0,0.0,0.0,0.0,0.0,
2.6976,3.3902755564610754,3.3902755564610754,3.3902755564610754,0.0,0.0,0.0,3.3902755564610754,0.0,0.0,0.0,0.0,0.0,0.0,0.0,0.0,0.0,0.0,0.0,0.0,0.0,0.0,
2.7192,3.3929117365452734,3.3929117365452734,3.3929117365452734,0.0,0.0,0.0,3.392911736545274,0.0,0.0,0.0,0.0,0.0,0.0,0.0,0.0,0.0,0.0,0.0,0.0,0.0,0.0,
2.7408,3.395577868366087,3.395577868366087,3.395577868366087,0.0,0.0,0.0,3.3955778683660873,0.0,0.0,0.0,0.0,0.0,0.0,0.0,0.0,0.0,0.0,0.0,0.0,0.0,0.0,
2.7624,3.3982742244953337,3.3982742244953337,3.3982742244953337,0.0,0.0,0.0,3.3982742244953337,0.0,0.0,0.0,0.0,0.0,0.0,0.0,0.0,0.0,0.0,0.0,0.0,0.0,0.0,
2.784,3.4010010826808905,3.4010010826808905,3.4010010826808905,0.0,0.0,0.0,3.4010010826808905,0.0,0.0,0.0,0.0,0.0,0.0,0.0,0.0,0.0,0.0,0.0,0.0,0.0,0.0,
2.8056,3.4037587259641744,3.4037587259641744,3.4037587259641744,0.0,0.0,0.0,3.4037587259641744,0.0,0.0,0.0,0.0,0.0,0.0,0.0,0.0,0.0,0.0,0.0,0.0,0.0,0.0,
