energies(eV),real_xx,real_yy,real_zz,real_xy,real_yz,real_xz,real_ave,imag_xx,imag_yy,imag_zz,imag_xy,imag_yz,imag_xz,imag_ave,absorption_xx,absorption_yy,absorption_zz,absorption_xy,absorption_yz,absorption_xz,absorption_ave,band_gap
0.0,2.5085630550961984,2.5085630550961984,2.355636593575157,0.0,0.0,0.0,2.457587567922518,0.0,0.0,0.0,0.0,0.0,0.0,0.0,0.0,0.0,0.0,0.0,0.0,0.0,0.0,7.0769
0.0205,2.508566341647528,2.508566341647528,2.3556392724302917,0.0,0.0,0.0,2.457590651908449,0.0,0.0,0.0,0.0,0.0,0.0,0.0,0.0,0.0,0.0,0.0,0.0,0.0,0.0,
0.0409,2.5085761373753,2.5085761373753,2.3556472568747315,0.0,0.0,0.0,2.4575998438751108,0.0,0.0,0.0,0.0,0.0,0.0,0.0,0.0,0.0,0.0,0.0,0.0,0.0,0.0,
0.0614,2.5085925386883687,2.5085925386883687,2.355660625445667,0.0,0.0,0.0,2.457615234274135,0.0,0.0,0.0,0.0,0.0,0.0,0.0,0.0,0.0,0.0,0.0,0.0,0.0,0.0,
0.0819,2.5086155142238558,2.5086155142238558,2.3556793525038007,0.0,0.0,0.0,2.457636793650504,0.0,0.0,0.0,0.0,0.0,0.0,0.0,0.0,0.0,0.0,0.0,0.0,0.0,0.0,
0.1023,2.508644904744696,2.508644904744696,2.355703308152825,0.0,0.0,0.0,2.4576643725474057,0.0,0.0,0.0,0.0,0.0,0.0,0.0,0.0,0.0,0.0,0.0,0.0,0.0,0.0,
0.1228,2.508680999510634,2.508680999510634,2.3557327280272764,0.0,0.0,0.0,2.457698242349515,0.0,0.0,0.0,0.0,0.0,0.0,0.0,0.0,0.0,0.0,0.0,0.0,0.0,0.0,
0.1432,2.5087234477344724,2.5087234477344724,2.3557673260453527,0.0,0.0,0.0,2.457738073838099,0.0,0.0,0.0,0.0,0.0,0.0,0.0,0.0,0.0,0.0,0.0,0.0,0.0,0.0,
0.1637,2.508772667189535,2.508772667189535,2.355807442523208,0.0,0.0,0.0,2.457784258967426,0.0,0.0,0.0,0.0,0.0,0.0,0.0,0.0,0.0,0.0,0.0,0.0,0.0,0.0,
0.1842,2.508828467710978,2.508828467710978,2.355852922236398,0.0,0.0,0.0,2.457836619219451,0.0,0.0,0.0,0.0,0.0,0.0,0.0,0.0,0.0,0.0,0.0,0.0,0.0,0.0,
0.2046,2.5088905311272516,2.5088905311272516,2.355903505611344,0.0,0.0,0.0,2.4578948559552827,0.0,0.0,0.0,0.0,0.0,0.0,0.0,0.0,0.0,0.0,0.0,0.0,0.0,0.0,
0.2251,2.5089594682649556,2.5089594682649556,2.355959690201698,0.0,0.0,0.0,2.4579595422438696,0.0,0.0,0.0,0.0,0.0,0.0,0.0,0.0,0.0,0.0,0.0,0.0,0.0,0.0,
0.2456,2.509034993571905,2.509034993571905,2.3560212429541227,0.0,0.0,0.0,2.458030410032644,0.0,0.0,0.0,0.0,0.0,0.0,0.0,0.0,0.0,0.0,0.0,0.0,0.0,0.0,
0.266,2.509116693351605,2.509116693351605,2.356087826370672,0.0,0.0,0.0,2.4581070710246276,0.0,0.0,0.0,0.0,0.0,0.0,0.0,0.0,0.0,0.0,0.0,0.0,0.0,0.0,
0.2865,2.509205371694054,2.509205371694054,2.3561600953878594,0.0,0.0,0.0,2.458190279591989,0.0,0.0,0.0,0.0,0.0,0.0,0.0,0.0,0.0,0.0,0.0,0.0,0.0,0.0,
0.307,2.5093006475642357,2.5093006475642357,2.356237739056928,0.0,0.0,0.0,2.4582796780617997,0.0,0.0,0.0,0.0,0.0,0.0,0.0,0.0,0.0,0.0,0.0,0.0,0.0,0.0,
0.3274,2.509402011601556,2.509402011601556,2.3563203418586496,0.0,0.0,0.0,2.4583747883539204,0.0,0.0,0.0,0.0,0.0,0.0,0.0,0.0,0.0,0.0,0.0,0.0,0.0,0.0,
0.3479,2.509510461436196,2.509510461436196,2.3564087163039535,0.0,0.0,0.0,2.458476546392115,0.0,0.0,0.0,0.0,0.0,0.0,0.0,0.0,0.0,0.0,0.0,0.0,0.0,0.0,
0.3683,2.509624943111146,2.509624943111146,2.3565020030383863,0.0,0.0,0.0,2.458583963086893,0.0,0.0,0.0,0.0,0.0,0.0,0.0,0.0,0.0,0.0,0.0,0.0,0.0,0.0,
0.3888,2.5097465833649597,2.5097465833649597,2.356601119666065,0.0,0.0,0.0,2.458698095465328,0.0,0.0,0.0,0.0,0.0,0.0,0.0,0.0,0.0,0.0,0.0,0.0,0.0,0.0,
0.4093,2.5098748417771075,2.5098748417771075,2.356705625246211,0.0,0.0,0.0,2.458818436266809,0.0,0.0,0.0,0.0,0.0,0.0,0.0,0.0,0.0,0.0,0.0,0.0,0.0,0.0,
0.4297,2.510009049201889,2.510009049201889,2.3568149739902386,0.0,0.0,0.0,2.4589443574646723,0.0,0.0,0.0,0.0,0.0,0.0,0.0,0.0,0.0,0.0,0.0,0.0,0.0,0.0,
0.4502,2.510150526528283,2.510150526528283,2.356930241498796,0.0,0.0,0.0,2.4590770981851207,0.0,0.0,0.0,0.0,0.0,0.0,0.0,0.0,0.0,0.0,0.0,0.0,0.0,0.0,
0.4707,2.5102986374410317,2.5102986374410317,2.357050908648647,0.0,0.0,0.0,2.4592160611769036,0.0,0.0,0.0,0.0,0.0,0.0,0.0,0.0,0.0,0.0,0.0,0.0,0.0,0.0,
0.4911,2.5104526166008583,2.5104526166008583,2.3571763512615016,0.0,0.0,0.0,2.459360528154406,0.0,0.0,0.0,0.0,0.0,0.0,0.0,0.0,0.0,0.0,0.0,0.0,0.0,0.0,
0.5116,2.51061397950357,2.51061397950357,2.357307803250017,0.0,0.0,0.0,2.459511920752386,0.0,0.0,0.0,0.0,0.0,0.0,0.0,0.0,0.0,0.0,0.0,0.0,0.0,0.0,
0.5321,2.5107819937251796,2.5107819937251796,2.3574446671595126,0.0,0.0,0.0,2.459669551536624,0.0,0.0,0.0,0.0,0.0,0.0,0.0,0.0,0.0,0.0,0.0,0.0,0.0,0.0,
0.5525,2.510955797474229,2.510955797474229,2.3575862402421772,0.0,0.0,0.0,2.459832611730212,0.0,0.0,0.0,0.0,0.0,0.0,0.0,0.0,0.0,0.0,0.0,0.0,0.0,0.0,
0.573,2.5111371013779076,2.5111371013779076,2.357733915085105,0.0,0.0,0.0,2.4600027059469736,0.0,0.0,0.0,0.0,0.0,0.0,0.0,0.0,0.0,0.0,0.0,0.0,0.0,0.0,
0.5934,2.5113241435003615,2.5113241435003615,2.357886255720965,0.0,0.0,0.0,2.460178180907229,0.0,0.0,0.0,0.0,0.0,0.0,0.0,0.0,0.0,0.0,0.0,0.0,0.0,0.0,
0.6139,2.5115187647754054,2.5115187647754054,2.3580447606581467,0.0,0.0,0.0,2.460360763402986,0.0,0.0,0.0,0.0,0.0,0.0,0.0,0.0,0.0,0.0,0.0,0.0,0.0,0.0,
0.6344,2.511720072085714,2.511720072085714,2.3582087015394224,0.0,0.0,0.0,2.46054961523695,0.0,0.0,0.0,0.0,0.0,0.0,0.0,0.0,0.0,0.0,0.0,0.0,0.0,0.0,
0.6548,2.511927042274098,2.511927042274098,2.3583772442486186,0.0,0.0,0.0,2.460743776265605,0.0,0.0,0.0,0.0,0.0,0.0,0.0,0.0,0.0,0.0,0.0,0.0,0.0,0.0,
0.6753,2.512141712432767,2.512141712432767,2.358552046677689,0.0,0.0,0.0,2.4609451571810745,0.0,0.0,0.0,0.0,0.0,0.0,0.0,0.0,0.0,0.0,0.0,0.0,0.0,0.0,
0.6958,2.5123630926043092,2.5123630926043092,2.3587323016292236,0.0,0.0,0.0,2.4611528289459472,0.0,0.0,0.0,0.0,0.0,0.0,0.0,0.0,0.0,0.0,0.0,0.0,0.0,0.0,
0.7162,2.512590062327043,2.512590062327043,2.3589170958253947,0.0,0.0,0.0,2.461365740159827,0.0,0.0,0.0,0.0,0.0,0.0,0.0,0.0,0.0,0.0,0.0,0.0,0.0,0.0,
0.7367,2.5128248555609867,2.5128248555609867,2.35910824703112,0.0,0.0,0.0,2.461585986051031,0.0,0.0,0.0,0.0,0.0,0.0,0.0,0.0,0.0,0.0,0.0,0.0,0.0,0.0,
0.7572,2.5130663851731523,2.5130663851731523,2.359304868975674,0.0,0.0,0.0,2.4618125464406595,0.0,0.0,0.0,0.0,0.0,0.0,0.0,0.0,0.0,0.0,0.0,0.0,0.0,0.0,
0.7776,2.513313433015651,2.513313433015651,2.359505968954714,0.0,0.0,0.0,2.4620442783286722,0.0,0.0,0.0,0.0,0.0,0.0,0.0,0.0,0.0,0.0,0.0,0.0,0.0,0.0,
0.7981,2.5135684306963753,2.5135684306963753,2.359713525143859,0.0,0.0,0.0,2.46228346217887,0.0,0.0,0.0,0.0,0.0,0.0,0.0,0.0,0.0,0.0,0.0,0.0,0.0,0.0,
0.8185,2.5138289002092895,2.5138289002092895,2.3599255193522595,0.0,0.0,0.0,2.462527773256946,0.0,0.0,0.0,0.0,0.0,0.0,0.0,0.0,0.0,0.0,0.0,0.0,0.0,0.0,
0.839,2.5140974052883713,2.5140974052883713,2.3601440369313886,0.0,0.0,0.0,2.4627796158360438,0.0,0.0,0.0,0.0,0.0,0.0,0.0,0.0,0.0,0.0,0.0,0.0,0.0,0.0,
0.8595,2.514372696056776,2.514372696056776,2.3603680592832488,0.0,0.0,0.0,2.463037817132267,0.0,0.0,0.0,0.0,0.0,0.0,0.0,0.0,0.0,0.0,0.0,0.0,0.0,0.0,
0.8799,2.51465339066778,2.51465339066778,2.3605964607163346,0.0,0.0,0.0,2.463301080683965,0.0,0.0,0.0,0.0,0.0,0.0,0.0,0.0,0.0,0.0,0.0,0.0,0.0,0.0,
0.9004,2.5149422519623306,2.5149422519623306,2.360831487997576,0.0,0.0,0.0,2.463571997307412,0.0,0.0,0.0,0.0,0.0,0.0,0.0,0.0,0.0,0.0,0.0,0.0,0.0,0.0,
0.9209,2.5152379318268165,2.5152379318268165,2.361072042719223,0.0,0.0,0.0,2.4638493021242853,0.0,0.0,0.0,0.0,0.0,0.0,0.0,0.0,0.0,0.0,0.0,0.0,0.0,0.0,
0.9413,2.515538949540961,2.515538949540961,2.361316918940497,0.0,0.0,0.0,2.464131606007473,0.0,0.0,0.0,0.0,0.0,0.0,0.0,0.0,0.0,0.0,0.0,0.0,0.0,0.0,
0.9618,2.5158482680257275,2.5158482680257275,2.3615685255130403,0.0,0.0,0.0,2.4644216871881652,0.0,0.0,0.0,0.0,0.0,0.0,0.0,0.0,0.0,0.0,0.0,0.0,0.0,0.0,
0.9823,2.5161644404689296,2.5161644404689296,2.3618256838993226,0.0,0.0,0.0,2.4647181882790608,0.0,0.0,0.0,0.0,0.0,0.0,0.0,0.0,0.0,0.0,0.0,0.0,0.0,0.0,
1.0027,2.5164858867664472,2.5164858867664472,2.3620871075562717,0.0,0.0,0.0,2.465019627029722,0.0,0.0,0.0,0.0,0.0,0.0,0.0,0.0,0.0,0.0,0.0,0.0,0.0,0.0,
1.0232,2.5168157709665477,2.5168157709665477,2.3623553681398217,0.0,0.0,0.0,2.4653289700243057,0.0,0.0,0.0,0.0,0.0,0.0,0.0,0.0,0.0,0.0,0.0,0.0,0.0,0.0,
1.0436,2.517150887502212,2.517150887502212,2.362627857287877,0.0,0.0,0.0,2.4656432107641004,0.0,0.0,0.0,0.0,0.0,0.0,0.0,0.0,0.0,0.0,0.0,0.0,0.0,0.0,
1.0641,2.5174945350157434,2.5174945350157434,2.362907255528692,0.0,0.0,0.0,2.465965441853393,0.0,0.0,0.0,0.0,0.0,0.0,0.0,0.0,0.0,0.0,0.0,0.0,0.0,0.0,
1.0846,2.517845101128622,2.517845101128622,2.3631922500417577,0.0,0.0,0.0,2.4662941507663336,0.0,0.0,0.0,0.0,0.0,0.0,0.0,0.0,0.0,0.0,0.0,0.0,0.0,0.0,
1.105,2.5182008389186814,2.5182008389186814,2.363481419139089,0.0,0.0,0.0,2.4666276989921507,0.0,0.0,0.0,0.0,0.0,0.0,0.0,0.0,0.0,0.0,0.0,0.0,0.0,0.0,
1.1255,2.5185652500688165,2.5185652500688165,2.36377760746599,0.0,0.0,0.0,2.4669693692012076,0.0,0.0,0.0,0.0,0.0,0.0,0.0,0.0,0.0,0.0,0.0,0.0,0.0,0.0,
1.146,2.518936622095639,2.518936622095639,2.36407942109934,0.0,0.0,0.0,2.467317555096873,0.0,0.0,0.0,0.0,0.0,0.0,0.0,0.0,0.0,0.0,0.0,0.0,0.0,0.0,
1.1664,2.519313107153555,2.519313107153555,2.3643853566856947,0.0,0.0,0.0,2.467670523664268,0.0,0.0,0.0,0.0,0.0,0.0,0.0,0.0,0.0,0.0,0.0,0.0,0.0,0.0,
1.1869,2.519698411217459,2.519698411217459,2.3646984238447537,0.0,0.0,0.0,2.468031748759891,0.0,0.0,0.0,0.0,0.0,0.0,0.0,0.0,0.0,0.0,0.0,0.0,0.0,0.0,
1.2074,2.5200907211043604,2.5200907211043604,2.365017147140124,0.0,0.0,0.0,2.4683995297829484,0.0,0.0,0.0,0.0,0.0,0.0,0.0,0.0,0.0,0.0,0.0,0.0,0.0,0.0,
1.2278,2.5204880873988,2.5204880873988,2.365339941107406,0.0,0.0,0.0,2.468772038635002,0.0,0.0,0.0,0.0,0.0,0.0,0.0,0.0,0.0,0.0,0.0,0.0,0.0,0.0,
1.2483,2.520894421698314,2.520894421698314,2.365669981251149,0.0,0.0,0.0,2.469152941549259,0.0,0.0,0.0,0.0,0.0,0.0,0.0,0.0,0.0,0.0,0.0,0.0,0.0,0.0,
1.2687,2.5213057758157014,2.5213057758157014,2.3660040586576994,0.0,0.0,0.0,2.469538536763034,0.0,0.0,0.0,0.0,0.0,0.0,0.0,0.0,0.0,0.0,0.0,0.0,0.0,0.0,
1.2892,2.5217261990967526,2.5217261990967526,2.3663454598632567,0.0,0.0,0.0,2.469932619352254,0.0,0.0,0.0,0.0,0.0,0.0,0.0,0.0,0.0,0.0,0.0,0.0,0.0,0.0,
1.3097,2.5221537091567203,2.5221537091567203,2.3666925726384838,0.0,0.0,0.0,2.4703333303173083,0.0,0.0,0.0,0.0,0.0,0.0,0.0,0.0,0.0,0.0,0.0,0.0,0.0,0.0,
1.3301,2.522586185811045,2.522586185811045,2.3670436736514757,0.0,0.0,0.0,2.4707386817578554,0.0,0.0,0.0,0.0,0.0,0.0,0.0,0.0,0.0,0.0,0.0,0.0,0.0,0.0,
1.3506,2.5230278864251368,2.5230278864251368,2.3674022169604596,0.0,0.0,0.0,2.4711526632702445,0.0,0.0,0.0,0.0,0.0,0.0,0.0,0.0,0.0,0.0,0.0,0.0,0.0,0.0,
1.3711,2.5234767261426283,2.5234767261426283,2.3677665076018757,0.0,0.0,0.0,2.4715733199623773,0.0,0.0,0.0,0.0,0.0,0.0,0.0,0.0,0.0,0.0,0.0,0.0,0.0,0.0,
1.3915,2.5239304812944163,2.5239304812944163,2.3681347388164147,0.0,0.0,0.0,2.4719985671350826,0.0,0.0,0.0,0.0,0.0,0.0,0.0,0.0,0.0,0.0,0.0,0.0,0.0,0.0,
1.412,2.5243936188149934,2.5243936188149934,2.3685105332406318,0.0,0.0,0.0,2.472432590290206,0.0,0.0,0.0,0.0,0.0,0.0,0.0,0.0,0.0,0.0,0.0,0.0,0.0,0.0,
1.4325,2.524863950639774,2.524863950639774,2.368892112670402,0.0,0.0,0.0,2.4728733379833163,0.0,0.0,0.0,0.0,0.0,0.0,0.0,0.0,0.0,0.0,0.0,0.0,0.0,0.0,
1.4529,2.5253391488228676,2.5253391488228676,2.369277586375604,0.0,0.0,0.0,2.4733186280071133,0.0,0.0,0.0,0.0,0.0,0.0,0.0,0.0,0.0,0.0,0.0,0.0,0.0,0.0,
1.4734,2.5258238915027356,2.5258238915027356,2.3696707466839984,0.0,0.0,0.0,2.473772843229823,0.0,0.0,0.0,0.0,0.0,0.0,0.0,0.0,0.0,0.0,0.0,0.0,0.0,0.0,
1.4938,2.5263134690183224,2.5263134690183224,2.3700677711903344,0.0,0.0,0.0,2.4742315697423263,0.0,0.0,0.0,0.0,0.0,0.0,0.0,0.0,0.0,0.0,0.0,0.0,0.0,0.0,
1.5143,2.526812701146275,2.526812701146275,2.370472565903629,0.0,0.0,0.0,2.4746993227320595,0.0,0.0,0.0,0.0,0.0,0.0,0.0,0.0,0.0,0.0,0.0,0.0,0.0,0.0,
1.5348,2.527319226117897,2.527319226117897,2.370883212732126,0.0,0.0,0.0,2.47517388832264,0.0,0.0,0.0,0.0,0.0,0.0,0.0,0.0,0.0,0.0,0.0,0.0,0.0,0.0,
1.5552,2.5278305403758665,2.5278305403758665,2.3712976797573413,0.0,0.0,0.0,2.4756529201696913,0.0,0.0,0.0,0.0,0.0,0.0,0.0,0.0,0.0,0.0,0.0,0.0,0.0,0.0,
1.5757,2.5283516778196944,2.5283516778196944,2.371720044662041,0.0,0.0,0.0,2.47614113343381,0.0,0.0,0.0,0.0,0.0,0.0,0.0,0.0,0.0,0.0,0.0,0.0,0.0,0.0,
1.5962,2.5288801713080753,2.5288801713080753,2.372148304629941,0.0,0.0,0.0,2.476636215748697,0.0,0.0,0.0,0.0,0.0,0.0,0.0,0.0,0.0,0.0,0.0,0.0,0.0,0.0,
1.6166,2.5294134106878907,2.5294134106878907,2.37258034218563,0.0,0.0,0.0,2.477135721187137,0.0,0.0,0.0,0.0,0.0,0.0,0.0,0.0,0.0,0.0,0.0,0.0,0.0,0.0,
1.6371,2.5299566458539715,2.5299566458539715,2.3730204079545922,0.0,0.0,0.0,2.4776445665541784,0.0,0.0,0.0,0.0,0.0,0.0,0.0,0.0,0.0,0.0,0.0,0.0,0.0,0.0,
1.6576,2.530507303402734,2.530507303402734,2.373466413787673,0.0,0.0,0.0,2.478160340197714,0.0,0.0,0.0,0.0,0.0,0.0,0.0,0.0,0.0,0.0,0.0,0.0,0.0,0.0,
1.678,2.531062665634971,2.531062665634971,2.373916156004487,0.0,0.0,0.0,2.478680495758143,0.0,0.0,0.0,0.0,0.0,0.0,0.0,0.0,0.0,0.0,0.0,0.0,0.0,0.0,
1.6985,2.5316282004065,2.5316282004065,2.374374059502935,0.0,0.0,0.0,2.479210153438645,0.0,0.0,0.0,0.0,0.0,0.0,0.0,0.0,0.0,0.0,0.0,0.0,0.0,0.0,
1.7189,2.5321984136431075,2.5321984136431075,2.3748356727246844,0.0,0.0,0.0,2.4797441666702995,0.0,0.0,0.0,0.0,0.0,0.0,0.0,0.0,0.0,0.0,0.0,0.0,0.0,0.0,
1.7394,2.5327789195275088,2.5327789195275088,2.375305537423122,0.0,0.0,0.0,2.48028779215938,0.0,0.0,0.0,0.0,0.0,0.0,0.0,0.0,0.0,0.0,0.0,0.0,0.0,0.0,
1.7599,2.533366965513959,2.533366965513959,2.375781421843641,0.0,0.0,0.0,2.480838450957186,0.0,0.0,0.0,0.0,0.0,0.0,0.0,0.0,0.0,0.0,0.0,0.0,0.0,0.0,
1.7803,2.5339596524830927,2.5339596524830927,2.376260977156747,0.0,0.0,0.0,2.481393427374311,0.0,0.0,0.0,0.0,0.0,0.0,0.0,0.0,0.0,0.0,0.0,0.0,0.0,0.0,
1.8008,2.534562816067556,2.534562816067556,2.376748921742358,0.0,0.0,0.0,2.481958184625823,0.0,0.0,0.0,0.0,0.0,0.0,0.0,0.0,0.0,0.0,0.0,0.0,0.0,0.0,
1.8213,2.535173594868996,2.535173594868996,2.377242936747332,0.0,0.0,0.0,2.4825300421617746,0.0,0.0,0.0,0.0,0.0,0.0,0.0,0.0,0.0,0.0,0.0,0.0,0.0,0.0,
1.8417,2.5357889794620982,2.5357889794620982,2.37774058526126,0.0,0.0,0.0,2.483106181395152,0.0,0.0,0.0,0.0,0.0,0.0,0.0,0.0,0.0,0.0,0.0,0.0,0.0,0.0,
1.8622,2.5364150291560907,2.5364150291560907,2.378246763789029,0.0,0.0,0.0,2.483692274033737,0.0,0.0,0.0,0.0,0.0,0.0,0.0,0.0,0.0,0.0,0.0,0.0,0.0,0.0,
1.8827,2.5370487726432827,2.5370487726432827,2.3787590656609447,0.0,0.0,0.0,2.484285536982503,0.0,0.0,0.0,0.0,0.0,0.0,0.0,0.0,0.0,0.0,0.0,0.0,0.0,0.0,
1.9031,2.537687089068779,2.537687089068779,2.3792749651245577,0.0,0.0,0.0,2.4848830477540385,0.0,0.0,0.0,0.0,0.0,0.0,0.0,0.0,0.0,0.0,0.0,0.0,0.0,0.0,
1.9236,2.5383362637481444,2.5383362637481444,2.37979953837419,0.0,0.0,0.0,2.485490688623493,0.0,0.0,0.0,0.0,0.0,0.0,0.0,0.0,0.0,0.0,0.0,0.0,0.0,0.0,
1.944,2.5389899908033824,2.5389899908033824,2.3803276861143,0.0,0.0,0.0,2.4861025559070216,0.0,0.0,0.0,0.0,0.0,0.0,0.0,0.0,0.0,0.0,0.0,0.0,0.0,0.0,
1.9645,2.5396547074432085,2.5396547074432085,2.3808646051360705,0.0,0.0,0.0,2.486724673340829,0.0,0.0,0.0,0.0,0.0,0.0,0.0,0.0,0.0,0.0,0.0,0.0,0.0,0.0,
1.985,2.5403272567581245,2.5403272567581245,2.3814077407760177,0.0,0.0,0.0,2.487354084764089,0.0,0.0,0.0,0.0,0.0,0.0,0.0,0.0,0.0,0.0,0.0,0.0,0.0,0.0,
2.0054,2.541004329604853,2.541004329604853,2.3819544174806975,0.0,0.0,0.0,2.4879876922301345,0.0,0.0,0.0,0.0,0.0,0.0,0.0,0.0,0.0,0.0,0.0,0.0,0.0,0.0,
2.0259,2.5416925933171317,2.5416925933171317,2.3825100144883287,0.0,0.0,0.0,2.4886317337075305,0.0,0.0,0.0,0.0,0.0,0.0,0.0,0.0,0.0,0.0,0.0,0.0,0.0,0.0,
2.0464,2.5423887780182213,2.5423887780182213,2.383071887248653,0.0,0.0,0.0,2.4892831477616983,0.0,0.0,0.0,0.0,0.0,0.0,0.0,0.0,0.0,0.0,0.0,0.0,0.0,0.0,
2.0668,2.5430894598894094,2.5430894598894094,2.3836372691758427,0.0,0.0,0.0,2.489938729651554,0.0,0.0,0.0,0.0,0.0,0.0,0.0,0.0,0.0,0.0,0.0,0.0,0.0,0.0,
2.0873,2.5438015390092352,2.5438015390092352,2.384211723703703,0.0,0.0,0.0,2.4906049339073912,0.0,0.0,0.0,0.0,0.0,0.0,0.0,0.0,0.0,0.0,0.0,0.0,0.0,0.0,
2.1078,2.5445216312925067,2.5445216312925067,2.384792515558062,0.0,0.0,0.0,2.4912785927143584,0.0,0.0,0.0,0.0,0.0,0.0,0.0,0.0,0.0,0.0,0.0,0.0,0.0,0.0,
2.1282,2.5452461969294427,2.5452461969294427,2.38537678623636,0.0,0.0,0.0,2.4919563933650815,0.0,0.0,0.0,0.0,0.0,0.0,0.0,0.0,0.0,0.0,0.0,0.0,0.0,0.0,
2.1487,2.545982371478172,2.545982371478172,2.3859702851889537,0.0,0.0,0.0,2.492645009381766,0.0,0.0,0.0,0.0,0.0,0.0,0.0,0.0,0.0,0.0,0.0,0.0,0.0,0.0,
2.1692,2.5467266553500982,2.5467266553500982,2.3865701855461947,0.0,0.0,0.0,2.4933411654154636,0.0,0.0,0.0,0.0,0.0,0.0,0.0,0.0,0.0,0.0,0.0,0.0,0.0,0.0,
2.1896,2.5474753913725046,2.5474753913725046,2.387173535968834,0.0,0.0,0.0,2.4940414395712813,0.0,0.0,0.0,0.0,0.0,0.0,0.0,0.0,0.0,0.0,0.0,0.0,0.0,0.0,
2.2101,2.5482359534367793,2.5482359534367793,2.3877862738190023,0.0,0.0,0.0,2.4947527268975205,0.0,0.0,0.0,0.0,0.0,0.0,0.0,0.0,0.0,0.0,0.0,0.0,0.0,0.0,
2.2305,2.549000955013713,2.549000955013713,2.3884024434726663,0.0,0.0,0.0,2.4954681178333638,0.0,0.0,0.0,0.0,0.0,0.0,0.0,0.0,0.0,0.0,0.0,0.0,0.0,0.0,
2.251,2.5497779303981334,2.5497779303981334,2.389028108553739,0.0,0.0,0.0,2.496194656450002,0.0,0.0,0.0,0.0,0.0,0.0,0.0,0.0,0.0,0.0,0.0,0.0,0.0,0.0,
2.2715,2.5505631845308994,2.5505631845308994,2.3896602875513344,0.0,0.0,0.0,2.496928885537711,0.0,0.0,0.0,0.0,0.0,0.0,0.0,0.0,0.0,0.0,0.0,0.0,0.0,0.0,
2.2919,2.5513528614929317,2.5513528614929317,2.3902958723057246,0.0,0.0,0.0,2.497667198430529,0.0,0.0,0.0,0.0,0.0,0.0,0.0,0.0,0.0,0.0,0.0,0.0,0.0,0.0,
2.3124,2.5521547389418355,2.5521547389418355,2.3909411176810518,0.0,0.0,0.0,2.4984168651882412,0.0,0.0,0.0,0.0,0.0,0.0,0.0,0.0,0.0,0.0,0.0,0.0,0.0,0.0,
2.3329,2.5529650025865536,2.5529650025865536,2.3915929480723888,0.0,0.0,0.0,2.4991743177484986,0.0,0.0,0.0,0.0,0.0,0.0,0.0,0.0,0.0,0.0,0.0,0.0,0.0,0.0,
2.3533,2.5537796751989905,2.5537796751989905,2.392248159848994,0.0,0.0,0.0,2.4999358367489917,0.0,0.0,0.0,0.0,0.0,0.0,0.0,0.0,0.0,0.0,0.0,0.0,0.0,0.0,
2.3738,2.5546067809900883,2.5546067809900883,2.3929132012189624,0.0,0.0,0.0,2.5007089210663795,0.0,0.0,0.0,0.0,0.0,0.0,0.0,0.0,0.0,0.0,0.0,0.0,0.0,0.0,
2.3943,2.5554423849297208,2.5554423849297208,2.393584901477757,0.0,0.0,0.0,2.501489890445733,0.0,0.0,0.0,0.0,0.0,0.0,0.0,0.0,0.0,0.0,0.0,0.0,0.0,0.0,
2.4147,2.5562823868867284,2.5562823868867284,2.394259960464524,0.0,0.0,0.0,2.5022749114126603,0.0,0.0,0.0,0.0,0.0,0.0,0.0,0.0,0.0,0.0,0.0,0.0,0.0,0.0,
2.4352,2.557135060950678,2.557135060950678,2.3949450219173745,0.0,0.0,0.0,2.5030717146062433,0.0,0.0,0.0,0.0,0.0,0.0,0.0,0.0,0.0,0.0,0.0,0.0,0.0,0.0,
2.4556,2.5579921274003383,2.5579921274003383,2.3956334279774207,0.0,0.0,0.0,2.5038725609260326,0.0,0.0,0.0,0.0,0.0,0.0,0.0,0.0,0.0,0.0,0.0,0.0,0.0,0.0,
2.4761,2.5588620286892274,2.5588620286892274,2.396331953884925,0.0,0.0,0.0,2.504685337087793,0.0,0.0,0.0,0.0,0.0,0.0,0.0,0.0,0.0,0.0,0.0,0.0,0.0,0.0,
2.4966,2.5597406251030557,2.5597406251030557,2.3970372681481136,0.0,0.0,0.0,2.5055061727847416,0.0,0.0,0.0,0.0,0.0,0.0,0.0,0.0,0.0,0.0,0.0,0.0,0.0,0.0,
2.517,2.5606236080197258,2.5606236080197258,2.397745907311976,0.0,0.0,0.0,2.5063310411171424,0.0,0.0,0.0,0.0,0.0,0.0,0.0,0.0,0.0,0.0,0.0,0.0,0.0,0.0,
2.5375,2.561519675624112,2.561519675624112,2.3984648459789932,0.0,0.0,0.0,2.507168065742406,0.0,0.0,0.0,0.0,0.0,0.0,0.0,0.0,0.0,0.0,0.0,0.0,0.0,0.0,
2.558,2.5624245631335443,2.5624245631335443,2.3991906546835375,0.0,0.0,0.0,2.508013260316875,0.0,0.0,0.0,0.0,0.0,0.0,0.0,0.0,0.0,0.0,0.0,0.0,0.0,0.0,
2.5784,2.5633338344465573,2.5633338344465573,2.3999197704152455,0.0,0.0,0.0,2.508862479769453,0.0,0.0,0.0,0.0,0.0,0.0,0.0,0.0,0.0,0.0,0.0,0.0,0.0,0.0,
2.5989,2.5642564471882903,2.5642564471882903,2.4006593695571548,0.0,0.0,0.0,2.509724087977912,0.0,0.0,0.0,0.0,0.0,0.0,0.0,0.0,0.0,0.0,0.0,0.0,0.0,0.0,
2.6194,2.5651880097608957,2.5651880097608957,2.4014059235157967,0.0,0.0,0.0,2.5105939810125295,0.0,0.0,0.0,0.0,0.0,0.0,0.0,0.0,0.0,0.0,0.0,0.0,0.0,0.0,
2.6398,2.5661239567376057,2.5661239567376057,2.402155768511695,0.0,0.0,0.0,2.511467893995636,0.0,0.0,0.0,0.0,0.0,0.0,0.0,0.0,0.0,0.0,0.0,0.0,0.0,0.0,
2.6603,2.5670735090468755,2.5670735090468755,2.402916285218898,0.0,0.0,0.0,2.5123544344375497,0.0,0.0,0.0,0.0,0.0,0.0,0.0,0.0,0.0,0.0,0.0,0.0,0.0,0.0,
