energies(eV),real_xx,real_yy,real_zz,real_xy,real_yz,real_xz,real_ave,imag_xx,imag_yy,imag_zz,imag_xy,imag_yz,imag_xz,imag_ave,absorption_xx,absorption_yy,absorption_zz,absorption_xy,absorption_yz,absorption_xz,absorption_ave,band_gap
0.0,2.475028871764332,2.552878236532872,2.7523376648760354,0.0,0.0,0.0,2.59341492439108,0.0,0.0,0.0,0.0,0.0,0.0,0.0,0.0,0.0,0.0,0.0,0.0,0.0,0.0,3.5477
0.0132,2.475032054121769,2.552881824890301,2.7523422055308915,0.0,0.0,0.0,2.593418694847654,0.0,0.0,0.0,0.0,0.0,0.0,0.0,0.0,0.0,0.0,0.0,0.0,0.0,0.0,
0.0265,2.4750416980000107,2.552892699116044,2.752355965600646,0.0,0.0,0.0,2.593430120905567,0.0,0.0,0.0,0.0,0.0,0.0,0.0,0.0,0.0,0.0,0.0,0.0,0.0,0.0,
0.0397,2.475057658938015,2.552910696310704,2.7523787389075176,0.0,0.0,0.0,2.593449031385412,0.0,0.0,0.0,0.0,0.0,0.0,0.0,0.0,0.0,0.0,0.0,0.0,0.0,0.0,
0.0529,2.475079986263782,2.5529358720816475,2.7524105957374254,0.0,0.0,0.0,2.593475484694285,0.0,0.0,0.0,0.0,0.0,0.0,0.0,0.0,0.0,0.0,0.0,0.0,0.0,0.0,
0.0662,2.475108922968273,2.5529685004000915,2.7524518826543254,0.0,0.0,0.0,2.5935097686742297,0.0,0.0,0.0,0.0,0.0,0.0,0.0,0.0,0.0,0.0,0.0,0.0,0.0,0.0,
0.0794,2.475144035593239,2.5530080924841205,2.7525019810250724,0.0,0.0,0.0,2.5935513697008106,0.0,0.0,0.0,0.0,0.0,0.0,0.0,0.0,0.0,0.0,0.0,0.0,0.0,0.0,
0.0926,2.4751855196277908,2.553054868732137,2.752561169562332,0.0,0.0,0.0,2.59360051930742,0.0,0.0,0.0,0.0,0.0,0.0,0.0,0.0,0.0,0.0,0.0,0.0,0.0,0.0,
0.1059,2.4752337643775792,2.5531092680771827,2.752630003459646,0.0,0.0,0.0,2.593657678638136,0.0,0.0,0.0,0.0,0.0,0.0,0.0,0.0,0.0,0.0,0.0,0.0,0.0,0.0,
0.1191,2.4752880471614778,2.5531704756036144,2.7527074513292495,0.0,0.0,0.0,2.5937219913647804,0.0,0.0,0.0,0.0,0.0,0.0,0.0,0.0,0.0,0.0,0.0,0.0,0.0,0.0,
0.1323,2.475348709735405,2.5532388766182303,2.752794000449324,0.0,0.0,0.0,2.593793862267653,0.0,0.0,0.0,0.0,0.0,0.0,0.0,0.0,0.0,0.0,0.0,0.0,0.0,0.0,
0.1456,2.475416287927999,2.5533150752474594,2.7528904149174025,0.0,0.0,0.0,2.5938739260309536,0.0,0.0,0.0,0.0,0.0,0.0,0.0,0.0,0.0,0.0,0.0,0.0,0.0,0.0,
0.1588,2.475489769458793,2.5533979300227134,2.752995250091763,0.0,0.0,0.0,2.59396098319109,0.0,0.0,0.0,0.0,0.0,0.0,0.0,0.0,0.0,0.0,0.0,0.0,0.0,0.0,
0.172,2.4755696425347358,2.55348799136391,2.753109202058366,0.0,0.0,0.0,2.5940556119856706,0.0,0.0,0.0,0.0,0.0,0.0,0.0,0.0,0.0,0.0,0.0,0.0,0.0,0.0,
0.1853,2.4756565897949985,2.5535860289103236,2.753233244197091,0.0,0.0,0.0,2.594158620967471,0.0,0.0,0.0,0.0,0.0,0.0,0.0,0.0,0.0,0.0,0.0,0.0,0.0,0.0,
0.1985,2.4757493088315794,2.5536905740524776,2.753365517912119,0.0,0.0,0.0,2.594268466932059,0.0,0.0,0.0,0.0,0.0,0.0,0.0,0.0,0.0,0.0,0.0,0.0,0.0,0.0,
0.2117,2.4758484345658065,2.553802342615885,2.753506928443266,0.0,0.0,0.0,2.5943859018749857,0.0,0.0,0.0,0.0,0.0,0.0,0.0,0.0,0.0,0.0,0.0,0.0,0.0,0.0,
0.225,2.4759547968145483,2.553922270160635,2.7536586589357057,0.0,0.0,0.0,2.5945119086369632,0.0,0.0,0.0,0.0,0.0,0.0,0.0,0.0,0.0,0.0,0.0,0.0,0.0,0.0,
0.2382,2.4760668023615775,2.554048560178619,2.753818435937522,0.0,0.0,0.0,2.594644599492573,0.0,0.0,0.0,0.0,0.0,0.0,0.0,0.0,0.0,0.0,0.0,0.0,0.0,0.0,
0.2514,2.4761852331853844,2.554182094281738,2.7539873742928322,0.0,0.0,0.0,2.5947849005866512,0.0,0.0,0.0,0.0,0.0,0.0,0.0,0.0,0.0,0.0,0.0,0.0,0.0,0.0,
0.2647,2.4763110667281936,2.554323974448187,2.7541668675004205,0.0,0.0,0.0,2.5949339695589337,0.0,0.0,0.0,0.0,0.0,0.0,0.0,0.0,0.0,0.0,0.0,0.0,0.0,0.0,
0.2779,2.4764424181308664,2.5544720753422174,2.7543542261469756,0.0,0.0,0.0,2.5950895732066868,0.0,0.0,0.0,0.0,0.0,0.0,0.0,0.0,0.0,0.0,0.0,0.0,0.0,0.0,
0.2911,2.4765802168521813,2.5546274448320507,2.75455077523649,0.0,0.0,0.0,2.5952528123069074,0.0,0.0,0.0,0.0,0.0,0.0,0.0,0.0,0.0,0.0,0.0,0.0,0.0,0.0,
0.3044,2.476725588488664,2.5547913519013914,2.7547581193159836,0.0,0.0,0.0,2.595425019902013,0.0,0.0,0.0,0.0,0.0,0.0,0.0,0.0,0.0,0.0,0.0,0.0,0.0,0.0,
0.3176,2.476876355548134,2.554961341285127,2.754973151700428,0.0,0.0,0.0,2.5956036161778964,0.0,0.0,0.0,0.0,0.0,0.0,0.0,0.0,0.0,0.0,0.0,0.0,0.0,0.0,
0.3308,2.4770335954737916,2.555138627667538,2.7551974082153032,0.0,0.0,0.0,2.5957898771188774,0.0,0.0,0.0,0.0,0.0,0.0,0.0,0.0,0.0,0.0,0.0,0.0,0.0,0.0,
0.3441,2.4771985826278096,2.555324647716702,2.75543270525793,0.0,0.0,0.0,2.5959853118674805,0.0,0.0,0.0,0.0,0.0,0.0,0.0,0.0,0.0,0.0,0.0,0.0,0.0,0.0,
0.3573,2.477368845737468,2.55551661496144,2.755675517354197,0.0,0.0,0.0,2.5961869926843684,0.0,0.0,0.0,0.0,0.0,0.0,0.0,0.0,0.0,0.0,0.0,0.0,0.0,0.0,
0.3705,2.477545610816613,2.5557159115529418,2.755927591919785,0.0,0.0,0.0,2.59639637142978,0.0,0.0,0.0,0.0,0.0,0.0,0.0,0.0,0.0,0.0,0.0,0.0,0.0,0.0,
0.3838,2.477730301688072,2.555924142615113,2.7561909581130637,0.0,0.0,0.0,2.5966151341387493,0.0,0.0,0.0,0.0,0.0,0.0,0.0,0.0,0.0,0.0,0.0,0.0,0.0,0.0,
0.397,2.4779201519914986,2.5561381890168478,2.7564616699440885,0.0,0.0,0.0,2.596840003650812,0.0,0.0,0.0,0.0,0.0,0.0,0.0,0.0,0.0,0.0,0.0,0.0,0.0,0.0,
0.4102,2.478116536980841,2.5563596011192997,2.7567416872957953,0.0,0.0,0.0,2.597072608465312,0.0,0.0,0.0,0.0,0.0,0.0,0.0,0.0,0.0,0.0,0.0,0.0,0.0,0.0,
0.4235,2.478321030719673,2.5565901533678463,2.75703325310859,0.0,0.0,0.0,2.5973148123987033,0.0,0.0,0.0,0.0,0.0,0.0,0.0,0.0,0.0,0.0,0.0,0.0,0.0,0.0,
0.4367,2.4785305702907516,2.5568263923376566,2.7573319989378375,0.0,0.0,0.0,2.5975629871887485,0.0,0.0,0.0,0.0,0.0,0.0,0.0,0.0,0.0,0.0,0.0,0.0,0.0,0.0,
0.4499,2.4787466809423355,2.5570700374367163,2.7576400981205325,0.0,0.0,0.0,2.597818938833195,0.0,0.0,0.0,0.0,0.0,0.0,0.0,0.0,0.0,0.0,0.0,0.0,0.0,0.0,
0.4632,2.4789710878454,2.5573230333932755,2.757960008512002,0.0,0.0,0.0,2.598084709916893,0.0,0.0,0.0,0.0,0.0,0.0,0.0,0.0,0.0,0.0,0.0,0.0,0.0,0.0,
0.4764,2.479200429891625,2.557581590672075,2.75828693705888,0.0,0.0,0.0,2.598356319207527,0.0,0.0,0.0,0.0,0.0,0.0,0.0,0.0,0.0,0.0,0.0,0.0,0.0,0.0,
0.4896,2.479436383163886,2.5578475986600973,2.7586232716504013,0.0,0.0,0.0,2.598635751158128,0.0,0.0,0.0,0.0,0.0,0.0,0.0,0.0,0.0,0.0,0.0,0.0,0.0,0.0,
0.5029,2.479680824895796,2.558123173427654,2.7589716863035436,0.0,0.0,0.0,2.5989252282089983,0.0,0.0,0.0,0.0,0.0,0.0,0.0,0.0,0.0,0.0,0.0,0.0,0.0,0.0,
0.5161,2.4799300939854536,2.5584041873260444,2.75932696098349,0.0,0.0,0.0,2.5992204140983293,0.0,0.0,0.0,0.0,0.0,0.0,0.0,0.0,0.0,0.0,0.0,0.0,0.0,0.0,
0.5293,2.4801860182787037,2.5586927007505538,2.759691699343213,0.0,0.0,0.0,2.5995234727908234,0.0,0.0,0.0,0.0,0.0,0.0,0.0,0.0,0.0,0.0,0.0,0.0,0.0,0.0,
0.5426,2.4804506281173815,2.5589910022725606,2.7600687929237626,0.0,0.0,0.0,2.599836807771235,0.0,0.0,0.0,0.0,0.0,0.0,0.0,0.0,0.0,0.0,0.0,0.0,0.0,0.0,
0.5558,2.4807199604318093,2.559294623936813,2.7604525921139187,0.0,0.0,0.0,2.6001557254941803,0.0,0.0,0.0,0.0,0.0,0.0,0.0,0.0,0.0,0.0,0.0,0.0,0.0,0.0,
0.569,2.4809959958489918,2.559605798275492,2.760845917656985,0.0,0.0,0.0,2.600482570593823,0.0,0.0,0.0,0.0,0.0,0.0,0.0,0.0,0.0,0.0,0.0,0.0,0.0,0.0,
0.5823,2.4812809189572302,2.559926987622152,2.7612518800988246,0.0,0.0,0.0,2.6008199288927356,0.0,0.0,0.0,0.0,0.0,0.0,0.0,0.0,0.0,0.0,0.0,0.0,0.0,0.0,
0.5955,2.48157046256918,2.560253381327592,2.761664397430086,0.0,0.0,0.0,2.6011627471089525,0.0,0.0,0.0,0.0,0.0,0.0,0.0,0.0,0.0,0.0,0.0,0.0,0.0,0.0,
0.6087,2.481866761203216,2.5605873852909817,2.7620865089286344,0.0,0.0,0.0,2.6015135518076105,0.0,0.0,0.0,0.0,0.0,0.0,0.0,0.0,0.0,0.0,0.0,0.0,0.0,0.0,
0.622,2.4821721549274764,2.5609316369738577,2.7625215457463814,0.0,0.0,0.0,2.6018751125492385,0.0,0.0,0.0,0.0,0.0,0.0,0.0,0.0,0.0,0.0,0.0,0.0,0.0,0.0,
0.6352,2.482482070106916,2.5612809804468664,2.7629629904230995,0.0,0.0,0.0,2.6022420136589606,0.0,0.0,0.0,0.0,0.0,0.0,0.0,0.0,0.0,0.0,0.0,0.0,0.0,0.0,
0.6484,2.4827987963559623,2.561637996310174,2.7634141023352408,0.0,0.0,0.0,2.602616965000459,0.0,0.0,0.0,0.0,0.0,0.0,0.0,0.0,0.0,0.0,0.0,0.0,0.0,0.0,
0.6617,2.4831248305536393,2.56200549862662,2.7638784349654646,0.0,0.0,0.0,2.603002921381908,0.0,0.0,0.0,0.0,0.0,0.0,0.0,0.0,0.0,0.0,0.0,0.0,0.0,0.0,
0.6749,2.483455290102481,2.5623779833966402,2.764349032113734,0.0,0.0,0.0,2.603394101870952,0.0,0.0,0.0,0.0,0.0,0.0,0.0,0.0,0.0,0.0,0.0,0.0,0.0,0.0,
0.6881,2.483792621014549,2.5627582073621067,2.764829374941751,0.0,0.0,0.0,2.603793401106136,0.0,0.0,0.0,0.0,0.0,0.0,0.0,0.0,0.0,0.0,0.0,0.0,0.0,0.0,
0.7014,2.48413947841154,2.5631491627709933,2.76532324111394,0.0,0.0,0.0,2.6042039607654908,0.0,0.0,0.0,0.0,0.0,0.0,0.0,0.0,0.0,0.0,0.0,0.0,0.0,0.0,
0.7146,2.484490668028746,2.5635449945541455,2.7658232321599376,0.0,0.0,0.0,2.604619631580943,0.0,0.0,0.0,0.0,0.0,0.0,0.0,0.0,0.0,0.0,0.0,0.0,0.0,0.0,
0.7278,2.4848487936773935,2.5639486371456064,2.766333052838835,0.0,0.0,0.0,2.605043494553945,0.0,0.0,0.0,0.0,0.0,0.0,0.0,0.0,0.0,0.0,0.0,0.0,0.0,0.0,
0.7411,2.485216670257396,2.5643632626761046,2.7668567069774403,0.0,0.0,0.0,2.6054788799703137,0.0,0.0,0.0,0.0,0.0,0.0,0.0,0.0,0.0,0.0,0.0,0.0,0.0,0.0,
0.7543,2.4855887889363824,2.5647826617922966,2.767386350057108,0.0,0.0,0.0,2.6059192669285958,0.0,0.0,0.0,0.0,0.0,0.0,0.0,0.0,0.0,0.0,0.0,0.0,0.0,0.0,
0.7675,2.4859679128292163,2.5652099482836714,2.767925912375121,0.0,0.0,0.0,2.606367924496003,0.0,0.0,0.0,0.0,0.0,0.0,0.0,0.0,0.0,0.0,0.0,0.0,0.0,0.0,
0.7808,2.4863570182568484,2.565648475978921,2.768479626034302,0.0,0.0,0.0,2.6068283734233573,0.0,0.0,0.0,0.0,0.0,0.0,0.0,0.0,0.0,0.0,0.0,0.0,0.0,0.0,
0.794,2.486750278717065,2.5660916778041427,2.7690391964360304,0.0,0.0,0.0,2.607293717652413,0.0,0.0,0.0,0.0,0.0,0.0,0.0,0.0,0.0,0.0,0.0,0.0,0.0,0.0,
0.8072,2.487150618239121,2.5665428486840938,2.769608781488553,0.0,0.0,0.0,2.6077674161372557,0.0,0.0,0.0,0.0,0.0,0.0,0.0,0.0,0.0,0.0,0.0,0.0,0.0,0.0,
0.8205,2.487561176318893,2.5670055260818643,2.7701928438212566,0.0,0.0,0.0,2.6082531820740047,0.0,0.0,0.0,0.0,0.0,0.0,0.0,0.0,0.0,0.0,0.0,0.0,0.0,0.0,
0.8337,2.4879758054736847,2.5674727815380303,2.770782634463103,0.0,0.0,0.0,2.608743740491606,0.0,0.0,0.0,0.0,0.0,0.0,0.0,0.0,0.0,0.0,0.0,0.0,0.0,0.0,
0.8469,2.488397592367959,2.567948093012685,2.771382541141964,0.0,0.0,0.0,2.6092427421742026,0.0,0.0,0.0,0.0,0.0,0.0,0.0,0.0,0.0,0.0,0.0,0.0,0.0,0.0,
0.8602,2.488829841541415,2.568435183665356,2.771997259405094,0.0,0.0,0.0,2.6097540948706217,0.0,0.0,0.0,0.0,0.0,0.0,0.0,0.0,0.0,0.0,0.0,0.0,0.0,0.0,
0.8734,2.489266081004683,2.5689267597499033,2.7726175813486345,0.0,0.0,0.0,2.6102701407010733,0.0,0.0,0.0,0.0,0.0,0.0,0.0,0.0,0.0,0.0,0.0,0.0,0.0,0.0,
0.8866,2.489709561892157,2.56942648428627,2.773248126868382,0.0,0.0,0.0,2.6107947243489362,0.0,0.0,0.0,0.0,0.0,0.0,0.0,0.0,0.0,0.0,0.0,0.0,0.0,0.0,
0.8999,2.490163755775785,2.5699382683226197,2.773893826966116,0.0,0.0,0.0,2.6113319503548404,0.0,0.0,0.0,0.0,0.0,0.0,0.0,0.0,0.0,0.0,0.0,0.0,0.0,0.0,
0.9131,2.4906218624099026,2.5704544486805814,2.7745450099687607,0.0,0.0,0.0,2.611873773686415,0.0,0.0,0.0,0.0,0.0,0.0,0.0,0.0,0.0,0.0,0.0,0.0,0.0,0.0,
0.9263,2.4910872993519204,2.570978875593294,2.775206530432352,0.0,0.0,0.0,2.6124242351258555,0.0,0.0,0.0,0.0,0.0,0.0,0.0,0.0,0.0,0.0,0.0,0.0,0.0,0.0,
0.9396,2.4915637073186314,2.571515650324878,2.7758835574997676,0.0,0.0,0.0,2.6129876383810924,0.0,0.0,0.0,0.0,0.0,0.0,0.0,0.0,0.0,0.0,0.0,0.0,0.0,0.0,
0.9528,2.4920439538267005,2.572056735866074,2.7765659506078206,0.0,0.0,0.0,2.613555546766865,0.0,0.0,0.0,0.0,0.0,0.0,0.0,0.0,0.0,0.0,0.0,0.0,0.0,0.0,
0.966,2.492531624932543,2.572606171950402,2.777258801613768,0.0,0.0,0.0,2.6141321994989046,0.0,0.0,0.0,0.0,0.0,0.0,0.0,0.0,0.0,0.0,0.0,0.0,0.0,0.0,
0.9793,2.493030532739823,2.573168252525636,2.7779675206431245,0.0,0.0,0.0,2.614722101969528,0.0,0.0,0.0,0.0,0.0,0.0,0.0,0.0,0.0,0.0,0.0,0.0,0.0,0.0,
0.9925,2.4935332083052915,2.5737345620903858,2.778681492828094,0.0,0.0,0.0,2.6153164210745903,0.0,0.0,0.0,0.0,0.0,0.0,0.0,0.0,0.0,0.0,0.0,0.0,0.0,0.0,
1.0057,2.494043408388404,2.5743093323047015,2.7794060501216693,0.0,0.0,0.0,2.6159195969382583,0.0,0.0,0.0,0.0,0.0,0.0,0.0,0.0,0.0,0.0,0.0,0.0,0.0,0.0,
1.019,2.4945651188566305,2.574897052413977,2.780146846633934,0.0,0.0,0.0,2.616536339301514,0.0,0.0,0.0,0.0,0.0,0.0,0.0,0.0,0.0,0.0,0.0,0.0,0.0,0.0,
1.0322,2.4950905298339503,2.575488923490618,2.7808927874746545,0.0,0.0,0.0,2.6171574135997413,0.0,0.0,0.0,0.0,0.0,0.0,0.0,0.0,0.0,0.0,0.0,0.0,0.0,0.0,
1.0454,2.4956235711203467,2.5760893716920203,2.781649447645899,0.0,0.0,0.0,2.6177874634860885,0.0,0.0,0.0,0.0,0.0,0.0,0.0,0.0,0.0,0.0,0.0,0.0,0.0,0.0,
1.0587,2.4961684048650508,2.576703084327522,2.782422728410457,0.0,0.0,0.0,2.6184314058676765,0.0,0.0,0.0,0.0,0.0,0.0,0.0,0.0,0.0,0.0,0.0,0.0,0.0,0.0,
1.0719,2.496716875525176,2.577320873825562,2.7832010488239227,0.0,0.0,0.0,2.619079599391554,0.0,0.0,0.0,0.0,0.0,0.0,0.0,0.0,0.0,0.0,0.0,0.0,0.0,0.0,
1.0851,2.4972730884181598,2.577947363562437,2.783990230055358,0.0,0.0,0.0,2.619736894011985,0.0,0.0,0.0,0.0,0.0,0.0,0.0,0.0,0.0,0.0,0.0,0.0,0.0,0.0,
1.0984,2.497841384640373,2.5785874418369117,2.7847964238608522,0.0,0.0,0.0,2.620408416779379,0.0,0.0,0.0,0.0,0.0,0.0,0.0,0.0,0.0,0.0,0.0,0.0,0.0,0.0,
1.1116,2.4984132579754714,2.579231526920094,2.785607556884954,0.0,0.0,0.0,2.6210841139268397,0.0,0.0,0.0,0.0,0.0,0.0,0.0,0.0,0.0,0.0,0.0,0.0,0.0,0.0,
1.1248,2.4989929918810208,2.57988444228607,2.786429699752393,0.0,0.0,0.0,2.621769044639828,0.0,0.0,0.0,0.0,0.0,0.0,0.0,0.0,0.0,0.0,0.0,0.0,0.0,0.0,
1.1381,2.4995851092204417,2.5805512803148876,2.7872692582321608,0.0,0.0,0.0,2.62246854925583,0.0,0.0,0.0,0.0,0.0,0.0,0.0,0.0,0.0,0.0,0.0,0.0,0.0,0.0,
1.1513,2.5001807478125455,2.5812220592986668,2.7881136598638356,0.0,0.0,0.0,2.623172155658349,0.0,0.0,0.0,0.0,0.0,0.0,0.0,0.0,0.0,0.0,0.0,0.0,0.0,0.0,
1.1645,2.5007843720303713,2.5819018058526835,2.7889692281936664,0.0,0.0,0.0,2.623885135358907,0.0,0.0,0.0,0.0,0.0,0.0,0.0,0.0,0.0,0.0,0.0,0.0,0.0,0.0,
1.1778,2.5014006894864957,2.582595819704289,2.7898426267094436,0.0,0.0,0.0,2.624613045300076,0.0,0.0,0.0,0.0,0.0,0.0,0.0,0.0,0.0,0.0,0.0,0.0,0.0,0.0,
1.191,2.502020476445368,2.583293713022976,2.7907207768019084,0.0,0.0,0.0,2.625344988756751,0.0,0.0,0.0,0.0,0.0,0.0,0.0,0.0,0.0,0.0,0.0,0.0,0.0,0.0,
1.2042,2.502648381131091,2.584000718780751,2.7916102585889266,0.0,0.0,0.0,2.6260864528335897,0.0,0.0,0.0,0.0,0.0,0.0,0.0,0.0,0.0,0.0,0.0,0.0,0.0,0.0,
1.2175,2.5032892990578164,2.5847223475009202,2.7925179971768737,0.0,0.0,0.0,2.6268432145785368,0.0,0.0,0.0,0.0,0.0,0.0,0.0,0.0,0.0,0.0,0.0,0.0,0.0,0.0,
1.2307,2.503933639033892,2.585447798750031,2.7934304004001027,0.0,0.0,0.0,2.627603946061342,0.0,0.0,0.0,0.0,0.0,0.0,0.0,0.0,0.0,0.0,0.0,0.0,0.0,0.0,
1.2439,2.5045862362383184,2.5861825152527773,2.794354308790016,0.0,0.0,0.0,2.6283743534270374,0.0,0.0,0.0,0.0,0.0,0.0,0.0,0.0,0.0,0.0,0.0,0.0,0.0,0.0,
1.2572,2.505252177418577,2.586932221968814,2.7952969131735066,0.0,0.0,0.0,2.6291604375202993,0.0,0.0,0.0,0.0,0.0,0.0,0.0,0.0,0.0,0.0,0.0,0.0,0.0,0.0,
1.2704,2.5059214976974538,2.587685699028888,2.796244100042541,0.0,0.0,0.0,2.6299504322562943,0.0,0.0,0.0,0.0,0.0,0.0,0.0,0.0,0.0,0.0,0.0,0.0,0.0,0.0,
1.2836,2.506599222489749,2.5884486024956974,2.7972029743838975,0.0,0.0,0.0,2.630750266456448,0.0,0.0,0.0,0.0,0.0,0.0,0.0,0.0,0.0,0.0,0.0,0.0,0.0,0.0,
1.2969,2.5072906332969858,2.589226875607312,2.798180997057764,0.0,0.0,0.0,2.6315661686540204,0.0,0.0,0.0,0.0,0.0,0.0,0.0,0.0,0.0,0.0,0.0,0.0,0.0,0.0,
1.3101,2.507985384982624,2.590008871856062,2.7991635250337517,0.0,0.0,0.0,2.6323859272908128,0.0,0.0,0.0,0.0,0.0,0.0,0.0,0.0,0.0,0.0,0.0,0.0,0.0,0.0,
1.3233,2.5086886966647315,2.5908004644271587,2.800157932004293,0.0,0.0,0.0,2.6332156976987275,0.0,0.0,0.0,0.0,0.0,0.0,0.0,0.0,0.0,0.0,0.0,0.0,0.0,0.0,
1.3366,2.5094060483190446,2.59160781889131,2.80117195339608,0.0,0.0,0.0,2.634061940202145,0.0,0.0,0.0,0.0,0.0,0.0,0.0,0.0,0.0,0.0,0.0,0.0,0.0,0.0,
1.3498,2.510126707613726,2.5924188545118865,2.8021904080654316,0.0,0.0,0.0,2.6349119900636815,0.0,0.0,0.0,0.0,0.0,0.0,0.0,0.0,0.0,0.0,0.0,0.0,0.0,0.0,
1.363,2.5108560910343938,2.593239665590554,2.8032209428785544,0.0,0.0,0.0,2.635772233167834,0.0,0.0,0.0,0.0,0.0,0.0,0.0,0.0,0.0,0.0,0.0,0.0,0.0,0.0,
1.3763,2.511599880962036,2.5940766443087924,2.8042715725923912,0.0,0.0,0.0,2.6366493659544066,0.0,0.0,0.0,0.0,0.0,0.0,0.0,0.0,0.0,0.0,0.0,0.0,0.0,0.0,
1.3895,2.5123469505518994,2.5949172677024133,2.8053265689300604,0.0,0.0,0.0,2.637530262394791,0.0,0.0,0.0,0.0,0.0,0.0,0.0,0.0,0.0,0.0,0.0,0.0,0.0,0.0,
1.4027,2.513102917529525,2.595767855404527,2.8063938566275084,0.0,0.0,0.0,2.638421543187187,0.0,0.0,0.0,0.0,0.0,0.0,0.0,0.0,0.0,0.0,0.0,0.0,0.0,0.0,
1.416,2.5138736708353457,2.5966350307216906,2.8074817347769994,0.0,0.0,0.0,2.6393301454446783,0.0,0.0,0.0,0.0,0.0,0.0,0.0,0.0,0.0,0.0,0.0,0.0,0.0,0.0,
1.4292,2.5146476813915135,2.5975058200343506,2.8085739185004397,0.0,0.0,0.0,2.6402424733087675,0.0,0.0,0.0,0.0,0.0,0.0,0.0,0.0,0.0,0.0,0.0,0.0,0.0,0.0,
1.4424,2.5154307722560336,2.598386772755097,2.8096786153378766,0.0,0.0,0.0,2.6411653867830025,0.0,0.0,0.0,0.0,0.0,0.0,0.0,0.0,0.0,0.0,0.0,0.0,0.0,0.0,
1.4557,2.516229043319627,2.599284748079815,2.8108044139751263,0.0,0.0,0.0,2.6421060684581894,0.0,0.0,0.0,0.0,0.0,0.0,0.0,0.0,0.0,0.0,0.0,0.0,0.0,0.0,
1.4689,2.5170305551259267,2.600186312853239,2.811934462996013,0.0,0.0,0.0,2.643050443658393,0.0,0.0,0.0,0.0,0.0,0.0,0.0,0.0,0.0,0.0,0.0,0.0,0.0,0.0,
1.4821,2.5178413403913686,2.60109825096208,2.813077257929048,0.0,0.0,0.0,2.644005616427499,0.0,0.0,0.0,0.0,0.0,0.0,0.0,0.0,0.0,0.0,0.0,0.0,0.0,0.0,
1.4954,2.518667714598984,2.6020276625202494,2.814241682577463,0.0,0.0,0.0,2.6449790198988987,0.0,0.0,0.0,0.0,0.0,0.0,0.0,0.0,0.0,0.0,0.0,0.0,0.0,0.0,
1.5086,2.5194973193186985,2.602960645479084,2.8154103085591142,0.0,0.0,0.0,2.6459560911189652,0.0,0.0,0.0,0.0,0.0,0.0,0.0,0.0,0.0,0.0,0.0,0.0,0.0,0.0,
1.5218,2.520336401499091,2.603904223154907,2.816591924837787,0.0,0.0,0.0,2.6469441831639284,0.0,0.0,0.0,0.0,0.0,0.0,0.0,0.0,0.0,0.0,0.0,0.0,0.0,0.0,
1.5351,2.5211914971247564,2.604865741888942,2.817795716137044,0.0,0.0,0.0,2.647950985050248,0.0,0.0,0.0,0.0,0.0,0.0,0.0,0.0,0.0,0.0,0.0,0.0,0.0,0.0,
1.5483,2.5220498197202845,2.605830820876939,2.8190036661664117,0.0,0.0,0.0,2.6489614355878786,0.0,0.0,0.0,0.0,0.0,0.0,0.0,0.0,0.0,0.0,0.0,0.0,0.0,0.0,
1.5615,2.5229178353035127,2.6068067280970837,2.820224863047169,0.0,0.0,0.0,2.6499831421492552,0.0,0.0,0.0,0.0,0.0,0.0,0.0,0.0,0.0,0.0,0.0,0.0,0.0,0.0,
1.5748,2.5238023055544803,2.6078010617249383,2.8214687985199793,0.0,0.0,0.0,2.651024055266466,0.0,0.0,0.0,0.0,0.0,0.0,0.0,0.0,0.0,0.0,0.0,0.0,0.0,0.0,
1.588,2.524690006375396,2.6087989518049524,2.82271685690345,0.0,0.0,0.0,2.652068605027933,0.0,0.0,0.0,0.0,0.0,0.0,0.0,0.0,0.0,0.0,0.0,0.0,0.0,0.0,
1.6012,2.5255876279711673,2.609807916503056,2.823978431488624,0.0,0.0,0.0,2.6531246586542823,0.0,0.0,0.0,0.0,0.0,0.0,0.0,0.0,0.0,0.0,0.0,0.0,0.0,0.0,
1.6145,2.5265021632145586,2.6108358117530317,2.825263327439285,0.0,0.0,0.0,2.654200434135625,0.0,0.0,0.0,0.0,0.0,0.0,0.0,0.0,0.0,0.0,0.0,0.0,0.0,0.0,
1.6277,2.527419940271839,2.611867267486951,2.826552317633263,0.0,0.0,0.0,2.655279841797351,0.0,0.0,0.0,0.0,0.0,0.0,0.0,0.0,0.0,0.0,0.0,0.0,0.0,0.0,
1.6409,2.5283478789518554,2.612910057896743,2.8278551068488884,0.0,0.0,0.0,2.656371014565829,0.0,0.0,0.0,0.0,0.0,0.0,0.0,0.0,0.0,0.0,0.0,0.0,0.0,0.0,
1.6542,2.5292932091418616,2.613972302935635,2.8291818204053456,0.0,0.0,0.0,2.6574824441609475,0.0,0.0,0.0,0.0,0.0,0.0,0.0,0.0,0.0,0.0,0.0,0.0,0.0,0.0,
1.6674,2.530241800587674,2.615038120862677,2.8305126070931026,0.0,0.0,0.0,2.6585975095144847,0.0,0.0,0.0,0.0,0.0,0.0,0.0,0.0,0.0,0.0,0.0,0.0,0.0,0.0,
1.6806,2.5312008084387765,2.6161155480666314,2.8318574898172746,0.0,0.0,0.0,2.659724615440894,0.0,0.0,0.0,0.0,0.0,0.0,0.0,0.0,0.0,0.0,0.0,0.0,0.0,0.0,
1.6939,2.532177705765694,2.6172129751412916,2.8332269211291363,0.0,0.0,0.0,2.6608725340120407,0.0,0.0,0.0,0.0,0.0,0.0,0.0,0.0,0.0,0.0,0.0,0.0,0.0,0.0,
1.7071,2.533157892601422,2.6183139964751856,2.834600412457095,0.0,0.0,0.0,2.662024100511234,0.0,0.0,0.0,0.0,0.0,0.0,0.0,0.0,0.0,0.0,0.0,0.0,0.0,0.0,
1.7203,2.534148765514756,2.6194269171795,2.835988311812282,0.0,0.0,0.0,2.6631879981688464,0.0,0.0,0.0,0.0,0.0,0.0,0.0,0.0,0.0,0.0,0.0,0.0,0.0,0.0,
