energies(eV),real_xx,real_yy,real_zz,real_xy,real_yz,real_xz,real_ave,imag_xx,imag_yy,imag_zz,imag_xy,imag_yz,imag_xz,imag_ave,absorption_xx,absorption_yy,absorption_zz,absorption_xy,absorption_yz,absorption_xz,absorption_ave,band_gap
0.0,2.348566043957065,2.348566043957065,2.4802692052030184,0.0,0.0,0.0,2.392467097705716,0.0,0.0,0.0,0.0,0.0,0.0,0.0,0.0,0.0,0.0,0.0,0.0,0.0,0.0,6.700099999999999
0.0191,2.348568882434477,2.348568882434477,2.4802725595528674,0.0,0.0,0.0,2.392470108140607,0.0,0.0,0.0,0.0,0.0,0.0,0.0,0.0,0.0,0.0,0.0,0.0,0.0,0.0,
0.0383,2.348577457496173,2.348577457496173,2.4802826930704738,0.0,0.0,0.0,2.3924792026876065,0.0,0.0,0.0,0.0,0.0,0.0,0.0,0.0,0.0,0.0,0.0,0.0,0.0,0.0,
0.0574,2.348591680137896,2.348591680137896,2.4802995005799087,0.0,0.0,0.0,2.3924942869519,0.0,0.0,0.0,0.0,0.0,0.0,0.0,0.0,0.0,0.0,0.0,0.0,0.0,0.0,
0.0766,2.348611699823988,2.348611699823988,2.480323158716664,0.0,0.0,0.0,2.39251551945488,0.0,0.0,0.0,0.0,0.0,0.0,0.0,0.0,0.0,0.0,0.0,0.0,0.0,0.0,
0.0957,2.348637308761646,2.348637308761646,2.48035342193269,0.0,0.0,0.0,2.3925426798186606,0.0,0.0,0.0,0.0,0.0,0.0,0.0,0.0,0.0,0.0,0.0,0.0,0.0,0.0,
0.1149,2.3486687760728193,2.3486687760728193,2.480390608273991,0.0,0.0,0.0,2.39257605347321,0.0,0.0,0.0,0.0,0.0,0.0,0.0,0.0,0.0,0.0,0.0,0.0,0.0,0.0,
0.134,2.348705775145273,2.348705775145273,2.480434331783487,0.0,0.0,0.0,2.3926152940246777,0.0,0.0,0.0,0.0,0.0,0.0,0.0,0.0,0.0,0.0,0.0,0.0,0.0,0.0,
0.1532,2.348748694799267,2.348748694799267,2.4804850519662667,0.0,0.0,0.0,2.3926608138549335,0.0,0.0,0.0,0.0,0.0,0.0,0.0,0.0,0.0,0.0,0.0,0.0,0.0,0.0,
0.1723,2.3487970895545067,2.3487970895545067,2.480542242398121,0.0,0.0,0.0,2.392712140502378,0.0,0.0,0.0,0.0,0.0,0.0,0.0,0.0,0.0,0.0,0.0,0.0,0.0,0.0,
0.1915,2.348851467988333,2.348851467988333,2.480606504113413,0.0,0.0,0.0,2.3927698133633597,0.0,0.0,0.0,0.0,0.0,0.0,0.0,0.0,0.0,0.0,0.0,0.0,0.0,0.0,
0.2106,2.3489112656861515,2.3489112656861515,2.4806771701415737,0.0,0.0,0.0,2.3928332338379588,0.0,0.0,0.0,0.0,0.0,0.0,0.0,0.0,0.0,0.0,0.0,0.0,0.0,0.0,
0.2298,2.348977111059259,2.348977111059259,2.48075498313806,0.0,0.0,0.0,2.3929030684188595,0.0,0.0,0.0,0.0,0.0,0.0,0.0,0.0,0.0,0.0,0.0,0.0,0.0,0.0,
0.2489,2.3490483206747292,2.3490483206747292,2.4808391354855113,0.0,0.0,0.0,2.392978592278323,0.0,0.0,0.0,0.0,0.0,0.0,0.0,0.0,0.0,0.0,0.0,0.0,0.0,0.0,
0.2681,2.349125642872921,2.349125642872921,2.4809305115740092,0.0,0.0,0.0,2.393060599106617,0.0,0.0,0.0,0.0,0.0,0.0,0.0,0.0,0.0,0.0,0.0,0.0,0.0,0.0,
0.2872,2.3492082751007777,2.3492082751007777,2.4810281630177324,0.0,0.0,0.0,2.3931482377397626,0.0,0.0,0.0,0.0,0.0,0.0,0.0,0.0,0.0,0.0,0.0,0.0,0.0,0.0,
0.3063,2.34929660825601,2.34929660825601,2.481132551802341,0.0,0.0,0.0,2.3932419227714536,0.0,0.0,0.0,0.0,0.0,0.0,0.0,0.0,0.0,0.0,0.0,0.0,0.0,0.0,
0.3255,2.349391153000819,2.349391153000819,2.481244281453537,0.0,0.0,0.0,2.393342195818392,0.0,0.0,0.0,0.0,0.0,0.0,0.0,0.0,0.0,0.0,0.0,0.0,0.0,0.0,
0.3446,2.349490928027958,2.349490928027958,2.4813621923422198,0.0,0.0,0.0,2.393448016132712,0.0,0.0,0.0,0.0,0.0,0.0,0.0,0.0,0.0,0.0,0.0,0.0,0.0,0.0,
0.3638,2.349596981878962,2.349596981878962,2.48148752364893,0.0,0.0,0.0,2.393560495802285,0.0,0.0,0.0,0.0,0.0,0.0,0.0,0.0,0.0,0.0,0.0,0.0,0.0,0.0,
0.3829,2.349708213794095,2.349708213794095,2.48161897457884,0.0,0.0,0.0,2.39367846738901,0.0,0.0,0.0,0.0,0.0,0.0,0.0,0.0,0.0,0.0,0.0,0.0,0.0,0.0,
0.4021,2.3498257927203277,2.3498257927203277,2.481757926615885,0.0,0.0,0.0,2.3938031706855134,0.0,0.0,0.0,0.0,0.0,0.0,0.0,0.0,0.0,0.0,0.0,0.0,0.0,0.0,
0.4212,2.349948498281013,2.349948498281013,2.4819029376029844,0.0,0.0,0.0,2.3939333113883365,0.0,0.0,0.0,0.0,0.0,0.0,0.0,0.0,0.0,0.0,0.0,0.0,0.0,0.0,
0.4404,2.350077620006063,2.350077620006063,2.4820555315394266,0.0,0.0,0.0,2.394070257183851,0.0,0.0,0.0,0.0,0.0,0.0,0.0,0.0,0.0,0.0,0.0,0.0,0.0,0.0,
0.4595,2.3502118177194755,2.3502118177194755,2.4822141246877987,0.0,0.0,0.0,2.3942125867089166,0.0,0.0,0.0,0.0,0.0,0.0,0.0,0.0,0.0,0.0,0.0,0.0,0.0,0.0,
0.4787,2.3503525017301676,2.3503525017301676,2.4823803837967624,0.0,0.0,0.0,2.3943617957523657,0.0,0.0,0.0,0.0,0.0,0.0,0.0,0.0,0.0,0.0,0.0,0.0,0.0,0.0,
0.4978,2.35049821186215,2.35049821186215,2.482552583308876,0.0,0.0,0.0,2.3945163356777255,0.0,0.0,0.0,0.0,0.0,0.0,0.0,0.0,0.0,0.0,0.0,0.0,0.0,0.0,
0.517,2.3506504794180283,2.3506504794180283,2.4827325329784014,0.0,0.0,0.0,2.3946778306048193,0.0,0.0,0.0,0.0,0.0,0.0,0.0,0.0,0.0,0.0,0.0,0.0,0.0,0.0,
0.5361,2.3508077240029657,2.3508077240029657,2.4829183651663325,0.0,0.0,0.0,2.3948446043907547,0.0,0.0,0.0,0.0,0.0,0.0,0.0,0.0,0.0,0.0,0.0,0.0,0.0,0.0,
0.5552,2.3509707295438806,2.3509707295438806,2.483111006387597,0.0,0.0,0.0,2.3950174884917863,0.0,0.0,0.0,0.0,0.0,0.0,0.0,0.0,0.0,0.0,0.0,0.0,0.0,0.0,
0.5744,2.351140400998391,2.351140400998391,2.483311526208936,0.0,0.0,0.0,2.3951974427352396,0.0,0.0,0.0,0.0,0.0,0.0,0.0,0.0,0.0,0.0,0.0,0.0,0.0,0.0,
0.5935,2.3513149773503685,2.3513149773503685,2.4835178435169505,0.0,0.0,0.0,2.3953825994058957,0.0,0.0,0.0,0.0,0.0,0.0,0.0,0.0,0.0,0.0,0.0,0.0,0.0,0.0,
0.6127,2.351496293290396,2.351496293290396,2.4837321266602297,0.0,0.0,0.0,2.395574904413674,0.0,0.0,0.0,0.0,0.0,0.0,0.0,0.0,0.0,0.0,0.0,0.0,0.0,0.0,
0.6318,2.3516824669561185,2.3516824669561185,2.4839521516943046,0.0,0.0,0.0,2.3957723618688473,0.0,0.0,0.0,0.0,0.0,0.0,0.0,0.0,0.0,0.0,0.0,0.0,0.0,0.0,
0.651,2.351875454931279,2.351875454931279,2.4841802310467136,0.0,0.0,0.0,2.395977046969757,0.0,0.0,0.0,0.0,0.0,0.0,0.0,0.0,0.0,0.0,0.0,0.0,0.0,0.0,
0.6701,2.352073254223744,2.352073254223744,2.484413997603227,0.0,0.0,0.0,2.3961868353502385,0.0,0.0,0.0,0.0,0.0,0.0,0.0,0.0,0.0,0.0,0.0,0.0,0.0,0.0,
0.6893,2.3522779436104,2.3522779436104,2.4846559082282043,0.0,0.0,0.0,2.396403931816335,0.0,0.0,0.0,0.0,0.0,0.0,0.0,0.0,0.0,0.0,0.0,0.0,0.0,0.0,
0.7084,2.3524873986669252,2.3524873986669252,2.4849034522765,0.0,0.0,0.0,2.3966260832034503,0.0,0.0,0.0,0.0,0.0,0.0,0.0,0.0,0.0,0.0,0.0,0.0,0.0,0.0,
0.7276,2.3527038206827178,2.3527038206827178,2.4851592314301953,0.0,0.0,0.0,2.39685562426521,0.0,0.0,0.0,0.0,0.0,0.0,0.0,0.0,0.0,0.0,0.0,0.0,0.0,0.0,
0.7467,2.3529249634799125,2.3529249634799125,2.485420591129524,0.0,0.0,0.0,2.3970901726964495,0.0,0.0,0.0,0.0,0.0,0.0,0.0,0.0,0.0,0.0,0.0,0.0,0.0,0.0,
0.7659,2.3531531511992716,2.3531531511992716,2.48569027827846,0.0,0.0,0.0,2.397332193559001,0.0,0.0,0.0,0.0,0.0,0.0,0.0,0.0,0.0,0.0,0.0,0.0,0.0,0.0,
0.785,2.353386015568982,2.353386015568982,2.4859654939961136,0.0,0.0,0.0,2.3975791750446924,0.0,0.0,0.0,0.0,0.0,0.0,0.0,0.0,0.0,0.0,0.0,0.0,0.0,0.0,
0.8042,2.353626003939663,2.353626003939663,2.486249130835829,0.0,0.0,0.0,2.3978337129050518,0.0,0.0,0.0,0.0,0.0,0.0,0.0,0.0,0.0,0.0,0.0,0.0,0.0,0.0,
0.8233,2.3538706255858637,2.3538706255858637,2.48653824516624,0.0,0.0,0.0,2.398093165445989,0.0,0.0,0.0,0.0,0.0,0.0,0.0,0.0,0.0,0.0,0.0,0.0,0.0,0.0,
0.8424,2.3541211244513414,2.3541211244513414,2.4868343072746844,0.0,0.0,0.0,2.3983588520591224,0.0,0.0,0.0,0.0,0.0,0.0,0.0,0.0,0.0,0.0,0.0,0.0,0.0,0.0,
0.8616,2.354378867963132,2.354378867963132,2.487138933426263,0.0,0.0,0.0,2.398632223117509,0.0,0.0,0.0,0.0,0.0,0.0,0.0,0.0,0.0,0.0,0.0,0.0,0.0,0.0,
0.8807,2.3546411811592174,2.3546411811592174,2.487448962198279,0.0,0.0,0.0,2.398910441505571,0.0,0.0,0.0,0.0,0.0,0.0,0.0,0.0,0.0,0.0,0.0,0.0,0.0,0.0,
0.8999,2.3549108209517335,2.3549108209517335,2.487767652101295,0.0,0.0,0.0,2.399196431334921,0.0,0.0,0.0,0.0,0.0,0.0,0.0,0.0,0.0,0.0,0.0,0.0,0.0,0.0,
0.919,2.3551849889408696,2.3551849889408696,2.488091695787552,0.0,0.0,0.0,2.3994872245564305,0.0,0.0,0.0,0.0,0.0,0.0,0.0,0.0,0.0,0.0,0.0,0.0,0.0,0.0,
0.9382,2.3554665666604886,2.3554665666604886,2.4884244990999638,0.0,0.0,0.0,2.399785877473647,0.0,0.0,0.0,0.0,0.0,0.0,0.0,0.0,0.0,0.0,0.0,0.0,0.0,0.0,
0.9573,2.3557526318444553,2.3557526318444553,2.4887626082543712,0.0,0.0,0.0,2.400089290647761,0.0,0.0,0.0,0.0,0.0,0.0,0.0,0.0,0.0,0.0,0.0,0.0,0.0,0.0,
0.9765,2.3560461910977977,2.3560461910977977,2.4891095769615497,0.0,0.0,0.0,2.400400653052382,0.0,0.0,0.0,0.0,0.0,0.0,0.0,0.0,0.0,0.0,0.0,0.0,0.0,0.0,
0.9956,2.356344197839329,2.356344197839329,2.489461804465681,0.0,0.0,0.0,2.4007167333814463,0.0,0.0,0.0,0.0,0.0,0.0,0.0,0.0,0.0,0.0,0.0,0.0,0.0,0.0,
1.0148,2.35664978421549,2.35664978421549,2.489822992905551,0.0,0.0,0.0,2.4010408537788437,0.0,0.0,0.0,0.0,0.0,0.0,0.0,0.0,0.0,0.0,0.0,0.0,0.0,0.0,
1.0339,2.356959778860965,2.356959778860965,2.490189393994253,0.0,0.0,0.0,2.401369650572061,0.0,0.0,0.0,0.0,0.0,0.0,0.0,0.0,0.0,0.0,0.0,0.0,0.0,0.0,
1.0531,2.3572774399549212,2.3572774399549212,2.4905648588837312,0.0,0.0,0.0,2.401706579597858,0.0,0.0,0.0,0.0,0.0,0.0,0.0,0.0,0.0,0.0,0.0,0.0,0.0,0.0,
1.0722,2.3575994708582027,2.3575994708582027,2.4909454911720355,0.0,0.0,0.0,2.4020481442961468,0.0,0.0,0.0,0.0,0.0,0.0,0.0,0.0,0.0,0.0,0.0,0.0,0.0,0.0,
1.0914,2.3579292562953067,2.3579292562953067,2.491335291634663,0.0,0.0,0.0,2.402397934741759,0.0,0.0,0.0,0.0,0.0,0.0,0.0,0.0,0.0,0.0,0.0,0.0,0.0,0.0,
1.1105,2.358263373842741,2.358263373842741,2.4917302151459904,0.0,0.0,0.0,2.4027523209438244,0.0,0.0,0.0,0.0,0.0,0.0,0.0,0.0,0.0,0.0,0.0,0.0,0.0,0.0,
1.1296,2.3586035384021793,2.3586035384021793,2.492132288799943,0.0,0.0,0.0,2.4031131218681003,0.0,0.0,0.0,0.0,0.0,0.0,0.0,0.0,0.0,0.0,0.0,0.0,0.0,0.0,
1.1488,2.35895159194106,2.35895159194106,2.492543689936606,0.0,0.0,0.0,2.403482291272909,0.0,0.0,0.0,0.0,0.0,0.0,0.0,0.0,0.0,0.0,0.0,0.0,0.0,0.0,
1.1679,2.3593039225214416,2.3593039225214416,2.4929601493445332,0.0,0.0,0.0,2.403855998129139,0.0,0.0,0.0,0.0,0.0,0.0,0.0,0.0,0.0,0.0,0.0,0.0,0.0,0.0,
1.1871,2.359664233448716,2.359664233448716,2.4933860444990747,0.0,0.0,0.0,2.404238170465502,0.0,0.0,0.0,0.0,0.0,0.0,0.0,0.0,0.0,0.0,0.0,0.0,0.0,0.0,
1.2062,2.3600287856319837,2.3600287856319837,2.4938169558340815,0.0,0.0,0.0,2.4046248423660166,0.0,0.0,0.0,0.0,0.0,0.0,0.0,0.0,0.0,0.0,0.0,0.0,0.0,0.0,
1.2254,2.360401410887141,2.360401410887141,2.494257412787198,0.0,0.0,0.0,2.4050200781871602,0.0,0.0,0.0,0.0,0.0,0.0,0.0,0.0,0.0,0.0,0.0,0.0,0.0,0.0,
1.2445,2.3607782423847063,2.3607782423847063,2.494702844739968,0.0,0.0,0.0,2.405419776503127,0.0,0.0,0.0,0.0,0.0,0.0,0.0,0.0,0.0,0.0,0.0,0.0,0.0,0.0,
1.2637,2.3611632410630543,2.3611632410630543,2.4951579338202112,0.0,0.0,0.0,2.4058281386487734,0.0,0.0,0.0,0.0,0.0,0.0,0.0,0.0,0.0,0.0,0.0,0.0,0.0,0.0,
1.2828,2.361552411746353,2.361552411746353,2.4956179576333195,0.0,0.0,0.0,2.4062409270420084,0.0,0.0,0.0,0.0,0.0,0.0,0.0,0.0,0.0,0.0,0.0,0.0,0.0,0.0,
1.302,2.361949845130413,2.361949845130413,2.496087751752361,0.0,0.0,0.0,2.4066624806710624,0.0,0.0,0.0,0.0,0.0,0.0,0.0,0.0,0.0,0.0,0.0,0.0,0.0,0.0,
1.3211,2.3623514170628317,2.3623514170628317,2.4965624412561795,0.0,0.0,0.0,2.407088425127281,0.0,0.0,0.0,0.0,0.0,0.0,0.0,0.0,0.0,0.0,0.0,0.0,0.0,0.0,
1.3403,2.3627613486551233,2.3627613486551233,2.4970470159455687,0.0,0.0,0.0,2.4075232377519384,0.0,0.0,0.0,0.0,0.0,0.0,0.0,0.0,0.0,0.0,0.0,0.0,0.0,0.0,
1.3594,2.3631753861253104,2.3631753861253104,2.4975364475956106,0.0,0.0,0.0,2.4079624066154106,0.0,0.0,0.0,0.0,0.0,0.0,0.0,0.0,0.0,0.0,0.0,0.0,0.0,0.0,
1.3785,2.3635956648172254,2.3635956648172254,2.498033260471813,0.0,0.0,0.0,2.4084081967020876,0.0,0.0,0.0,0.0,0.0,0.0,0.0,0.0,0.0,0.0,0.0,0.0,0.0,0.0,
1.3977,2.3640244512391035,2.3640244512391035,2.4985401339609195,0.0,0.0,0.0,2.408863012146375,0.0,0.0,0.0,0.0,0.0,0.0,0.0,0.0,0.0,0.0,0.0,0.0,0.0,0.0,
1.4168,2.364457296060598,2.364457296060598,2.4990518085674243,0.0,0.0,0.0,2.4093221335628736,0.0,0.0,0.0,0.0,0.0,0.0,0.0,0.0,0.0,0.0,0.0,0.0,0.0,0.0,
1.436,2.364898749295509,2.364898749295509,2.499573663064127,0.0,0.0,0.0,2.4097903872183815,0.0,0.0,0.0,0.0,0.0,0.0,0.0,0.0,0.0,0.0,0.0,0.0,0.0,0.0,
1.4551,2.365344230250434,2.365344230250434,2.5001002825893983,0.0,0.0,0.0,2.410262914363422,0.0,0.0,0.0,0.0,0.0,0.0,0.0,0.0,0.0,0.0,0.0,0.0,0.0,0.0,
1.4743,2.36579842184658,2.36579842184658,2.5006372031036337,0.0,0.0,0.0,2.410744682265598,0.0,0.0,0.0,0.0,0.0,0.0,0.0,0.0,0.0,0.0,0.0,0.0,0.0,0.0,
1.4934,2.3662566112919996,2.3662566112919996,2.5011788535044834,0.0,0.0,0.0,2.4112306920294944,0.0,0.0,0.0,0.0,0.0,0.0,0.0,0.0,0.0,0.0,0.0,0.0,0.0,0.0,
1.5126,2.366723615183057,2.366723615183057,2.5017309278512596,0.0,0.0,0.0,2.4117260527391244,0.0,0.0,0.0,0.0,0.0,0.0,0.0,0.0,0.0,0.0,0.0,0.0,0.0,0.0,
1.5317,2.367194587869304,2.367194587869304,2.502287697897564,0.0,0.0,0.0,2.412225624545391,0.0,0.0,0.0,0.0,0.0,0.0,0.0,0.0,0.0,0.0,0.0,0.0,0.0,0.0,
1.5509,2.367674480415447,2.367674480415447,2.502855016742831,0.0,0.0,0.0,2.412734659191242,0.0,0.0,0.0,0.0,0.0,0.0,0.0,0.0,0.0,0.0,0.0,0.0,0.0,0.0,
1.57,2.368158313527764,2.368158313527764,2.503426998064011,0.0,0.0,0.0,2.4132478750398465,0.0,0.0,0.0,0.0,0.0,0.0,0.0,0.0,0.0,0.0,0.0,0.0,0.0,0.0,
1.5892,2.3686511735584297,2.3686511735584297,2.504009654972256,0.0,0.0,0.0,2.4137706673630386,0.0,0.0,0.0,0.0,0.0,0.0,0.0,0.0,0.0,0.0,0.0,0.0,0.0,0.0,
1.6083,2.3691479467603296,2.3691479467603296,2.50459694210555,0.0,0.0,0.0,2.414297611875403,0.0,0.0,0.0,0.0,0.0,0.0,0.0,0.0,0.0,0.0,0.0,0.0,0.0,0.0,
1.6275,2.3696538556186324,2.3696538556186324,2.505195033589325,0.0,0.0,0.0,2.4148342482755303,0.0,0.0,0.0,0.0,0.0,0.0,0.0,0.0,0.0,0.0,0.0,0.0,0.0,0.0,
1.6466,2.3701636510970117,2.3701636510970117,2.5057977240300096,0.0,0.0,0.0,2.415375008741344,0.0,0.0,0.0,0.0,0.0,0.0,0.0,0.0,0.0,0.0,0.0,0.0,0.0,0.0,
1.6657,2.3706799722242202,2.3706799722242202,2.506408133384001,0.0,0.0,0.0,2.4159226926108137,0.0,0.0,0.0,0.0,0.0,0.0,0.0,0.0,0.0,0.0,0.0,0.0,0.0,0.0,
1.6849,2.3712055951979534,2.3712055951979534,2.5070295438548404,0.0,0.0,0.0,2.416480244750249,0.0,0.0,0.0,0.0,0.0,0.0,0.0,0.0,0.0,0.0,0.0,0.0,0.0,0.0,
1.704,2.371735066602276,2.371735066602276,2.5076555082847984,0.0,0.0,0.0,2.41704188049645,0.0,0.0,0.0,0.0,0.0,0.0,0.0,0.0,0.0,0.0,0.0,0.0,0.0,0.0,
1.7232,2.3722739529503287,2.3722739529503287,2.5082926077146066,0.0,0.0,0.0,2.4176135045384215,0.0,0.0,0.0,0.0,0.0,0.0,0.0,0.0,0.0,0.0,0.0,0.0,0.0,0.0,
1.7423,2.372816663332807,2.372816663332807,2.5089342323392696,0.0,0.0,0.0,2.418189186334961,0.0,0.0,0.0,0.0,0.0,0.0,0.0,0.0,0.0,0.0,0.0,0.0,0.0,0.0,
1.7615,2.3733689035689243,2.3733689035689243,2.5095871279726896,0.0,0.0,0.0,2.418774978370179,0.0,0.0,0.0,0.0,0.0,0.0,0.0,0.0,0.0,0.0,0.0,0.0,0.0,0.0,
1.7806,2.3739249443263124,2.3739249443263124,2.5102445210600695,0.0,0.0,0.0,2.4193648032375648,0.0,0.0,0.0,0.0,0.0,0.0,0.0,0.0,0.0,0.0,0.0,0.0,0.0,0.0,
1.7998,2.374490631700777,2.374490631700777,2.5109133233371663,0.0,0.0,0.0,2.41996486224624,0.0,0.0,0.0,0.0,0.0,0.0,0.0,0.0,0.0,0.0,0.0,0.0,0.0,0.0,
1.8189,2.375060096979256,2.375060096979256,2.5115865963640442,0.0,0.0,0.0,2.420568930107519,0.0,0.0,0.0,0.0,0.0,0.0,0.0,0.0,0.0,0.0,0.0,0.0,0.0,0.0,
1.8381,2.375639327533971,2.375639327533971,2.5122714189811113,0.0,0.0,0.0,2.4211833580163513,0.0,0.0,0.0,0.0,0.0,0.0,0.0,0.0,0.0,0.0,0.0,0.0,0.0,0.0,
1.8572,2.376222314284905,2.376222314284905,2.5129606866946648,0.0,0.0,0.0,2.4218017717548252,0.0,0.0,0.0,0.0,0.0,0.0,0.0,0.0,0.0,0.0,0.0,0.0,0.0,0.0,
1.8764,2.3768151869105543,2.3768151869105543,2.5136616466674333,0.0,0.0,0.0,2.4224306734961805,0.0,0.0,0.0,0.0,0.0,0.0,0.0,0.0,0.0,0.0,0.0,0.0,0.0,0.0,
1.8955,2.3774117949485514,2.3774117949485514,2.5143670271493104,0.0,0.0,0.0,2.423063539015471,0.0,0.0,0.0,0.0,0.0,0.0,0.0,0.0,0.0,0.0,0.0,0.0,0.0,0.0,
1.9147,2.3780184114439953,2.3780184114439953,2.515084244878472,0.0,0.0,0.0,2.423707022588821,0.0,0.0,0.0,0.0,0.0,0.0,0.0,0.0,0.0,0.0,0.0,0.0,0.0,0.0,
1.9338,2.3786287435071545,2.3786287435071545,2.5158058596111506,0.0,0.0,0.0,2.424354448875153,0.0,0.0,0.0,0.0,0.0,0.0,0.0,0.0,0.0,0.0,0.0,0.0,0.0,0.0,
1.9529,2.379245958986078,2.379245958986078,2.5165356167503576,0.0,0.0,0.0,2.425009178240838,0.0,0.0,0.0,0.0,0.0,0.0,0.0,0.0,0.0,0.0,0.0,0.0,0.0,0.0,
1.9721,2.379873370453745,2.379873370453745,2.5172774328861536,0.0,0.0,0.0,2.425674724597881,0.0,0.0,0.0,0.0,0.0,0.0,0.0,0.0,0.0,0.0,0.0,0.0,0.0,0.0,
1.9912,2.3805044695421227,2.3805044695421227,2.518023612860235,0.0,0.0,0.0,2.4263441839814934,0.0,0.0,0.0,0.0,0.0,0.0,0.0,0.0,0.0,0.0,0.0,0.0,0.0,0.0,
2.0104,2.381145892366615,2.381145892366615,2.518782002845089,0.0,0.0,0.0,2.4270245958594394,0.0,0.0,0.0,0.0,0.0,0.0,0.0,0.0,0.0,0.0,0.0,0.0,0.0,0.0,
2.0295,2.381790985386513,2.381790985386513,2.519544735941156,0.0,0.0,0.0,2.4277089022380607,0.0,0.0,0.0,0.0,0.0,0.0,0.0,0.0,0.0,0.0,0.0,0.0,0.0,0.0,
2.0487,2.3824465320436565,2.3824465320436565,2.520319832570963,0.0,0.0,0.0,2.428404298886092,0.0,0.0,0.0,0.0,0.0,0.0,0.0,0.0,0.0,0.0,0.0,0.0,0.0,0.0,
2.0678,2.38310573247058,2.38310573247058,2.521099252729609,0.0,0.0,0.0,2.429103572556923,0.0,0.0,0.0,0.0,0.0,0.0,0.0,0.0,0.0,0.0,0.0,0.0,0.0,0.0,
2.087,2.383775518641812,2.383775518641812,2.521891192511891,0.0,0.0,0.0,2.4298140765985052,0.0,0.0,0.0,0.0,0.0,0.0,0.0,0.0,0.0,0.0,0.0,0.0,0.0,0.0,
2.1061,2.384448943176346,2.384448943176346,2.522687437405592,0.0,0.0,0.0,2.4305284412527612,0.0,0.0,0.0,0.0,0.0,0.0,0.0,0.0,0.0,0.0,0.0,0.0,0.0,0.0,
2.1253,2.3851330878221004,2.3851330878221004,2.523496360639795,0.0,0.0,0.0,2.431254178761332,0.0,0.0,0.0,0.0,0.0,0.0,0.0,0.0,0.0,0.0,0.0,0.0,0.0,0.0,
2.1444,2.385820856464285,2.385820856464285,2.524309571754189,0.0,0.0,0.0,2.43198376156092,0.0,0.0,0.0,0.0,0.0,0.0,0.0,0.0,0.0,0.0,0.0,0.0,0.0,0.0,
2.1636,2.3865194819002093,2.3865194819002093,2.5251356226149237,0.0,0.0,0.0,2.4327248621384476,0.0,0.0,0.0,0.0,0.0,0.0,0.0,0.0,0.0,0.0,0.0,0.0,0.0,0.0,
2.1827,2.3872217180268924,2.3872217180268924,2.525965945333236,0.0,0.0,0.0,2.4334697937956737,0.0,0.0,0.0,0.0,0.0,0.0,0.0,0.0,0.0,0.0,0.0,0.0,0.0,0.0,
2.2018,2.3879312161869333,2.3879312161869333,2.5268048570804864,0.0,0.0,0.0,2.4342224298181177,0.0,0.0,0.0,0.0,0.0,0.0,0.0,0.0,0.0,0.0,0.0,0.0,0.0,0.0,
2.221,2.3886517804482983,2.3886517804482983,2.5276568556472054,0.0,0.0,0.0,2.4349868055146007,0.0,0.0,0.0,0.0,0.0,0.0,0.0,0.0,0.0,0.0,0.0,0.0,0.0,0.0,
2.2401,2.389375937496041,2.389375937496041,2.528513104373183,0.0,0.0,0.0,2.4357549931217553,0.0,0.0,0.0,0.0,0.0,0.0,0.0,0.0,0.0,0.0,0.0,0.0,0.0,0.0,
2.2593,2.390111303370131,2.390111303370131,2.529382608327687,0.0,0.0,0.0,2.4365350716893164,0.0,0.0,0.0,0.0,0.0,0.0,0.0,0.0,0.0,0.0,0.0,0.0,0.0,0.0,
2.2784,2.3908502514781804,2.3908502514781804,2.5302563495442514,0.0,0.0,0.0,2.4373189508335376,0.0,0.0,0.0,0.0,0.0,0.0,0.0,0.0,0.0,0.0,0.0,0.0,0.0,0.0,
2.2976,2.3916005536639373,2.3916005536639373,2.5311435173206114,0.0,0.0,0.0,2.4381148748828285,0.0,0.0,0.0,0.0,0.0,0.0,0.0,0.0,0.0,0.0,0.0,0.0,0.0,0.0,
2.3167,2.3923544286769687,2.3923544286769687,2.532034910758123,0.0,0.0,0.0,2.4389145893706865,0.0,0.0,0.0,0.0,0.0,0.0,0.0,0.0,0.0,0.0,0.0,0.0,0.0,0.0,
2.3359,2.3931198056104206,2.3931198056104206,2.5329399050805907,0.0,0.0,0.0,2.4397265054338106,0.0,0.0,0.0,0.0,0.0,0.0,0.0,0.0,0.0,0.0,0.0,0.0,0.0,0.0,
2.355,2.393888747137221,2.393888747137221,2.5338491147875155,0.0,0.0,0.0,2.4405422030206525,0.0,0.0,0.0,0.0,0.0,0.0,0.0,0.0,0.0,0.0,0.0,0.0,0.0,0.0,
2.3742,2.39466934108584,2.39466934108584,2.5347721027725614,0.0,0.0,0.0,2.4413702616480806,0.0,0.0,0.0,0.0,0.0,0.0,0.0,0.0,0.0,0.0,0.0,0.0,0.0,0.0,
2.3933,2.3954534925949753,2.3954534925949753,2.5356992972188723,0.0,0.0,0.0,2.4422020941362743,0.0,0.0,0.0,0.0,0.0,0.0,0.0,0.0,0.0,0.0,0.0,0.0,0.0,0.0,
2.4125,2.3962494497557643,2.3962494497557643,2.53664045048105,0.0,0.0,0.0,2.443046449997526,0.0,0.0,0.0,0.0,0.0,0.0,0.0,0.0,0.0,0.0,0.0,0.0,0.0,0.0,
2.4316,2.3970489586751365,2.3970489586751365,2.537585802665571,0.0,0.0,0.0,2.4438945733386146,0.0,0.0,0.0,0.0,0.0,0.0,0.0,0.0,0.0,0.0,0.0,0.0,0.0,0.0,
2.4508,2.3978604292766392,2.3978604292766392,2.538545297427502,0.0,0.0,0.0,2.4447553853269266,0.0,0.0,0.0,0.0,0.0,0.0,0.0,0.0,0.0,0.0,0.0,0.0,0.0,0.0,
2.4699,2.398675447096965,2.398675447096965,2.539508984989317,0.0,0.0,0.0,2.445619959727749,0.0,0.0,0.0,0.0,0.0,0.0,0.0,0.0,0.0,0.0,0.0,0.0,0.0,0.0,
2.489,2.399498257026305,2.399498257026305,2.540481884161811,0.0,0.0,0.0,2.446492799404807,0.0,0.0,0.0,0.0,0.0,0.0,0.0,0.0,0.0,0.0,0.0,0.0,0.0,0.0,
