energies(eV),real_xx,real_yy,real_zz,real_xy,real_yz,real_xz,real_ave,imag_xx,imag_yy,imag_zz,imag_xy,imag_yz,imag_xz,imag_ave,absorption_xx,absorption_yy,absorption_zz,absorption_xy,absorption_yz,absorption_xz,absorption_ave,band_gap
0.0,3.0980765193803155,3.1713540534583196,3.1525262108443797,0.0,0.0,0.0,3.1406522612276717,0.0,0.0,0.0,0.0,0.0,0.0,0.0,0.0,0.0,0.0,0.0,0.0,0.0,0.0,3.5717
0.0137,3.098082208166001,3.171360705598939,3.152532391384162,0.0,0.0,0.0,3.140658435049701,0.0,0.0,0.0,0.0,0.0,0.0,0.0,0.0,0.0,0.0,0.0,0.0,0.0,0.0,
0.0274,3.09809927487417,3.17138066249073,3.1525509334106596,0.0,0.0,0.0,3.1406769569251867,0.0,0.0,0.0,0.0,0.0,0.0,0.0,0.0,0.0,0.0,0.0,0.0,0.0,0.0,
0.0411,3.098127720558153,3.1714139255435927,3.1525818381454465,0.0,0.0,0.0,3.1407078280823977,0.0,0.0,0.0,0.0,0.0,0.0,0.0,0.0,0.0,0.0,0.0,0.0,0.0,0.0,
0.0548,3.0981675469737917,3.1714604971077023,3.1526251076247416,0.0,0.0,0.0,3.1407510505687455,0.0,0.0,0.0,0.0,0.0,0.0,0.0,0.0,0.0,0.0,0.0,0.0,0.0,0.0,
0.0685,3.098218756579745,3.171520380474096,3.152680744699927,0.0,0.0,0.0,3.1408066272512563,0.0,0.0,0.0,0.0,0.0,0.0,0.0,0.0,0.0,0.0,0.0,0.0,0.0,0.0,
0.0822,3.0982813525380397,3.1715935798754007,3.152748753038135,0.0,0.0,0.0,3.140874561817192,0.0,0.0,0.0,0.0,0.0,0.0,0.0,0.0,0.0,0.0,0.0,0.0,0.0,0.0,
0.096,3.09835592064421,3.171680781010999,3.1528297693774405,0.0,0.0,0.0,3.1409554903442163,0.0,0.0,0.0,0.0,0.0,0.0,0.0,0.0,0.0,0.0,0.0,0.0,0.0,0.0,
0.1097,3.098441384802345,3.1717807262560265,3.152922624904638,0.0,0.0,0.0,3.1410482453210036,0.0,0.0,0.0,0.0,0.0,0.0,0.0,0.0,0.0,0.0,0.0,0.0,0.0,0.0,
0.1234,3.0985382490675217,3.171894005949274,3.153027867647769,0.0,0.0,0.0,3.141153374221522,0.0,0.0,0.0,0.0,0.0,0.0,0.0,0.0,0.0,0.0,0.0,0.0,0.0,0.0,
0.1371,3.0986465194284136,3.1720206281086036,3.1531455045531147,0.0,0.0,0.0,3.141270884030044,0.0,0.0,0.0,0.0,0.0,0.0,0.0,0.0,0.0,0.0,0.0,0.0,0.0,0.0,
0.1508,3.098766202581901,3.1721606017005546,3.153275543388724,0.0,0.0,0.0,3.14140078255706,0.0,0.0,0.0,0.0,0.0,0.0,0.0,0.0,0.0,0.0,0.0,0.0,0.0,0.0,
0.1645,3.0988973059343516,3.172313936642428,3.1534179927461143,0.0,0.0,0.0,3.1415430784409644,0.0,0.0,0.0,0.0,0.0,0.0,0.0,0.0,0.0,0.0,0.0,0.0,0.0,0.0,
0.1782,3.099039837603285,3.1724806438045685,3.1535728620422314,0.0,0.0,0.0,3.1416977811500284,0.0,0.0,0.0,0.0,0.0,0.0,0.0,0.0,0.0,0.0,0.0,0.0,0.0,0.0,
0.1919,3.099193806419001,3.172660735012877,3.153740161521586,0.0,0.0,0.0,3.1418649009844883,0.0,0.0,0.0,0.0,0.0,0.0,0.0,0.0,0.0,0.0,0.0,0.0,0.0,0.0,
0.2056,3.099359221926458,3.1728542230515866,3.1539199022585342,0.0,0.0,0.0,3.1420444490788597,0.0,0.0,0.0,0.0,0.0,0.0,0.0,0.0,0.0,0.0,0.0,0.0,0.0,0.0,
0.2193,3.0995360943873056,3.1730611216662306,3.1541120961597913,0.0,0.0,0.0,3.1422364374044425,0.0,0.0,0.0,0.0,0.0,0.0,0.0,0.0,0.0,0.0,0.0,0.0,0.0,0.0,
0.233,3.09972443478199,3.1732814455667837,3.1543167559671232,0.0,0.0,0.0,3.1424408787719655,0.0,0.0,0.0,0.0,0.0,0.0,0.0,0.0,0.0,0.0,0.0,0.0,0.0,0.0,
0.2467,3.0999242548121115,3.17351521043116,3.1545338952602733,0.0,0.0,0.0,3.142657786834515,0.0,0.0,0.0,0.0,0.0,0.0,0.0,0.0,0.0,0.0,0.0,0.0,0.0,0.0,
0.2604,3.100135566902879,3.1737624329088123,3.1547635284599544,0.0,0.0,0.0,3.1428871760905484,0.0,0.0,0.0,0.0,0.0,0.0,0.0,0.0,0.0,0.0,0.0,0.0,0.0,0.0,
0.2741,3.100358384205723,3.1740231306246764,3.1550056708312386,0.0,0.0,0.0,3.143129061887213,0.0,0.0,0.0,0.0,0.0,0.0,0.0,0.0,0.0,0.0,0.0,0.0,0.0,0.0,
0.2879,3.100594473468602,3.1742993732361233,3.1552622434624933,0.0,0.0,0.0,3.1433853633890734,0.0,0.0,0.0,0.0,0.0,0.0,0.0,0.0,0.0,0.0,0.0,0.0,0.0,0.0,
0.3016,3.100840427812087,3.1745871769384015,3.1555295449805394,0.0,0.0,0.0,3.1436523832436762,0.0,0.0,0.0,0.0,0.0,0.0,0.0,0.0,0.0,0.0,0.0,0.0,0.0,0.0,
0.3153,3.101097931322731,3.174888514802578,3.1558094067000115,0.0,0.0,0.0,3.1439319509417736,0.0,0.0,0.0,0.0,0.0,0.0,0.0,0.0,0.0,0.0,0.0,0.0,0.0,0.0,
0.329,3.1013670000917153,3.175203408406227,3.1561018473061924,0.0,0.0,0.0,3.144224085268045,0.0,0.0,0.0,0.0,0.0,0.0,0.0,0.0,0.0,0.0,0.0,0.0,0.0,0.0,
0.3427,3.1016476509519992,3.1755318803253907,3.1564068863479973,0.0,0.0,0.0,3.1445288058751295,0.0,0.0,0.0,0.0,0.0,0.0,0.0,0.0,0.0,0.0,0.0,0.0,0.0,0.0,
0.3564,3.10193990148189,3.175873954139931,3.156724544242553,0.0,0.0,0.0,3.1448461332881243,0.0,0.0,0.0,0.0,0.0,0.0,0.0,0.0,0.0,0.0,0.0,0.0,0.0,0.0,
0.3701,3.1022437700088377,3.1762296544390707,3.1570548422799245,0.0,0.0,0.0,3.1451760889092775,0.0,0.0,0.0,0.0,0.0,0.0,0.0,0.0,0.0,0.0,0.0,0.0,0.0,0.0,
0.3838,3.102559275613296,3.1765990068272396,3.1573978026279006,0.0,0.0,0.0,3.145518695022812,0.0,0.0,0.0,0.0,0.0,0.0,0.0,0.0,0.0,0.0,0.0,0.0,0.0,0.0,
0.3975,3.102886438132898,3.176982037930143,3.157753448337227,0.0,0.0,0.0,3.1458739748000895,0.0,0.0,0.0,0.0,0.0,0.0,0.0,0.0,0.0,0.0,0.0,0.0,0.0,0.0,
0.4112,3.103225278166628,3.1773787754010985,3.1581218033468925,0.0,0.0,0.0,3.146241952304873,0.0,0.0,0.0,0.0,0.0,0.0,0.0,0.0,0.0,0.0,0.0,0.0,0.0,0.0,
0.4249,3.1035758170793675,3.1777892479276275,3.1585028924897043,0.0,0.0,0.0,3.1466226524988996,0.0,0.0,0.0,0.0,0.0,0.0,0.0,0.0,0.0,0.0,0.0,0.0,0.0,0.0,
0.4386,3.103938077006393,3.178213485238305,3.158896741498049,0.0,0.0,0.0,3.147016101247582,0.0,0.0,0.0,0.0,0.0,0.0,0.0,0.0,0.0,0.0,0.0,0.0,0.0,0.0,
0.4523,3.1043120808582616,3.1786515181098878,3.1593033770099144,0.0,0.0,0.0,3.1474223253260214,0.0,0.0,0.0,0.0,0.0,0.0,0.0,0.0,0.0,0.0,0.0,0.0,0.0,0.0,
0.466,3.104697852325747,3.179103378374726,3.1597228265751265,0.0,0.0,0.0,3.1478413524252,0.0,0.0,0.0,0.0,0.0,0.0,0.0,0.0,0.0,0.0,0.0,0.0,0.0,0.0,
0.4798,3.1050983612214007,3.1795725493856124,3.1601583213628586,0.0,0.0,0.0,3.148276410656624,0.0,0.0,0.0,0.0,0.0,0.0,0.0,0.0,0.0,0.0,0.0,0.0,0.0,0.0,
0.4935,3.105507828492167,3.1800522657403065,3.160603579429993,0.0,0.0,0.0,3.1487212245541554,0.0,0.0,0.0,0.0,0.0,0.0,0.0,0.0,0.0,0.0,0.0,0.0,0.0,0.0,
0.5072,3.105929139377811,3.180545911656566,3.1610617399614913,0.0,0.0,0.0,3.1491789303319564,0.0,0.0,0.0,0.0,0.0,0.0,0.0,0.0,0.0,0.0,0.0,0.0,0.0,0.0,
0.5209,3.10636232074924,3.1810535232764408,3.1615328342283595,0.0,0.0,0.0,3.149649559418014,0.0,0.0,0.0,0.0,0.0,0.0,0.0,0.0,0.0,0.0,0.0,0.0,0.0,0.0,
0.5346,3.1068074002853,3.18157513783881,3.16201689444814,0.0,0.0,0.0,3.1501331441907503,0.0,0.0,0.0,0.0,0.0,0.0,0.0,0.0,0.0,0.0,0.0,0.0,0.0,0.0,
0.5483,3.1072644064787975,3.182110793688375,3.1625139537926925,0.0,0.0,0.0,3.1506297179866216,0.0,0.0,0.0,0.0,0.0,0.0,0.0,0.0,0.0,0.0,0.0,0.0,0.0,0.0,
0.562,3.107733368642908,3.1826605302851902,3.1630240463959898,0.0,0.0,0.0,3.151139315108029,0.0,0.0,0.0,0.0,0.0,0.0,0.0,0.0,0.0,0.0,0.0,0.0,0.0,0.0,
0.5757,3.108214316917589,3.18322438821425,3.1635472073623814,0.0,0.0,0.0,3.1516619708314066,0.0,0.0,0.0,0.0,0.0,0.0,0.0,0.0,0.0,0.0,0.0,0.0,0.0,0.0,
0.5894,3.1087072822763444,3.183802409195565,3.1640834727750438,0.0,0.0,0.0,3.1521977214156514,0.0,0.0,0.0,0.0,0.0,0.0,0.0,0.0,0.0,0.0,0.0,0.0,0.0,0.0,
0.6031,3.1092122965331264,3.1843946360944484,3.16463287970459,0.0,0.0,0.0,3.1527466041107215,0.0,0.0,0.0,0.0,0.0,0.0,0.0,0.0,0.0,0.0,0.0,0.0,0.0,0.0,
0.6168,3.1097293923494598,3.1850011129321993,3.1651954662182185,0.0,0.0,0.0,3.153308657166626,0.0,0.0,0.0,0.0,0.0,0.0,0.0,0.0,0.0,0.0,0.0,0.0,0.0,0.0,
0.6305,3.1102586032417756,3.1856218848970577,3.165771271388803,0.0,0.0,0.0,3.1538839198425452,0.0,0.0,0.0,0.0,0.0,0.0,0.0,0.0,0.0,0.0,0.0,0.0,0.0,0.0,
0.6442,3.110799963589009,3.1862569983554905,3.1663603353045082,0.0,0.0,0.0,3.154472432416336,0.0,0.0,0.0,0.0,0.0,0.0,0.0,0.0,0.0,0.0,0.0,0.0,0.0,0.0,
0.6579,3.11135350864033,3.1869065008638584,3.1669626990786446,0.0,0.0,0.0,3.1550742361942774,0.0,0.0,0.0,0.0,0.0,0.0,0.0,0.0,0.0,0.0,0.0,0.0,0.0,0.0,
0.6717,3.111923449218815,3.187575340659601,3.167582948216953,0.0,0.0,0.0,3.1556939126984562,0.0,0.0,0.0,0.0,0.0,0.0,0.0,0.0,0.0,0.0,0.0,0.0,0.0,0.0,
0.6854,3.1125015625588057,3.1882538746936615,3.168212137062618,0.0,0.0,0.0,3.1563225247716953,0.0,0.0,0.0,0.0,0.0,0.0,0.0,0.0,0.0,0.0,0.0,0.0,0.0,0.0,
0.6991,3.113091971933266,3.188946948085899,3.168854755686684,0.0,0.0,0.0,3.156964558568616,0.0,0.0,0.0,0.0,0.0,0.0,0.0,0.0,0.0,0.0,0.0,0.0,0.0,0.0,
0.7128,3.1136947161614805,3.189654613284654,3.1695108494148,0.0,0.0,0.0,3.157620059620312,0.0,0.0,0.0,0.0,0.0,0.0,0.0,0.0,0.0,0.0,0.0,0.0,0.0,0.0,
0.7265,3.114309834975425,3.1903769239917836,3.1701804646513922,0.0,0.0,0.0,3.1582890745395336,0.0,0.0,0.0,0.0,0.0,0.0,0.0,0.0,0.0,0.0,0.0,0.0,0.0,0.0,
0.7402,3.114937369029008,3.1911139351763964,3.1708636488912925,0.0,0.0,0.0,3.158971651032232,0.0,0.0,0.0,0.0,0.0,0.0,0.0,0.0,0.0,0.0,0.0,0.0,0.0,0.0,
0.7539,3.115577359907491,3.1918657030890705,3.1715604507317954,0.0,0.0,0.0,3.1596678379094527,0.0,0.0,0.0,0.0,0.0,0.0,0.0,0.0,0.0,0.0,0.0,0.0,0.0,0.0,
0.7676,3.1162298501372283,3.1926322852764395,3.1722709198848698,0.0,0.0,0.0,3.1603776850995122,0.0,0.0,0.0,0.0,0.0,0.0,0.0,0.0,0.0,0.0,0.0,0.0,0.0,0.0,
0.7813,3.1168948831955987,3.1934137405962093,3.1729951071899034,0.0,0.0,0.0,3.1611012436605708,0.0,0.0,0.0,0.0,0.0,0.0,0.0,0.0,0.0,0.0,0.0,0.0,0.0,0.0,
0.795,3.1175725035213144,3.1942101292324954,3.173733064626663,0.0,0.0,0.0,3.161838565793491,0.0,0.0,0.0,0.0,0.0,0.0,0.0,0.0,0.0,0.0,0.0,0.0,0.0,0.0,
0.8087,3.118262756524848,3.1950215127116692,3.174484845328674,0.0,0.0,0.0,3.1625897048550637,0.0,0.0,0.0,0.0,0.0,0.0,0.0,0.0,0.0,0.0,0.0,0.0,0.0,0.0,
0.8224,3.1189656885993178,3.19584795391865,3.175250503596962,0.0,0.0,0.0,3.1633547153716433,0.0,0.0,0.0,0.0,0.0,0.0,0.0,0.0,0.0,0.0,0.0,0.0,0.0,0.0,
0.8361,3.1196813471314693,3.196689517113484,3.1760300949140703,0.0,0.0,0.0,3.164133653053008,0.0,0.0,0.0,0.0,0.0,0.0,0.0,0.0,0.0,0.0,0.0,0.0,0.0,0.0,
0.8498,3.120409780513086,3.1975462679485913,3.1768236759586466,0.0,0.0,0.0,3.1649265748067745,0.0,0.0,0.0,0.0,0.0,0.0,0.0,0.0,0.0,0.0,0.0,0.0,0.0,0.0,
0.8636,3.1211564960612694,3.1984246947382333,3.1776372515075124,0.0,0.0,0.0,3.1657394807690054,0.0,0.0,0.0,0.0,0.0,0.0,0.0,0.0,0.0,0.0,0.0,0.0,0.0,0.0,
0.8773,3.121910722559726,3.199312135572139,3.1784590900910334,0.0,0.0,0.0,3.1665606494076326,0.0,0.0,0.0,0.0,0.0,0.0,0.0,0.0,0.0,0.0,0.0,0.0,0.0,0.0,
0.891,3.122677875610877,3.2002149700514186,3.1792950962099953,0.0,0.0,0.0,3.1673959806240966,0.0,0.0,0.0,0.0,0.0,0.0,0.0,0.0,0.0,0.0,0.0,0.0,0.0,0.0,
0.9047,3.1234580077539946,3.201133269589058,3.18014533148911,0.0,0.0,0.0,3.1682455362773876,0.0,0.0,0.0,0.0,0.0,0.0,0.0,0.0,0.0,0.0,0.0,0.0,0.0,0.0,
0.9184,3.1242511725948305,3.202067107083226,3.181009858827626,0.0,0.0,0.0,3.169109379501894,0.0,0.0,0.0,0.0,0.0,0.0,0.0,0.0,0.0,0.0,0.0,0.0,0.0,0.0,
0.9321,3.125057424818894,3.2030165569372695,3.181888742416301,0.0,0.0,0.0,3.169987574724155,0.0,0.0,0.0,0.0,0.0,0.0,0.0,0.0,0.0,0.0,0.0,0.0,0.0,0.0,
0.9458,3.125876820204964,3.2039816950802793,3.1827820477547353,0.0,0.0,0.0,3.170880187679993,0.0,0.0,0.0,0.0,0.0,0.0,0.0,0.0,0.0,0.0,0.0,0.0,0.0,0.0,
0.9595,3.1267094156390667,3.204962598988202,3.1836898416693256,0.0,0.0,0.0,3.1717872854321976,0.0,0.0,0.0,0.0,0.0,0.0,0.0,0.0,0.0,0.0,0.0,0.0,0.0,0.0,
0.9732,3.1275552691286967,3.2059593477054644,3.184612192331432,0.0,0.0,0.0,3.1727089363885312,0.0,0.0,0.0,0.0,0.0,0.0,0.0,0.0,0.0,0.0,0.0,0.0,0.0,0.0,
0.9869,3.128414439817475,3.2069720218671516,3.185549169276313,0.0,0.0,0.0,3.1736452103203128,0.0,0.0,0.0,0.0,0.0,0.0,0.0,0.0,0.0,0.0,0.0,0.0,0.0,0.0,
1.0006,3.1292869880001226,3.208000703721832,3.186500843422307,0.0,0.0,0.0,3.1745961783814205,0.0,0.0,0.0,0.0,0.0,0.0,0.0,0.0,0.0,0.0,0.0,0.0,0.0,0.0,
1.0143,3.130172975137843,3.209045477154879,3.1874672870906458,0.0,0.0,0.0,3.175561913127789,0.0,0.0,0.0,0.0,0.0,0.0,0.0,0.0,0.0,0.0,0.0,0.0,0.0,0.0,
1.028,3.131072463874063,3.2101064277124713,3.1884485740257857,0.0,0.0,0.0,3.17654248853744,0.0,0.0,0.0,0.0,0.0,0.0,0.0,0.0,0.0,0.0,0.0,0.0,0.0,0.0,
1.0417,3.131985518050616,3.2111836426261697,3.189444779416219,0.0,0.0,0.0,3.1775379800310013,0.0,0.0,0.0,0.0,0.0,0.0,0.0,0.0,0.0,0.0,0.0,0.0,0.0,0.0,
1.0555,3.1329190171177217,3.2122852534290445,3.1904634162588117,0.0,0.0,0.0,3.178555895601859,0.0,0.0,0.0,0.0,0.0,0.0,0.0,0.0,0.0,0.0,0.0,0.0,0.0,0.0,
1.0692,3.1338594988004522,3.213395385984615,3.1914898003235397,0.0,0.0,0.0,3.1795815617028693,0.0,0.0,0.0,0.0,0.0,0.0,0.0,0.0,0.0,0.0,0.0,0.0,0.0,0.0,
1.0829,3.134813745304564,3.214522055640047,3.192531337876746,0.0,0.0,0.0,3.1806223796071187,0.0,0.0,0.0,0.0,0.0,0.0,0.0,0.0,0.0,0.0,0.0,0.0,0.0,0.0,
1.0966,3.1357818254445036,3.2156653566404283,3.1935881101137,0.0,0.0,0.0,3.181678430732877,0.0,0.0,0.0,0.0,0.0,0.0,0.0,0.0,0.0,0.0,0.0,0.0,0.0,0.0,
1.1103,3.136763809320237,3.216825385049221,3.194660199786448,0.0,0.0,0.0,3.182749798051969,0.0,0.0,0.0,0.0,0.0,0.0,0.0,0.0,0.0,0.0,0.0,0.0,0.0,0.0,
1.124,3.1377597683360188,3.218002238776923,3.195747691228136,0.0,0.0,0.0,3.1838365661136927,0.0,0.0,0.0,0.0,0.0,0.0,0.0,0.0,0.0,0.0,0.0,0.0,0.0,0.0,
1.1377,3.1387697752195813,3.2191960176104644,3.196850670377951,0.0,0.0,0.0,3.184938821069332,0.0,0.0,0.0,0.0,0.0,0.0,0.0,0.0,0.0,0.0,0.0,0.0,0.0,0.0,
1.1514,3.1397939040418046,3.2204068232433563,3.197969224806701,0.0,0.0,0.0,3.1860566506972874,0.0,0.0,0.0,0.0,0.0,0.0,0.0,0.0,0.0,0.0,0.0,0.0,0.0,0.0,
1.1651,3.140832230236897,3.2216347593066343,3.199103443743107,0.0,0.0,0.0,3.1871901444288793,0.0,0.0,0.0,0.0,0.0,0.0,0.0,0.0,0.0,0.0,0.0,0.0,0.0,0.0,
1.1788,3.1418848306230616,3.22287993140057,3.200253418100728,0.0,0.0,0.0,3.188339393374786,0.0,0.0,0.0,0.0,0.0,0.0,0.0,0.0,0.0,0.0,0.0,0.0,0.0,0.0,
1.1925,3.1429517834237184,3.2241424471272486,3.2014192405056185,0.0,0.0,0.0,3.189504490352195,0.0,0.0,0.0,0.0,0.0,0.0,0.0,0.0,0.0,0.0,0.0,0.0,0.0,0.0,
1.2062,3.1440331682891656,3.2254224161239584,3.202601005324736,0.0,0.0,0.0,3.19068552991262,0.0,0.0,0.0,0.0,0.0,0.0,0.0,0.0,0.0,0.0,0.0,0.0,0.0,0.0,
1.2199,3.145129066318934,3.2267199500974737,3.2037988086950517,0.0,0.0,0.0,3.1918826083704865,0.0,0.0,0.0,0.0,0.0,0.0,0.0,0.0,0.0,0.0,0.0,0.0,0.0,0.0,
1.2336,3.146239560084537,3.228035162859183,3.205012748553468,0.0,0.0,0.0,3.193095823832396,0.0,0.0,0.0,0.0,0.0,0.0,0.0,0.0,0.0,0.0,0.0,0.0,0.0,0.0,
1.2474,3.1473730007752527,3.2293779660505564,3.2062519639929157,0.0,0.0,0.0,3.1943343102729087,0.0,0.0,0.0,0.0,0.0,0.0,0.0,0.0,0.0,0.0,0.0,0.0,0.0,0.0,
1.2611,3.1485130478277634,3.230729017613291,3.20749859762498,0.0,0.0,0.0,3.1955802210220114,0.0,0.0,0.0,0.0,0.0,0.0,0.0,0.0,0.0,0.0,0.0,0.0,0.0,0.0,
1.2748,3.149667948041498,3.232098103278375,3.208761673428952,0.0,0.0,0.0,3.196842574916275,0.0,0.0,0.0,0.0,0.0,0.0,0.0,0.0,0.0,0.0,0.0,0.0,0.0,0.0,
1.2885,3.15083779012759,3.233485345662672,3.210041296870701,0.0,0.0,0.0,3.1981214775536544,0.0,0.0,0.0,0.0,0.0,0.0,0.0,0.0,0.0,0.0,0.0,0.0,0.0,0.0,
1.3022,3.1520226643924714,3.2348908696780287,3.2113375753780606,0.0,0.0,0.0,3.199417036482853,0.0,0.0,0.0,0.0,0.0,0.0,0.0,0.0,0.0,0.0,0.0,0.0,0.0,0.0,
1.3159,3.153222662764331,3.2363148025723487,3.2126506183758177,0.0,0.0,0.0,3.2007293612374994,0.0,0.0,0.0,0.0,0.0,0.0,0.0,0.0,0.0,0.0,0.0,0.0,0.0,0.0,
1.3296,3.1544378788203784,3.2377572739717992,3.2139805373216923,0.0,0.0,0.0,3.20205856337129,0.0,0.0,0.0,0.0,0.0,0.0,0.0,0.0,0.0,0.0,0.0,0.0,0.0,0.0,
1.3433,3.155668407814683,3.239218415923975,3.215327445743171,0.0,0.0,0.0,3.2034047564939425,0.0,0.0,0.0,0.0,0.0,0.0,0.0,0.0,0.0,0.0,0.0,0.0,0.0,0.0,
1.357,3.156914346706803,3.240698362942482,3.2166914592754665,0.0,0.0,0.0,3.20476805630825,0.0,0.0,0.0,0.0,0.0,0.0,0.0,0.0,0.0,0.0,0.0,0.0,0.0,0.0,
1.3707,3.1581757941910906,3.242197252052339,3.2180726957004278,0.0,0.0,0.0,3.206148580647952,0.0,0.0,0.0,0.0,0.0,0.0,0.0,0.0,0.0,0.0,0.0,0.0,0.0,0.0,
1.3844,3.159452850726814,3.243715222836955,3.219471274986477,0.0,0.0,0.0,3.2075464495167485,0.0,0.0,0.0,0.0,0.0,0.0,0.0,0.0,0.0,0.0,0.0,0.0,0.0,0.0,
1.3981,3.160745618569001,3.2452524174861614,3.220887319329768,0.0,0.0,0.0,3.20896178512831,0.0,0.0,0.0,0.0,0.0,0.0,0.0,0.0,0.0,0.0,0.0,0.0,0.0,0.0,
1.4118,3.162054201800069,3.246808980845533,3.222320953196277,0.0,0.0,0.0,3.210394711947293,0.0,0.0,0.0,0.0,0.0,0.0,0.0,0.0,0.0,0.0,0.0,0.0,0.0,0.0,
1.4255,3.163378706362383,3.24838506046711,3.223772303365232,0.0,0.0,0.0,3.211845356731575,0.0,0.0,0.0,0.0,0.0,0.0,0.0,0.0,0.0,0.0,0.0,0.0,0.0,0.0,
1.4393,3.1647290842056743,3.24999252711857,3.2252522889559962,0.0,0.0,0.0,3.213324633426747,0.0,0.0,0.0,0.0,0.0,0.0,0.0,0.0,0.0,0.0,0.0,0.0,0.0,0.0,
1.453,3.1660858750753493,3.251608238247634,3.2267395932528142,0.0,0.0,0.0,3.214811235525266,0.0,0.0,0.0,0.0,0.0,0.0,0.0,0.0,0.0,0.0,0.0,0.0,0.0,0.0,
1.4667,3.1674589174231818,3.2532439262109643,3.228245009507931,0.0,0.0,0.0,3.2163159510473593,0.0,0.0,0.0,0.0,0.0,0.0,0.0,0.0,0.0,0.0,0.0,0.0,0.0,0.0,
1.4804,3.168848324987937,3.2548997499430756,3.229768674229878,0.0,0.0,0.0,3.217838916386963,0.0,0.0,0.0,0.0,0.0,0.0,0.0,0.0,0.0,0.0,0.0,0.0,0.0,0.0,
1.4941,3.170254213544151,3.256575871360315,3.231310726476202,0.0,0.0,0.0,3.219380270460223,0.0,0.0,0.0,0.0,0.0,0.0,0.0,0.0,0.0,0.0,0.0,0.0,0.0,0.0,
1.5078,3.171676700940093,3.2582724554203613,3.232871307904637,0.0,0.0,0.0,3.2209401547550307,0.0,0.0,0.0,0.0,0.0,0.0,0.0,0.0,0.0,0.0,0.0,0.0,0.0,0.0,
1.5215,3.1731159071366686,3.2599896701836255,3.234450562825619,0.0,0.0,0.0,3.222518713381971,0.0,0.0,0.0,0.0,0.0,0.0,0.0,0.0,0.0,0.0,0.0,0.0,0.0,0.0,
1.5352,3.1745719542474724,3.2617276868760388,3.236048638256378,0.0,0.0,0.0,3.22411609312663,0.0,0.0,0.0,0.0,0.0,0.0,0.0,0.0,0.0,0.0,0.0,0.0,0.0,0.0,
1.5489,3.1760449665798234,3.26348667995382,3.2376656839764935,0.0,0.0,0.0,3.2257324435033787,0.0,0.0,0.0,0.0,0.0,0.0,0.0,0.0,0.0,0.0,0.0,0.0,0.0,0.0,
1.5626,3.177535070676953,3.265266827170055,3.2393018525850983,0.0,0.0,0.0,3.2273679168107026,0.0,0.0,0.0,0.0,0.0,0.0,0.0,0.0,0.0,0.0,0.0,0.0,0.0,0.0,
1.5763,3.1790423953612565,3.2670683096428528,3.2409572995597347,0.0,0.0,0.0,3.229022668187948,0.0,0.0,0.0,0.0,0.0,0.0,0.0,0.0,0.0,0.0,0.0,0.0,0.0,0.0,
1.59,3.180567071778866,3.268891311925924,3.242632183316841,0.0,0.0,0.0,3.230696855673877,0.0,0.0,0.0,0.0,0.0,0.0,0.0,0.0,0.0,0.0,0.0,0.0,0.0,0.0,
1.6037,3.1821092334452485,3.2707360220806363,3.244326665274038,0.0,0.0,0.0,3.2323906402666407,0.0,0.0,0.0,0.0,0.0,0.0,0.0,0.0,0.0,0.0,0.0,0.0,0.0,0.0,
1.6174,3.1836690162921695,3.2726026317505177,3.246040909914251,0.0,0.0,0.0,3.2341041859856463,0.0,0.0,0.0,0.0,0.0,0.0,0.0,0.0,0.0,0.0,0.0,0.0,0.0,0.0,
1.6312,3.1852581392583126,3.274505204115671,3.247787816750318,0.0,0.0,0.0,3.2358503867081008,0.0,0.0,0.0,0.0,0.0,0.0,0.0,0.0,0.0,0.0,0.0,0.0,0.0,0.0,
1.6449,3.186853713354195,3.2764163659293373,3.249542240157661,0.0,0.0,0.0,3.2376041064803975,0.0,0.0,0.0,0.0,0.0,0.0,0.0,0.0,0.0,0.0,0.0,0.0,0.0,0.0,
1.6586,3.188467332469588,3.2783500259520792,3.251316940040971,0.0,0.0,0.0,3.239378099487546,0.0,0.0,0.0,0.0,0.0,0.0,0.0,0.0,0.0,0.0,0.0,0.0,0.0,0.0,
1.6723,3.1900991427165737,3.2803063909717265,3.2531120938485,0.0,0.0,0.0,3.241172542512267,0.0,0.0,0.0,0.0,0.0,0.0,0.0,0.0,0.0,0.0,0.0,0.0,0.0,0.0,
1.686,3.1917492928787876,3.2822856717638835,3.2549278824443615,0.0,0.0,0.0,3.2429876156956774,0.0,0.0,0.0,0.0,0.0,0.0,0.0,0.0,0.0,0.0,0.0,0.0,0.0,0.0,
1.6997,3.1934179344667437,3.284288083180259,3.256764490184985,0.0,0.0,0.0,3.2448235026106627,0.0,0.0,0.0,0.0,0.0,0.0,0.0,0.0,0.0,0.0,0.0,0.0,0.0,0.0,
1.7134,3.1951052217747398,3.2863138442394417,3.258622104997736,0.0,0.0,0.0,3.2466803903373056,0.0,0.0,0.0,0.0,0.0,0.0,0.0,0.0,0.0,0.0,0.0,0.0,0.0,0.0,
1.7271,3.1968113119393315,3.2883631782204215,3.2605009184620894,0.0,0.0,0.0,3.248558469540614,0.0,0.0,0.0,0.0,0.0,0.0,0.0,0.0,0.0,0.0,0.0,0.0,0.0,0.0,
1.7408,3.1985363649995175,3.290436312758897,3.2624011258932546,0.0,0.0,0.0,3.250457934550557,0.0,0.0,0.0,0.0,0.0,0.0,0.0,0.0,0.0,0.0,0.0,0.0,0.0,0.0,
1.7545,3.2002805439586384,3.292533479946434,3.2643229264283025,0.0,0.0,0.0,3.2523789834444585,0.0,0.0,0.0,0.0,0.0,0.0,0.0,0.0,0.0,0.0,0.0,0.0,0.0,0.0,
1.7682,3.2020440148480165,3.294654916432545,3.266266523115009,0.0,0.0,0.0,3.2543218181318565,0.0,0.0,0.0,0.0,0.0,0.0,0.0,0.0,0.0,0.0,0.0,0.0,0.0,0.0,
1.7819,3.203826946792511,3.2968008635300237,3.268232123003408,0.0,0.0,0.0,3.2562866444419805,0.0,0.0,0.0,0.0,0.0,0.0,0.0,0.0,0.0,0.0,0.0,0.0,0.0,0.0,
