energies(eV),real_xx,real_yy,real_zz,real_xy,real_yz,real_xz,real_ave,imag_xx,imag_yy,imag_zz,imag_xy,imag_yz,imag_xz,imag_ave,absorption_xx,absorption_yy,absorption_zz,absorption_xy,absorption_yz,absorption_xz,absorption_ave,band_gap
0.0,2.4692439174698384,2.4692439174698384,2.5796259409269418,0.0,0.0,0.0,2.5060379252888727,0.0,0.0,0.0,0.0,0.0,0.0,0.0,0.0,0.0,0.0,0.0,0.0,0.0,0.0,6.067
0.0167,2.4692467476877837,2.4692467476877837,2.5796293050583374,0.0,0.0,0.0,2.5060409334779683,0.0,0.0,0.0,0.0,0.0,0.0,0.0,0.0,0.0,0.0,0.0,0.0,0.0,0.0,
0.0335,2.4692553063519016,2.4692553063519016,2.5796394783035312,0.0,0.0,0.0,2.506050030335778,0.0,0.0,0.0,0.0,0.0,0.0,0.0,0.0,0.0,0.0,0.0,0.0,0.0,0.0,
0.0502,2.4692694919282987,2.4692694919282987,2.579656340006353,0.0,0.0,0.0,2.5060651079543166,0.0,0.0,0.0,0.0,0.0,0.0,0.0,0.0,0.0,0.0,0.0,0.0,0.0,0.0,
0.067,2.4692894749007874,2.4692894749007874,2.5796800928662345,0.0,0.0,0.0,2.5060863475559363,0.0,0.0,0.0,0.0,0.0,0.0,0.0,0.0,0.0,0.0,0.0,0.0,0.0,0.0,
0.0837,2.4693150182057693,2.4693150182057693,2.579710455171014,0.0,0.0,0.0,2.506113497194184,0.0,0.0,0.0,0.0,0.0,0.0,0.0,0.0,0.0,0.0,0.0,0.0,0.0,0.0,
0.1005,2.469346428825707,2.469346428825707,2.579747791915155,0.0,0.0,0.0,2.5061468831888565,0.0,0.0,0.0,0.0,0.0,0.0,0.0,0.0,0.0,0.0,0.0,0.0,0.0,0.0,
0.1172,2.4693833341280493,2.4693833341280493,2.5797916602802404,0.0,0.0,0.0,2.506186109512113,0.0,0.0,0.0,0.0,0.0,0.0,0.0,0.0,0.0,0.0,0.0,0.0,0.0,0.0,
0.134,2.469426177645645,2.469426177645645,2.5798425876219415,0.0,0.0,0.0,2.506231647637744,0.0,0.0,0.0,0.0,0.0,0.0,0.0,0.0,0.0,0.0,0.0,0.0,0.0,0.0,
0.1507,2.4694744511151843,2.4694744511151843,2.579899969936632,0.0,0.0,0.0,2.506282957389,0.0,0.0,0.0,0.0,0.0,0.0,0.0,0.0,0.0,0.0,0.0,0.0,0.0,0.0,
0.1675,2.469528734694711,2.469528734694711,2.5799644970368476,0.0,0.0,0.0,2.506340655475423,0.0,0.0,0.0,0.0,0.0,0.0,0.0,0.0,0.0,0.0,0.0,0.0,0.0,0.0,
0.1842,2.469588384405906,2.469588384405906,2.580035403626059,0.0,0.0,0.0,2.5064040574792905,0.0,0.0,0.0,0.0,0.0,0.0,0.0,0.0,0.0,0.0,0.0,0.0,0.0,0.0,
0.201,2.469654117129827,2.469654117129827,2.580113542098828,0.0,0.0,0.0,2.5064739254528274,0.0,0.0,0.0,0.0,0.0,0.0,0.0,0.0,0.0,0.0,0.0,0.0,0.0,0.0,
0.2177,2.469725153066303,2.469725153066303,2.5801979857291366,0.0,0.0,0.0,2.506549430620581,0.0,0.0,0.0,0.0,0.0,0.0,0.0,0.0,0.0,0.0,0.0,0.0,0.0,0.0,
0.2345,2.4698023459404195,2.4698023459404195,2.580289749648351,0.0,0.0,0.0,2.50663148050973,0.0,0.0,0.0,0.0,0.0,0.0,0.0,0.0,0.0,0.0,0.0,0.0,0.0,0.0,
0.2512,2.469884780000691,2.469884780000691,2.580387745535508,0.0,0.0,0.0,2.50671910184563,0.0,0.0,0.0,0.0,0.0,0.0,0.0,0.0,0.0,0.0,0.0,0.0,0.0,0.0,
0.268,2.4699734459604548,2.4699734459604548,2.5804931514432266,0.0,0.0,0.0,2.506813347788045,0.0,0.0,0.0,0.0,0.0,0.0,0.0,0.0,0.0,0.0,0.0,0.0,0.0,0.0,
0.2847,2.4700672919647317,2.4700672919647317,2.5806047172610893,0.0,0.0,0.0,2.506913100396851,0.0,0.0,0.0,0.0,0.0,0.0,0.0,0.0,0.0,0.0,0.0,0.0,0.0,0.0,
0.3015,2.4701674458826144,2.4701674458826144,2.58072378417729,0.0,0.0,0.0,2.507019558647506,0.0,0.0,0.0,0.0,0.0,0.0,0.0,0.0,0.0,0.0,0.0,0.0,0.0,0.0,
0.3182,2.4702727195807075,2.4702727195807075,2.5808489400682886,0.0,0.0,0.0,2.5071314597432344,0.0,0.0,0.0,0.0,0.0,0.0,0.0,0.0,0.0,0.0,0.0,0.0,0.0,0.0,
0.335,2.470384378274719,2.470384378274719,2.5809816895020377,0.0,0.0,0.0,2.5072501486838252,0.0,0.0,0.0,0.0,0.0,0.0,0.0,0.0,0.0,0.0,0.0,0.0,0.0,0.0,
0.3517,2.470501097355041,2.470501097355041,2.581120458089022,0.0,0.0,0.0,2.5073742175997014,0.0,0.0,0.0,0.0,0.0,0.0,0.0,0.0,0.0,0.0,0.0,0.0,0.0,0.0,
0.3685,2.470624279598394,2.470624279598394,2.5812669140512727,0.0,0.0,0.0,2.5075051577493537,0.0,0.0,0.0,0.0,0.0,0.0,0.0,0.0,0.0,0.0,0.0,0.0,0.0,0.0,
0.3852,2.470752463698119,2.470752463698119,2.581419320450915,0.0,0.0,0.0,2.507641415949051,0.0,0.0,0.0,0.0,0.0,0.0,0.0,0.0,0.0,0.0,0.0,0.0,0.0,0.0,
0.402,2.4708871902299787,2.4708871902299787,2.581579509468633,0.0,0.0,0.0,2.507784629976197,0.0,0.0,0.0,0.0,0.0,0.0,0.0,0.0,0.0,0.0,0.0,0.0,0.0,0.0,
0.4187,2.4710268609463615,2.4710268609463615,2.5817455813063193,0.0,0.0,0.0,2.5079331010663473,0.0,0.0,0.0,0.0,0.0,0.0,0.0,0.0,0.0,0.0,0.0,0.0,0.0,0.0,
0.4355,2.4711731544838553,2.4711731544838553,2.5819195324382926,0.0,0.0,0.0,2.508088613802001,0.0,0.0,0.0,0.0,0.0,0.0,0.0,0.0,0.0,0.0,0.0,0.0,0.0,0.0,
0.4522,2.4713243353866603,2.4713243353866603,2.5820992998645576,0.0,0.0,0.0,2.5082493235459595,0.0,0.0,0.0,0.0,0.0,0.0,0.0,0.0,0.0,0.0,0.0,0.0,0.0,0.0,
0.469,2.471482220637914,2.471482220637914,2.582287044718632,0.0,0.0,0.0,2.5084171619981532,0.0,0.0,0.0,0.0,0.0,0.0,0.0,0.0,0.0,0.0,0.0,0.0,0.0,0.0,
0.4857,2.471644937283061,2.471644937283061,2.5824805404270545,0.0,0.0,0.0,2.508590138331059,0.0,0.0,0.0,0.0,0.0,0.0,0.0,0.0,0.0,0.0,0.0,0.0,0.0,0.0,
0.5025,2.4718144409615497,2.4718144409615497,2.582682113179046,0.0,0.0,0.0,2.508770331700715,0.0,0.0,0.0,0.0,0.0,0.0,0.0,0.0,0.0,0.0,0.0,0.0,0.0,0.0,
0.5192,2.471988720905907,2.471988720905907,2.582889372425856,0.0,0.0,0.0,2.50895560474589,0.0,0.0,0.0,0.0,0.0,0.0,0.0,0.0,0.0,0.0,0.0,0.0,0.0,0.0,
0.536,2.472169871745959,2.472169871745959,2.5831048098399023,0.0,0.0,0.0,2.5091481844439403,0.0,0.0,0.0,0.0,0.0,0.0,0.0,0.0,0.0,0.0,0.0,0.0,0.0,0.0,
0.5527,2.4723557445633877,2.4723557445633877,2.583325870465031,0.0,0.0,0.0,2.509345786530602,0.0,0.0,0.0,0.0,0.0,0.0,0.0,0.0,0.0,0.0,0.0,0.0,0.0,0.0,
0.5695,2.4725485733369093,2.4725485733369093,2.583555211915766,0.0,0.0,0.0,2.509550786196528,0.0,0.0,0.0,0.0,0.0,0.0,0.0,0.0,0.0,0.0,0.0,0.0,0.0,0.0,
0.5862,2.472746070635475,2.472746070635475,2.5837901143656206,0.0,0.0,0.0,2.509760751878857,0.0,0.0,0.0,0.0,0.0,0.0,0.0,0.0,0.0,0.0,0.0,0.0,0.0,0.0,
0.603,2.4729506101699017,2.4729506101699017,2.5840334018617623,0.0,0.0,0.0,2.509978207400522,0.0,0.0,0.0,0.0,0.0,0.0,0.0,0.0,0.0,0.0,0.0,0.0,0.0,0.0,
0.6197,2.473159765610422,2.473159765610422,2.584282189213602,0.0,0.0,0.0,2.5102005734781487,0.0,0.0,0.0,0.0,0.0,0.0,0.0,0.0,0.0,0.0,0.0,0.0,0.0,0.0,
0.6365,2.473376050808028,2.473376050808028,2.5845394674233826,0.0,0.0,0.0,2.5104305230131465,0.0,0.0,0.0,0.0,0.0,0.0,0.0,0.0,0.0,0.0,0.0,0.0,0.0,0.0,
0.6532,2.4735969001237796,2.4735969001237796,2.5848021854113634,0.0,0.0,0.0,2.510665328552974,0.0,0.0,0.0,0.0,0.0,0.0,0.0,0.0,0.0,0.0,0.0,0.0,0.0,0.0,
0.67,2.4738249679821265,2.4738249679821265,2.5850735016895987,0.0,0.0,0.0,2.510907812551284,0.0,0.0,0.0,0.0,0.0,0.0,0.0,0.0,0.0,0.0,0.0,0.0,0.0,0.0,
0.6867,2.4740575489999768,2.4740575489999768,2.5853501987326,0.0,0.0,0.0,2.511155098910851,0.0,0.0,0.0,0.0,0.0,0.0,0.0,0.0,0.0,0.0,0.0,0.0,0.0,0.0,
0.7035,2.474297438633852,2.474297438633852,2.585635603149491,0.0,0.0,0.0,2.511410160139065,0.0,0.0,0.0,0.0,0.0,0.0,0.0,0.0,0.0,0.0,0.0,0.0,0.0,0.0,
0.7202,2.4745417912966,2.4745417912966,2.585926330380551,0.0,0.0,0.0,2.5116699709912504,0.0,0.0,0.0,0.0,0.0,0.0,0.0,0.0,0.0,0.0,0.0,0.0,0.0,0.0,
0.737,2.474793543961164,2.474793543961164,2.586225875752289,0.0,0.0,0.0,2.511937654558206,0.0,0.0,0.0,0.0,0.0,0.0,0.0,0.0,0.0,0.0,0.0,0.0,0.0,0.0,
0.7537,2.475049710351286,2.475049710351286,2.5865306870499847,0.0,0.0,0.0,2.512210035917519,0.0,0.0,0.0,0.0,0.0,0.0,0.0,0.0,0.0,0.0,0.0,0.0,0.0,0.0,
0.7704,2.4753117823632382,2.4753117823632382,2.586842540347164,0.0,0.0,0.0,2.5124887016912134,0.0,0.0,0.0,0.0,0.0,0.0,0.0,0.0,0.0,0.0,0.0,0.0,0.0,0.0,
0.7872,2.4755813938314764,2.4755813938314764,2.587163380992727,0.0,0.0,0.0,2.512775389551893,0.0,0.0,0.0,0.0,0.0,0.0,0.0,0.0,0.0,0.0,0.0,0.0,0.0,0.0,
0.8039,2.4758553466925086,2.4758553466925086,2.5874894043065,0.0,0.0,0.0,2.5130666992305057,0.0,0.0,0.0,0.0,0.0,0.0,0.0,0.0,0.0,0.0,0.0,0.0,0.0,0.0,
0.8207,2.476136933786928,2.476136933786928,2.5878245300868787,0.0,0.0,0.0,2.5133661325535783,0.0,0.0,0.0,0.0,0.0,0.0,0.0,0.0,0.0,0.0,0.0,0.0,0.0,0.0,
0.8374,2.476422815038481,2.476422815038481,2.588164784304432,0.0,0.0,0.0,2.5136701381271314,0.0,0.0,0.0,0.0,0.0,0.0,0.0,0.0,0.0,0.0,0.0,0.0,0.0,0.0,
0.8542,2.476716426705072,2.476716426705072,2.588514257909961,0.0,0.0,0.0,2.513982370440035,0.0,0.0,0.0,0.0,0.0,0.0,0.0,0.0,0.0,0.0,0.0,0.0,0.0,0.0,
0.8709,2.477014286122448,2.477014286122448,2.5888688067881755,0.0,0.0,0.0,2.514299126344357,0.0,0.0,0.0,0.0,0.0,0.0,0.0,0.0,0.0,0.0,0.0,0.0,0.0,0.0,
0.8877,2.477319973569527,2.477319973569527,2.589232693815878,0.0,0.0,0.0,2.514624213651644,0.0,0.0,0.0,0.0,0.0,0.0,0.0,0.0,0.0,0.0,0.0,0.0,0.0,0.0,
0.9044,2.477629863192117,2.477629863192117,2.589601604021235,0.0,0.0,0.0,2.514953776801823,0.0,0.0,0.0,0.0,0.0,0.0,0.0,0.0,0.0,0.0,0.0,0.0,0.0,0.0,
0.9212,2.477947679921382,2.477947679921382,2.5899799730159643,0.0,0.0,0.0,2.5152917776195762,0.0,0.0,0.0,0.0,0.0,0.0,0.0,0.0,0.0,0.0,0.0,0.0,0.0,0.0,
0.9379,2.478269654084423,2.478269654084423,2.59036331416644,0.0,0.0,0.0,2.5156342074450957,0.0,0.0,0.0,0.0,0.0,0.0,0.0,0.0,0.0,0.0,0.0,0.0,0.0,0.0,
0.9547,2.4785996559238166,2.4785996559238166,2.590756236664139,0.0,0.0,0.0,2.5159851828372575,0.0,0.0,0.0,0.0,0.0,0.0,0.0,0.0,0.0,0.0,0.0,0.0,0.0,0.0,
0.9714,2.478933771291822,2.478933771291822,2.5911540813732326,0.0,0.0,0.0,2.516340541318959,0.0,0.0,0.0,0.0,0.0,0.0,0.0,0.0,0.0,0.0,0.0,0.0,0.0,0.0,
0.9882,2.4792760164298495,2.4792760164298495,2.5915616319462327,0.0,0.0,0.0,2.5167045549353104,0.0,0.0,0.0,0.0,0.0,0.0,0.0,0.0,0.0,0.0,0.0,0.0,0.0,0.0,
1.0049,2.4796223320315827,2.4796223320315827,2.591974055869155,0.0,0.0,0.0,2.5170729066441067,0.0,0.0,0.0,0.0,0.0,0.0,0.0,0.0,0.0,0.0,0.0,0.0,0.0,0.0,
1.0217,2.4799768810534024,2.4799768810534024,2.5923963121737916,0.0,0.0,0.0,2.517450024760199,0.0,0.0,0.0,0.0,0.0,0.0,0.0,0.0,0.0,0.0,0.0,0.0,0.0,0.0,
1.0384,2.4803354583185193,2.4803354583185193,2.5928233940558805,0.0,0.0,0.0,2.5178314368976396,0.0,0.0,0.0,0.0,0.0,0.0,0.0,0.0,0.0,0.0,0.0,0.0,0.0,0.0,
1.0552,2.480702374243678,2.480702374243678,2.5932604368822805,0.0,0.0,0.0,2.5182217284565453,0.0,0.0,0.0,0.0,0.0,0.0,0.0,0.0,0.0,0.0,0.0,0.0,0.0,0.0,
1.0719,2.4810732770412374,2.4810732770412374,2.5937022586096514,0.0,0.0,0.0,2.5186162708973754,0.0,0.0,0.0,0.0,0.0,0.0,0.0,0.0,0.0,0.0,0.0,0.0,0.0,0.0,
1.0887,2.4814526253632465,2.4814526253632465,2.594154171933956,0.0,0.0,0.0,2.5190198075534833,0.0,0.0,0.0,0.0,0.0,0.0,0.0,0.0,0.0,0.0,0.0,0.0,0.0,0.0,
1.1054,2.481835920041788,2.481835920041788,2.594610818586589,0.0,0.0,0.0,2.519427552890055,0.0,0.0,0.0,0.0,0.0,0.0,0.0,0.0,0.0,0.0,0.0,0.0,0.0,0.0,
1.1222,2.4822277687694725,2.4822277687694725,2.5950776896254815,0.0,0.0,0.0,2.5198444090548087,0.0,0.0,0.0,0.0,0.0,0.0,0.0,0.0,0.0,0.0,0.0,0.0,0.0,0.0,
1.1389,2.4826235241991457,2.4826235241991457,2.5955492495326657,0.0,0.0,0.0,2.520265432643652,0.0,0.0,0.0,0.0,0.0,0.0,0.0,0.0,0.0,0.0,0.0,0.0,0.0,0.0,
1.1557,2.483027943899815,2.483027943899815,2.5960311688004736,0.0,0.0,0.0,2.520695685533368,0.0,0.0,0.0,0.0,0.0,0.0,0.0,0.0,0.0,0.0,0.0,0.0,0.0,0.0,
1.1724,2.483436231516295,2.483436231516295,2.5965177335988017,0.0,0.0,0.0,2.521130065543797,0.0,0.0,0.0,0.0,0.0,0.0,0.0,0.0,0.0,0.0,0.0,0.0,0.0,0.0,
1.1892,2.483853295361028,2.483853295361028,2.5970147949671145,0.0,0.0,0.0,2.5215737952297235,0.0,0.0,0.0,0.0,0.0,0.0,0.0,0.0,0.0,0.0,0.0,0.0,0.0,0.0,
1.2059,2.4842741892113747,2.4842741892113747,2.597516459661098,0.0,0.0,0.0,2.5220216126946156,0.0,0.0,0.0,0.0,0.0,0.0,0.0,0.0,0.0,0.0,0.0,0.0,0.0,0.0,
1.2227,2.484703973022114,2.484703973022114,2.598028760421011,0.0,0.0,0.0,2.5224789021550795,0.0,0.0,0.0,0.0,0.0,0.0,0.0,0.0,0.0,0.0,0.0,0.0,0.0,0.0,
1.2394,2.4851375498127446,2.4851375498127446,2.598545623446282,0.0,0.0,0.0,2.5229402410239237,0.0,0.0,0.0,0.0,0.0,0.0,0.0,0.0,0.0,0.0,0.0,0.0,0.0,0.0,
1.2562,2.4855801321115587,2.4855801321115587,2.599073264373474,0.0,0.0,0.0,2.523411176198864,0.0,0.0,0.0,0.0,0.0,0.0,0.0,0.0,0.0,0.0,0.0,0.0,0.0,0.0,
1.2729,2.486026471258218,2.486026471258218,2.5996054276628593,0.0,0.0,0.0,2.5238861233930985,0.0,0.0,0.0,0.0,0.0,0.0,0.0,0.0,0.0,0.0,0.0,0.0,0.0,0.0,
1.2897,2.486481933318768,2.486481933318768,2.600148513085406,0.0,0.0,0.0,2.5243707932409807,0.0,0.0,0.0,0.0,0.0,0.0,0.0,0.0,0.0,0.0,0.0,0.0,0.0,0.0,
1.3064,2.486941116998728,2.486941116998728,2.6006960821378082,0.0,0.0,0.0,2.5248594387117547,0.0,0.0,0.0,0.0,0.0,0.0,0.0,0.0,0.0,0.0,0.0,0.0,0.0,0.0,
1.3232,2.487409542899769,2.487409542899769,2.6012547200069704,0.0,0.0,0.0,2.5253579352688362,0.0,0.0,0.0,0.0,0.0,0.0,0.0,0.0,0.0,0.0,0.0,0.0,0.0,0.0,
1.3399,2.4878816561062553,2.4878816561062553,2.6018178039592192,0.0,0.0,0.0,2.5258603720572435,0.0,0.0,0.0,0.0,0.0,0.0,0.0,0.0,0.0,0.0,0.0,0.0,0.0,0.0,
1.3567,2.488363132787642,2.488363132787642,2.602392105923294,0.0,0.0,0.0,2.526372790499526,0.0,0.0,0.0,0.0,0.0,0.0,0.0,0.0,0.0,0.0,0.0,0.0,0.0,0.0,
1.3734,2.488848263386581,2.488848263386581,2.602970817625097,0.0,0.0,0.0,2.52688911479942,0.0,0.0,0.0,0.0,0.0,0.0,0.0,0.0,0.0,0.0,0.0,0.0,0.0,0.0,
1.3902,2.4893428807074667,2.4893428807074667,2.603560899106361,0.0,0.0,0.0,2.527415553507098,0.0,0.0,0.0,0.0,0.0,0.0,0.0,0.0,0.0,0.0,0.0,0.0,0.0,0.0,
1.4069,2.4898411194966203,2.4898411194966203,2.6041553551984133,0.0,0.0,0.0,2.5279458647305515,0.0,0.0,0.0,0.0,0.0,0.0,0.0,0.0,0.0,0.0,0.0,0.0,0.0,0.0,
1.4237,2.490348970296303,2.490348970296303,2.6047613354734,0.0,0.0,0.0,2.5284864253553354,0.0,0.0,0.0,0.0,0.0,0.0,0.0,0.0,0.0,0.0,0.0,0.0,0.0,0.0,
1.4404,2.4908604110669295,2.4908604110669295,2.6053716564688205,0.0,0.0,0.0,2.529030826200893,0.0,0.0,0.0,0.0,0.0,0.0,0.0,0.0,0.0,0.0,0.0,0.0,0.0,0.0,
1.4572,2.491381591228085,2.491381591228085,2.605993658751869,0.0,0.0,0.0,2.5295856137360127,0.0,0.0,0.0,0.0,0.0,0.0,0.0,0.0,0.0,0.0,0.0,0.0,0.0,0.0,
1.4739,2.4919063308291927,2.4919063308291927,2.606619969121085,0.0,0.0,0.0,2.5301442102598233,0.0,0.0,0.0,0.0,0.0,0.0,0.0,0.0,0.0,0.0,0.0,0.0,0.0,0.0,
1.4906,2.492437737139782,2.492437737139782,2.607254298058158,0.0,0.0,0.0,2.530709924112574,0.0,0.0,0.0,0.0,0.0,0.0,0.0,0.0,0.0,0.0,0.0,0.0,0.0,0.0,
1.5074,2.4929790777491174,2.4929790777491174,2.607900548910662,0.0,0.0,0.0,2.5312862348029657,0.0,0.0,0.0,0.0,0.0,0.0,0.0,0.0,0.0,0.0,0.0,0.0,0.0,0.0,
1.5241,2.4935239338901463,2.4935239338901463,2.608551061343475,0.0,0.0,0.0,2.5318663097079224,0.0,0.0,0.0,0.0,0.0,0.0,0.0,0.0,0.0,0.0,0.0,0.0,0.0,0.0,
1.5409,2.494078857164907,2.494078857164907,2.6092136598466364,0.0,0.0,0.0,2.5324571247254837,0.0,0.0,0.0,0.0,0.0,0.0,0.0,0.0,0.0,0.0,0.0,0.0,0.0,0.0,
1.5576,2.494637267923805,2.494637267923805,2.6098804905274258,0.0,0.0,0.0,2.533051675458345,0.0,0.0,0.0,0.0,0.0,0.0,0.0,0.0,0.0,0.0,0.0,0.0,0.0,0.0,
1.5744,2.4952058809314464,2.4952058809314464,2.610559574382199,0.0,0.0,0.0,2.533657112081697,0.0,0.0,0.0,0.0,0.0,0.0,0.0,0.0,0.0,0.0,0.0,0.0,0.0,0.0,
1.5911,2.4957779544000007,2.4957779544000007,2.611242862346318,0.0,0.0,0.0,2.5342662570487735,0.0,0.0,0.0,0.0,0.0,0.0,0.0,0.0,0.0,0.0,0.0,0.0,0.0,0.0,
1.6079,2.4963603675705612,2.4963603675705612,2.6119385736131964,0.0,0.0,0.0,2.5348864362514396,0.0,0.0,0.0,0.0,0.0,0.0,0.0,0.0,0.0,0.0,0.0,0.0,0.0,0.0,
1.6246,2.496946215222061,2.496946215222061,2.6126384622810797,0.0,0.0,0.0,2.535510297575067,0.0,0.0,0.0,0.0,0.0,0.0,0.0,0.0,0.0,0.0,0.0,0.0,0.0,0.0,
1.6414,2.4975425424273583,2.4975425424273583,2.6133509474848395,0.0,0.0,0.0,2.5361453441131854,0.0,0.0,0.0,0.0,0.0,0.0,0.0,0.0,0.0,0.0,0.0,0.0,0.0,0.0,
1.6581,2.498142279197053,2.498142279197053,2.614067584768308,0.0,0.0,0.0,2.5367840477208046,0.0,0.0,0.0,0.0,0.0,0.0,0.0,0.0,0.0,0.0,0.0,0.0,0.0,0.0,
1.6749,2.498752637833287,2.498752637833287,2.614796995007063,0.0,0.0,0.0,2.537434090224546,0.0,0.0,0.0,0.0,0.0,0.0,0.0,0.0,0.0,0.0,0.0,0.0,0.0,0.0,
1.6916,2.4993663822020764,2.4993663822020764,2.615530533419969,0.0,0.0,0.0,2.538087765941374,0.0,0.0,0.0,0.0,0.0,0.0,0.0,0.0,0.0,0.0,0.0,0.0,0.0,0.0,
1.7084,2.499990893275732,2.499990893275732,2.6162770244788076,0.0,0.0,0.0,2.5387529370100905,0.0,0.0,0.0,0.0,0.0,0.0,0.0,0.0,0.0,0.0,0.0,0.0,0.0,0.0,
1.7251,2.5006187673573583,2.5006187673573583,2.617027621252288,0.0,0.0,0.0,2.5394217186556682,0.0,0.0,0.0,0.0,0.0,0.0,0.0,0.0,0.0,0.0,0.0,0.0,0.0,0.0,
1.7419,2.5012575555747945,2.5012575555747945,2.617791353721662,0.0,0.0,0.0,2.5401021549570837,0.0,0.0,0.0,0.0,0.0,0.0,0.0,0.0,0.0,0.0,0.0,0.0,0.0,0.0,
1.7586,2.501899685206725,2.501899685206725,2.618559170924252,0.0,0.0,0.0,2.5407861804459007,0.0,0.0,0.0,0.0,0.0,0.0,0.0,0.0,0.0,0.0,0.0,0.0,0.0,0.0,
1.7754,2.502552879067334,2.502552879067334,2.6193403103231843,0.0,0.0,0.0,2.541482022819284,0.0,0.0,0.0,0.0,0.0,0.0,0.0,0.0,0.0,0.0,0.0,0.0,0.0,0.0,
1.7921,2.5032093939053164,2.5032093939053164,2.620125514985839,0.0,0.0,0.0,2.5421814342654905,0.0,0.0,0.0,0.0,0.0,0.0,0.0,0.0,0.0,0.0,0.0,0.0,0.0,0.0,
1.8089,2.5038771257987205,2.5038771257987205,2.6209242318904176,0.0,0.0,0.0,2.542892827829286,0.0,0.0,0.0,0.0,0.0,0.0,0.0,0.0,0.0,0.0,0.0,0.0,0.0,0.0,
1.8256,2.5045481594153114,2.5045481594153114,2.621726996136834,0.0,0.0,0.0,2.543607771655819,0.0,0.0,0.0,0.0,0.0,0.0,0.0,0.0,0.0,0.0,0.0,0.0,0.0,0.0,
1.8424,2.5052305657225267,2.5052305657225267,2.62254346631389,0.0,0.0,0.0,2.5443348659196476,0.0,0.0,0.0,0.0,0.0,0.0,0.0,0.0,0.0,0.0,0.0,0.0,0.0,0.0,
1.8591,2.5059162557097077,2.5059162557097077,2.623363967496227,0.0,0.0,0.0,2.545065492971881,0.0,0.0,0.0,0.0,0.0,0.0,0.0,0.0,0.0,0.0,0.0,0.0,0.0,0.0,
1.8759,2.5066134769084893,2.5066134769084893,2.6241983720427746,0.0,0.0,0.0,2.5458084419532514,0.0,0.0,0.0,0.0,0.0,0.0,0.0,0.0,0.0,0.0,0.0,0.0,0.0,0.0,
1.8926,2.507313964984683,2.507313964984683,2.62503679288306,0.0,0.0,0.0,2.5465549076174754,0.0,0.0,0.0,0.0,0.0,0.0,0.0,0.0,0.0,0.0,0.0,0.0,0.0,0.0,
1.9094,2.508026145759314,2.508026145759314,2.6258893183714926,0.0,0.0,0.0,2.5473138699633737,0.0,0.0,0.0,0.0,0.0,0.0,0.0,0.0,0.0,0.0,0.0,0.0,0.0,0.0,
1.9261,2.5087415778807034,2.5087415778807034,2.626745847108932,0.0,0.0,0.0,2.548076334290113,0.0,0.0,0.0,0.0,0.0,0.0,0.0,0.0,0.0,0.0,0.0,0.0,0.0,0.0,
1.9429,2.5094688672364605,2.5094688672364605,2.627616685738345,0.0,0.0,0.0,2.5488514734037553,0.0,0.0,0.0,0.0,0.0,0.0,0.0,0.0,0.0,0.0,0.0,0.0,0.0,0.0,
1.9596,2.5101993937131155,2.5101993937131155,2.628491516282933,0.0,0.0,0.0,2.5496301012363882,0.0,0.0,0.0,0.0,0.0,0.0,0.0,0.0,0.0,0.0,0.0,0.0,0.0,0.0,
1.9764,2.510941945095429,2.510941945095429,2.6293808660367795,0.0,0.0,0.0,2.5504215854092123,0.0,0.0,0.0,0.0,0.0,0.0,0.0,0.0,0.0,0.0,0.0,0.0,0.0,0.0,
1.9931,2.511687720712246,2.511687720712246,2.630274198129319,0.0,0.0,0.0,2.5512165465179373,0.0,0.0,0.0,0.0,0.0,0.0,0.0,0.0,0.0,0.0,0.0,0.0,0.0,0.0,
2.0099,2.512445692130977,2.512445692130977,2.631182262939827,0.0,0.0,0.0,2.5520245490672604,0.0,0.0,0.0,0.0,0.0,0.0,0.0,0.0,0.0,0.0,0.0,0.0,0.0,0.0,
2.0266,2.5132068762738555,2.5132068762738555,2.632094302318737,0.0,0.0,0.0,2.5528360182888163,0.0,0.0,0.0,0.0,0.0,0.0,0.0,0.0,0.0,0.0,0.0,0.0,0.0,0.0,
2.0434,2.5139804304327953,2.5139804304327953,2.6330212922382463,0.0,0.0,0.0,2.553660717701279,0.0,0.0,0.0,0.0,0.0,0.0,0.0,0.0,0.0,0.0,0.0,0.0,0.0,0.0,
2.0601,2.5147571872199874,2.5147571872199874,2.6339522508135165,0.0,0.0,0.0,2.554488875084497,0.0,0.0,0.0,0.0,0.0,0.0,0.0,0.0,0.0,0.0,0.0,0.0,0.0,0.0,
2.0769,2.515546491651912,2.515546491651912,2.6348983821931418,0.0,0.0,0.0,2.5553304551656555,0.0,0.0,0.0,0.0,0.0,0.0,0.0,0.0,0.0,0.0,0.0,0.0,0.0,0.0,
2.0936,2.516338990071193,2.516338990071193,2.6358484782276355,0.0,0.0,0.0,2.556175486123341,0.0,0.0,0.0,0.0,0.0,0.0,0.0,0.0,0.0,0.0,0.0,0.0,0.0,0.0,
2.1104,2.5171442172786005,2.5171442172786005,2.6368139739035703,0.0,0.0,0.0,2.5570341361535904,0.0,0.0,0.0,0.0,0.0,0.0,0.0,0.0,0.0,0.0,0.0,0.0,0.0,0.0,
2.1271,2.517952631330121,2.517952631330121,2.637783432202249,0.0,0.0,0.0,2.55789623162083,0.0,0.0,0.0,0.0,0.0,0.0,0.0,0.0,0.0,0.0,0.0,0.0,0.0,0.0,
2.1439,2.518773958932152,2.518773958932152,2.6387685216901056,0.0,0.0,0.0,2.558772146518136,0.0,0.0,0.0,0.0,0.0,0.0,0.0,0.0,0.0,0.0,0.0,0.0,0.0,0.0,
2.1606,2.5195984677775503,2.5195984677775503,2.6397575737972607,0.0,0.0,0.0,2.5596515031174536,0.0,0.0,0.0,0.0,0.0,0.0,0.0,0.0,0.0,0.0,0.0,0.0,0.0,0.0,
2.1774,2.520436078663172,2.520436078663172,2.640762493494837,0.0,0.0,0.0,2.56054488360706,0.0,0.0,0.0,0.0,0.0,0.0,0.0,0.0,0.0,0.0,0.0,0.0,0.0,0.0,
