energies(eV),real_xx,real_yy,real_zz,real_xy,real_yz,real_xz,real_ave,imag_xx,imag_yy,imag_zz,imag_xy,imag_yz,imag_xz,imag_ave,absorption_xx,absorption_yy,absorption_zz,absorption_xy,absorption_yz,absorption_xz,absorption_ave,band_gap
0.0,3.25134019463401,3.2363378815364343,3.2807907976837254,0.0,0.0,0.0,3.2561562912847233,0.0,0.0,0.0,0.0,0.0,0.0,0.0,0.0,0.0,0.0,0.0,0.0,0.0,0.0,6.3605
0.0199,3.251347367789532,3.236344949336622,3.280798110026837,0.0,0.0,0.0,3.2561634757176634,0.0,0.0,0.0,0.0,0.0,0.0,0.0,0.0,0.0,0.0,0.0,0.0,0.0,0.0,
0.0399,3.251369032004406,3.2363662953559436,3.2808201946151447,0.0,0.0,0.0,3.256185173991831,0.0,0.0,0.0,0.0,0.0,0.0,0.0,0.0,0.0,0.0,0.0,0.0,0.0,0.0,
0.0598,3.2514049717791895,3.2364017072495366,3.280856831773501,0.0,0.0,0.0,3.256221170267409,0.0,0.0,0.0,0.0,0.0,0.0,0.0,0.0,0.0,0.0,0.0,0.0,0.0,0.0,
0.0797,3.251455261284784,3.2364512580812397,3.280908097121751,0.0,0.0,0.0,3.256271538829258,0.0,0.0,0.0,0.0,0.0,0.0,0.0,0.0,0.0,0.0,0.0,0.0,0.0,0.0,
0.0997,3.2515202642579744,3.2365153062201517,3.280974361468648,0.0,0.0,0.0,3.2563366439822583,0.0,0.0,0.0,0.0,0.0,0.0,0.0,0.0,0.0,0.0,0.0,0.0,0.0,0.0,
0.1196,3.2515993340988065,3.2365932145323666,3.281054965684669,0.0,0.0,0.0,3.2564158381052803,0.0,0.0,0.0,0.0,0.0,0.0,0.0,0.0,0.0,0.0,0.0,0.0,0.0,0.0,
0.1395,3.251692763934417,3.236685271800594,3.2811502086064435,0.0,0.0,0.0,3.256509414780485,0.0,0.0,0.0,0.0,0.0,0.0,0.0,0.0,0.0,0.0,0.0,0.0,0.0,0.0,
0.1595,3.251801136666071,3.236792052315854,3.281260684472844,0.0,0.0,0.0,3.2566179578182566,0.0,0.0,0.0,0.0,0.0,0.0,0.0,0.0,0.0,0.0,0.0,0.0,0.0,0.0,
0.1794,3.251923374288055,3.2369124938573197,3.2813852943872472,0.0,0.0,0.0,3.256740387510874,0.0,0.0,0.0,0.0,0.0,0.0,0.0,0.0,0.0,0.0,0.0,0.0,0.0,0.0,
0.1993,3.252059989027387,3.2370471010666653,3.2815245605502485,0.0,0.0,0.0,3.2568772168814335,0.0,0.0,0.0,0.0,0.0,0.0,0.0,0.0,0.0,0.0,0.0,0.0,0.0,0.0,
0.2193,3.2522117832325614,3.2371966644327825,3.2816793009206084,0.0,0.0,0.0,3.257029249528651,0.0,0.0,0.0,0.0,0.0,0.0,0.0,0.0,0.0,0.0,0.0,0.0,0.0,0.0,
0.2392,3.2523772469829537,3.237359696150905,3.2818479763129447,0.0,0.0,0.0,3.2571949731489345,0.0,0.0,0.0,0.0,0.0,0.0,0.0,0.0,0.0,0.0,0.0,0.0,0.0,0.0,
0.2591,3.252557111855865,3.2375369169659116,3.2820313325484927,0.0,0.0,0.0,3.257375120456756,0.0,0.0,0.0,0.0,0.0,0.0,0.0,0.0,0.0,0.0,0.0,0.0,0.0,0.0,
0.2791,3.2527524000369343,3.2377293339450675,3.2822304117053758,0.0,0.0,0.0,3.2575707152291256,0.0,0.0,0.0,0.0,0.0,0.0,0.0,0.0,0.0,0.0,0.0,0.0,0.0,0.0,
0.299,3.25296116897683,3.2379350330029446,3.282443233578349,0.0,0.0,0.0,3.2577798118527075,0.0,0.0,0.0,0.0,0.0,0.0,0.0,0.0,0.0,0.0,0.0,0.0,0.0,0.0,
0.3189,3.253184369960626,3.2381549513363597,3.2826707679754583,0.0,0.0,0.0,3.2580033630908147,0.0,0.0,0.0,0.0,0.0,0.0,0.0,0.0,0.0,0.0,0.0,0.0,0.0,0.0,
0.3389,3.253423245508873,3.2383903130766987,3.2829142816043615,0.0,0.0,0.0,3.2582426133966442,0.0,0.0,0.0,0.0,0.0,0.0,0.0,0.0,0.0,0.0,0.0,0.0,0.0,0.0,
0.3588,3.2536754195241464,3.2386387769602956,3.283171352297929,0.0,0.0,0.0,3.2584951829274567,0.0,0.0,0.0,0.0,0.0,0.0,0.0,0.0,0.0,0.0,0.0,0.0,0.0,0.0,
0.3787,3.2539420634643146,3.2389014970897736,3.2834431743277706,0.0,0.0,0.0,3.2587622449606197,0.0,0.0,0.0,0.0,0.0,0.0,0.0,0.0,0.0,0.0,0.0,0.0,0.0,0.0,
0.3987,3.2542246407911146,3.239179915252056,3.2837312396522,0.0,0.0,0.0,3.2590452652317903,0.0,0.0,0.0,0.0,0.0,0.0,0.0,0.0,0.0,0.0,0.0,0.0,0.0,0.0,
0.4186,3.254520340732722,3.239471261905985,3.2840326829884576,0.0,0.0,0.0,3.2593414285423883,0.0,0.0,0.0,0.0,0.0,0.0,0.0,0.0,0.0,0.0,0.0,0.0,0.0,0.0,
0.4385,3.2548305554932195,3.239776908619273,3.284348923659131,0.0,0.0,0.0,3.259652129257208,0.0,0.0,0.0,0.0,0.0,0.0,0.0,0.0,0.0,0.0,0.0,0.0,0.0,0.0,
0.4585,3.2551569701911105,3.240098515532691,3.2846816796067024,0.0,0.0,0.0,3.259979055110168,0.0,0.0,0.0,0.0,0.0,0.0,0.0,0.0,0.0,0.0,0.0,0.0,0.0,0.0,
0.4784,3.2554963380454813,3.2404328835246505,3.285027641065226,0.0,0.0,0.0,3.2603189542117854,0.0,0.0,0.0,0.0,0.0,0.0,0.0,0.0,0.0,0.0,0.0,0.0,0.0,0.0,
0.4984,3.25585208807053,3.240783390918762,3.2853903037664516,0.0,0.0,0.0,3.2606752609185814,0.0,0.0,0.0,0.0,0.0,0.0,0.0,0.0,0.0,0.0,0.0,0.0,0.0,0.0,
0.5183,3.256220681723248,3.2411465511410276,3.285766060507482,0.0,0.0,0.0,3.2610444311239193,0.0,0.0,0.0,0.0,0.0,0.0,0.0,0.0,0.0,0.0,0.0,0.0,0.0,0.0,
0.5382,3.256603880812954,3.2415240998559445,3.2861567074323137,0.0,0.0,0.0,3.261428229367071,0.0,0.0,0.0,0.0,0.0,0.0,0.0,0.0,0.0,0.0,0.0,0.0,0.0,0.0,
0.5582,3.257003741901553,3.241918063094635,3.2865643411883587,0.0,0.0,0.0,3.2618287153948486,0.0,0.0,0.0,0.0,0.0,0.0,0.0,0.0,0.0,0.0,0.0,0.0,0.0,0.0,
0.5781,3.257416287742939,3.2423245220733685,3.286984907329554,0.0,0.0,0.0,3.262241905715287,0.0,0.0,0.0,0.0,0.0,0.0,0.0,0.0,0.0,0.0,0.0,0.0,0.0,0.0,
0.598,3.2578435029583717,3.2427454319371316,3.2874204291679887,0.0,0.0,0.0,3.262669788021164,0.0,0.0,0.0,0.0,0.0,0.0,0.0,0.0,0.0,0.0,0.0,0.0,0.0,0.0,
0.618,3.2582876682187867,3.2431830394631818,3.287873231848157,0.0,0.0,0.0,3.263114646510042,0.0,0.0,0.0,0.0,0.0,0.0,0.0,0.0,0.0,0.0,0.0,0.0,0.0,0.0,
0.6379,3.258744365674372,3.243632991803011,3.288338811733574,0.0,0.0,0.0,3.2635720564036528,0.0,0.0,0.0,0.0,0.0,0.0,0.0,0.0,0.0,0.0,0.0,0.0,0.0,0.0,
0.6578,3.2592158037372685,3.2440974645370755,3.2888194203075907,0.0,0.0,0.0,3.264044229527311,0.0,0.0,0.0,0.0,0.0,0.0,0.0,0.0,0.0,0.0,0.0,0.0,0.0,0.0,
0.6778,3.2597044883142745,3.244578926288102,3.2893176123668493,0.0,0.0,0.0,3.2645336756564087,0.0,0.0,0.0,0.0,0.0,0.0,0.0,0.0,0.0,0.0,0.0,0.0,0.0,0.0,
0.6977,3.2602055588345857,3.245072588076364,3.2898284329149488,0.0,0.0,0.0,3.265035526608633,0.0,0.0,0.0,0.0,0.0,0.0,0.0,0.0,0.0,0.0,0.0,0.0,0.0,0.0,
0.7176,3.2607214485936744,3.245580846983533,3.290354362726255,0.0,0.0,0.0,3.2655522194344875,0.0,0.0,0.0,0.0,0.0,0.0,0.0,0.0,0.0,0.0,0.0,0.0,0.0,0.0,
0.7376,3.2612548899769047,3.2461063946899067,3.290898187523029,0.0,0.0,0.0,3.266086490729947,0.0,0.0,0.0,0.0,0.0,0.0,0.0,0.0,0.0,0.0,0.0,0.0,0.0,0.0,
0.7575,3.261800577355433,3.2466440038038566,3.291454498554524,0.0,0.0,0.0,3.2666330265712715,0.0,0.0,0.0,0.0,0.0,0.0,0.0,0.0,0.0,0.0,0.0,0.0,0.0,0.0,
0.7774,3.2623611701157427,3.247196294086263,3.292026007123795,0.0,0.0,0.0,3.2671944904419337,0.0,0.0,0.0,0.0,0.0,0.0,0.0,0.0,0.0,0.0,0.0,0.0,0.0,0.0,
0.7974,3.2629396284819667,3.2477661816017473,3.292615731272881,0.0,0.0,0.0,3.2677738471188653,0.0,0.0,0.0,0.0,0.0,0.0,0.0,0.0,0.0,0.0,0.0,0.0,0.0,0.0,
0.8173,3.2635301992071057,3.2483479980484775,3.293217805873478,0.0,0.0,0.0,3.268365334376354,0.0,0.0,0.0,0.0,0.0,0.0,0.0,0.0,0.0,0.0,0.0,0.0,0.0,0.0,
0.8372,3.2641357690934463,3.2489445871587086,3.2938351741151264,0.0,0.0,0.0,3.2689718434557604,0.0,0.0,0.0,0.0,0.0,0.0,0.0,0.0,0.0,0.0,0.0,0.0,0.0,0.0,
0.8572,3.264759527683566,3.249559090824589,3.294471087876339,0.0,0.0,0.0,3.269596568794831,0.0,0.0,0.0,0.0,0.0,0.0,0.0,0.0,0.0,0.0,0.0,0.0,0.0,0.0,
0.8771,3.265395271325629,3.250185397114851,3.2951192227957344,0.0,0.0,0.0,3.270233297078738,0.0,0.0,0.0,0.0,0.0,0.0,0.0,0.0,0.0,0.0,0.0,0.0,0.0,0.0,
0.897,3.2660461156814296,3.250826575141193,3.2957827554291628,0.0,0.0,0.0,3.270885148750595,0.0,0.0,0.0,0.0,0.0,0.0,0.0,0.0,0.0,0.0,0.0,0.0,0.0,0.0,
0.917,3.2667154812135637,3.2514859941852534,3.29646517313317,0.0,0.0,0.0,3.271555549510662,0.0,0.0,0.0,0.0,0.0,0.0,0.0,0.0,0.0,0.0,0.0,0.0,0.0,0.0,
0.9369,3.26739671084798,3.252157095742134,3.2971596892214095,0.0,0.0,0.0,3.2722378319371743,0.0,0.0,0.0,0.0,0.0,0.0,0.0,0.0,0.0,0.0,0.0,0.0,0.0,0.0,
0.9568,3.268093150670889,3.2528431758291676,3.297869715220072,0.0,0.0,0.0,3.272935347240043,0.0,0.0,0.0,0.0,0.0,0.0,0.0,0.0,0.0,0.0,0.0,0.0,0.0,0.0,
0.9768,3.268808453790643,3.2535478328004612,3.2985989757327254,0.0,0.0,0.0,3.2736517541079433,0.0,0.0,0.0,0.0,0.0,0.0,0.0,0.0,0.0,0.0,0.0,0.0,0.0,0.0,
0.9967,3.2695355064586646,3.254264058404218,3.299340218415169,0.0,0.0,0.0,3.2743799277593504,0.0,0.0,0.0,0.0,0.0,0.0,0.0,0.0,0.0,0.0,0.0,0.0,0.0,0.0,
1.0166,3.270277886873985,3.254995377209986,3.300097091494732,0.0,0.0,0.0,3.2751234518595673,0.0,0.0,0.0,0.0,0.0,0.0,0.0,0.0,0.0,0.0,0.0,0.0,0.0,0.0,
1.0366,3.2710394826434452,3.2557456184509115,3.3008735587212037,0.0,0.0,0.0,3.27588621993852,0.0,0.0,0.0,0.0,0.0,0.0,0.0,0.0,0.0,0.0,0.0,0.0,0.0,0.0,
1.0565,3.2718127198517606,3.256507320721347,3.3016618985138138,0.0,0.0,0.0,3.276660646362307,0.0,0.0,0.0,0.0,0.0,0.0,0.0,0.0,0.0,0.0,0.0,0.0,0.0,0.0,
1.0764,3.272601410625452,3.2572842389125287,3.3024659976611437,0.0,0.0,0.0,3.277450549066375,0.0,0.0,0.0,0.0,0.0,0.0,0.0,0.0,0.0,0.0,0.0,0.0,0.0,0.0,
1.0964,3.273409679052178,3.2580804350695365,3.3032900610915052,0.0,0.0,0.0,3.2782600584044066,0.0,0.0,0.0,0.0,0.0,0.0,0.0,0.0,0.0,0.0,0.0,0.0,0.0,0.0,
1.1163,3.2742294873130464,3.2588879909873727,3.3041258941577545,0.0,0.0,0.0,3.2790811241527247,0.0,0.0,0.0,0.0,0.0,0.0,0.0,0.0,0.0,0.0,0.0,0.0,0.0,0.0,
1.1362,3.275064883405637,3.2597108937739896,3.304977624202212,0.0,0.0,0.0,3.279917800460613,0.0,0.0,0.0,0.0,0.0,0.0,0.0,0.0,0.0,0.0,0.0,0.0,0.0,0.0,
1.1562,3.275920230013581,3.2605534403486085,3.305849699500195,0.0,0.0,0.0,3.280774456620795,0.0,0.0,0.0,0.0,0.0,0.0,0.0,0.0,0.0,0.0,0.0,0.0,0.0,0.0,
1.1761,3.276787021427174,3.2614072518174857,3.306733448251693,0.0,0.0,0.0,3.2816425738321175,0.0,0.0,0.0,0.0,0.0,0.0,0.0,0.0,0.0,0.0,0.0,0.0,0.0,0.0,
1.196,3.277669543590493,3.2622765495288073,3.307633240480599,0.0,0.0,0.0,3.2825264445333,0.0,0.0,0.0,0.0,0.0,0.0,0.0,0.0,0.0,0.0,0.0,0.0,0.0,0.0,
1.216,3.278572400034566,3.263165867470658,3.308553770117436,0.0,0.0,0.0,3.2834306792075534,0.0,0.0,0.0,0.0,0.0,0.0,0.0,0.0,0.0,0.0,0.0,0.0,0.0,0.0,
1.2359,3.2794866129152545,3.2640663619214862,3.3094858838599346,0.0,0.0,0.0,3.2843462862322252,0.0,0.0,0.0,0.0,0.0,0.0,0.0,0.0,0.0,0.0,0.0,0.0,0.0,0.0,
1.2558,3.2804167083339437,3.264982490624934,3.3104341966801565,0.0,0.0,0.0,3.285277798546345,0.0,0.0,0.0,0.0,0.0,0.0,0.0,0.0,0.0,0.0,0.0,0.0,0.0,0.0,
1.2758,3.281367533060059,3.2659190269685916,3.3114036506154614,0.0,0.0,0.0,3.2862300702147045,0.0,0.0,0.0,0.0,0.0,0.0,0.0,0.0,0.0,0.0,0.0,0.0,0.0,0.0,
1.2957,3.2823296326089264,3.2668666580083396,3.3123846062425124,0.0,0.0,0.0,3.2871936322865927,0.0,0.0,0.0,0.0,0.0,0.0,0.0,0.0,0.0,0.0,0.0,0.0,0.0,0.0,
1.3156,3.283307775588661,3.267830080173396,3.3133819258904893,0.0,0.0,0.0,3.288173260550849,0.0,0.0,0.0,0.0,0.0,0.0,0.0,0.0,0.0,0.0,0.0,0.0,0.0,0.0,
1.3356,3.284307054541626,3.2688143087212507,3.314400802302527,0.0,0.0,0.0,3.289174055188468,0.0,0.0,0.0,0.0,0.0,0.0,0.0,0.0,0.0,0.0,0.0,0.0,0.0,0.0,
1.3555,3.2853175335670497,3.2698095568280072,3.315431105038917,0.0,0.0,0.0,3.290186065144658,0.0,0.0,0.0,0.0,0.0,0.0,0.0,0.0,0.0,0.0,0.0,0.0,0.0,0.0,
1.3754,3.2863442262717717,3.2708207620373244,3.3164779463412377,0.0,0.0,0.0,3.2912143115501116,0.0,0.0,0.0,0.0,0.0,0.0,0.0,0.0,0.0,0.0,0.0,0.0,0.0,0.0,
1.3954,3.2873924736532962,3.271853184090529,3.3175467724088503,0.0,0.0,0.0,3.2922641433842252,0.0,0.0,0.0,0.0,0.0,0.0,0.0,0.0,0.0,0.0,0.0,0.0,0.0,0.0,
1.4153,3.2884518533423557,3.2728965573573903,3.3186269566064595,0.0,0.0,0.0,3.2933251224354017,0.0,0.0,0.0,0.0,0.0,0.0,0.0,0.0,0.0,0.0,0.0,0.0,0.0,0.0,
1.4353,3.289533073979749,3.273961428055727,3.319729418225679,0.0,0.0,0.0,3.2944079734203853,0.0,0.0,0.0,0.0,0.0,0.0,0.0,0.0,0.0,0.0,0.0,0.0,0.0,0.0,
1.4552,3.2906253856621968,3.275037208207374,3.3208431965327097,0.0,0.0,0.0,3.2955019301340935,0.0,0.0,0.0,0.0,0.0,0.0,0.0,0.0,0.0,0.0,0.0,0.0,0.0,0.0,
1.4751,3.2917342164052266,3.276129243137403,3.3219738265213317,0.0,0.0,0.0,3.2966124286879874,0.0,0.0,0.0,0.0,0.0,0.0,0.0,0.0,0.0,0.0,0.0,0.0,0.0,0.0,
1.4951,3.2928653278158304,3.2772432064122206,3.323127183501267,0.0,0.0,0.0,3.297745239243106,0.0,0.0,0.0,0.0,0.0,0.0,0.0,0.0,0.0,0.0,0.0,0.0,0.0,0.0,
1.515,3.294007474462016,3.2783680224140257,3.3242918012545593,0.0,0.0,0.0,3.298889099376867,0.0,0.0,0.0,0.0,0.0,0.0,0.0,0.0,0.0,0.0,0.0,0.0,0.0,0.0,
1.5349,3.2951663367332267,3.2795092847690417,3.325473472250651,0.0,0.0,0.0,3.3000496979176397,0.0,0.0,0.0,0.0,0.0,0.0,0.0,0.0,0.0,0.0,0.0,0.0,0.0,0.0,
1.5549,3.2963479326020524,3.28067291923494,3.3266783333685144,0.0,0.0,0.0,3.3012330617351693,0.0,0.0,0.0,0.0,0.0,0.0,0.0,0.0,0.0,0.0,0.0,0.0,0.0,0.0,
1.5748,3.2975405152777513,3.281847356870933,3.3278944069283862,0.0,0.0,0.0,3.302427426359024,0.0,0.0,0.0,0.0,0.0,0.0,0.0,0.0,0.0,0.0,0.0,0.0,0.0,0.0,
1.5947,3.298750020574892,3.283038442577102,3.3291277460049713,0.0,0.0,0.0,3.3036387363856554,0.0,0.0,0.0,0.0,0.0,0.0,0.0,0.0,0.0,0.0,0.0,0.0,0.0,0.0,
1.6147,3.299982726095275,3.2842523574814075,3.3303847523940266,0.0,0.0,0.0,3.304873278656903,0.0,0.0,0.0,0.0,0.0,0.0,0.0,0.0,0.0,0.0,0.0,0.0,0.0,0.0,
1.6346,3.3012263775512967,3.2854770333372554,3.3316529306601237,0.0,0.0,0.0,3.306118780516225,0.0,0.0,0.0,0.0,0.0,0.0,0.0,0.0,0.0,0.0,0.0,0.0,0.0,0.0,
1.6545,3.302487169397752,3.2867185694504637,3.3329385977811086,0.0,0.0,0.0,3.307381445543108,0.0,0.0,0.0,0.0,0.0,0.0,0.0,0.0,0.0,0.0,0.0,0.0,0.0,0.0,
1.6745,3.303771642300163,3.287983405664308,3.3342484239926535,0.0,0.0,0.0,3.308667823985708,0.0,0.0,0.0,0.0,0.0,0.0,0.0,0.0,0.0,0.0,0.0,0.0,0.0,0.0,
1.6944,3.305067028017979,3.289258968134472,3.3355693894833762,0.0,0.0,0.0,3.309965128545276,0.0,0.0,0.0,0.0,0.0,0.0,0.0,0.0,0.0,0.0,0.0,0.0,0.0,0.0,
1.7143,3.306379783030821,3.290551613868961,3.3369080786061414,0.0,0.0,0.0,3.3112798251686413,0.0,0.0,0.0,0.0,0.0,0.0,0.0,0.0,0.0,0.0,0.0,0.0,0.0,0.0,
1.7343,3.307716714679217,3.2918680449431,3.338271433741391,0.0,0.0,0.0,3.3126187311212356,0.0,0.0,0.0,0.0,0.0,0.0,0.0,0.0,0.0,0.0,0.0,0.0,0.0,0.0,
1.7542,3.309064533985212,3.2931951753037656,3.339645903744201,0.0,0.0,0.0,3.313968537677726,0.0,0.0,0.0,0.0,0.0,0.0,0.0,0.0,0.0,0.0,0.0,0.0,0.0,0.0,
1.7741,3.310429963013025,3.2945396231277466,3.3410383439944042,0.0,0.0,0.0,3.3153359767117254,0.0,0.0,0.0,0.0,0.0,0.0,0.0,0.0,0.0,0.0,0.0,0.0,0.0,0.0,
1.7941,3.3118200795727084,3.2959083564170224,3.3424559729104133,0.0,0.0,0.0,3.316728136300048,0.0,0.0,0.0,0.0,0.0,0.0,0.0,0.0,0.0,0.0,0.0,0.0,0.0,0.0,
1.814,3.313221066824862,3.2972877699684777,3.3438847007072092,0.0,0.0,0.0,3.3181311791668495,0.0,0.0,0.0,0.0,0.0,0.0,0.0,0.0,0.0,0.0,0.0,0.0,0.0,0.0,
1.8339,3.3146399161596376,3.298684746770586,3.3453316576302075,0.0,0.0,0.0,3.319552106853477,0.0,0.0,0.0,0.0,0.0,0.0,0.0,0.0,0.0,0.0,0.0,0.0,0.0,0.0,
1.8539,3.3160839798410673,3.3001065246309516,3.346804342224212,0.0,0.0,0.0,3.320998282232077,0.0,0.0,0.0,0.0,0.0,0.0,0.0,0.0,0.0,0.0,0.0,0.0,0.0,0.0,
1.8738,3.3175389056927376,3.3015389719138315,3.3482881183964714,0.0,0.0,0.0,3.3224553320010135,0.0,0.0,0.0,0.0,0.0,0.0,0.0,0.0,0.0,0.0,0.0,0.0,0.0,0.0,
1.8937,3.3190119583602433,3.302989240244908,3.3497903952899724,0.0,0.0,0.0,3.3239305312983745,0.0,0.0,0.0,0.0,0.0,0.0,0.0,0.0,0.0,0.0,0.0,0.0,0.0,0.0,
1.9137,3.320510768743386,3.3044648413076434,3.351318955867194,0.0,0.0,0.0,3.325431521972741,0.0,0.0,0.0,0.0,0.0,0.0,0.0,0.0,0.0,0.0,0.0,0.0,0.0,0.0,
1.9336,3.322020441488831,3.305951109397423,3.3528586096857076,0.0,0.0,0.0,3.326943386857321,0.0,0.0,0.0,0.0,0.0,0.0,0.0,0.0,0.0,0.0,0.0,0.0,0.0,0.0,
1.9535,3.32354851862259,3.3074554687921163,3.3544170490189384,0.0,0.0,0.0,3.3284736788112146,0.0,0.0,0.0,0.0,0.0,0.0,0.0,0.0,0.0,0.0,0.0,0.0,0.0,0.0,
1.9735,3.32510291406685,3.3089857093200497,3.3560023457490424,0.0,0.0,0.0,3.330030323045314,0.0,0.0,0.0,0.0,0.0,0.0,0.0,0.0,0.0,0.0,0.0,0.0,0.0,0.0,
1.9934,3.326668181073845,3.3105266232047277,3.357598746653752,0.0,0.0,0.0,3.331597850310775,0.0,0.0,0.0,0.0,0.0,0.0,0.0,0.0,0.0,0.0,0.0,0.0,0.0,0.0,
2.0133,3.328252143377807,3.312085911588102,3.3592142315785183,0.0,0.0,0.0,3.333184095514809,0.0,0.0,0.0,0.0,0.0,0.0,0.0,0.0,0.0,0.0,0.0,0.0,0.0,0.0,
2.0333,3.329863002523213,3.3136716469189293,3.3608571660464532,0.0,0.0,0.0,3.334797271829532,0.0,0.0,0.0,0.0,0.0,0.0,0.0,0.0,0.0,0.0,0.0,0.0,0.0,0.0,
2.0532,3.3314847517582162,3.3152680709654527,3.362511225222236,0.0,0.0,0.0,3.3364213493153017,0.0,0.0,0.0,0.0,0.0,0.0,0.0,0.0,0.0,0.0,0.0,0.0,0.0,0.0,
2.0731,3.3331255010641874,3.3168831661500287,3.364184681182054,0.0,0.0,0.0,3.3380644494654237,0.0,0.0,0.0,0.0,0.0,0.0,0.0,0.0,0.0,0.0,0.0,0.0,0.0,0.0,
2.0931,3.334793744429644,3.3185252922326076,3.3658861980394614,0.0,0.0,0.0,3.3397350782339044,0.0,0.0,0.0,0.0,0.0,0.0,0.0,0.0,0.0,0.0,0.0,0.0,0.0,0.0,
2.113,3.336472906081786,3.3201781317475123,3.36759887009423,0.0,0.0,0.0,3.3414166359745097,0.0,0.0,0.0,0.0,0.0,0.0,0.0,0.0,0.0,0.0,0.0,0.0,0.0,0.0,
2.1329,3.3381713870077188,3.3218499530268257,3.3693312665378796,0.0,0.0,0.0,3.3431175355241414,0.0,0.0,0.0,0.0,0.0,0.0,0.0,0.0,0.0,0.0,0.0,0.0,0.0,0.0,
2.1529,3.339897978693081,3.323549408056398,3.371092355262069,0.0,0.0,0.0,3.344846580670516,0.0,0.0,0.0,0.0,0.0,0.0,0.0,0.0,0.0,0.0,0.0,0.0,0.0,0.0,
2.1728,3.3416355269036035,3.3252596109472723,3.372864640014074,0.0,0.0,0.0,3.34658659262165,0.0,0.0,0.0,0.0,0.0,0.0,0.0,0.0,0.0,0.0,0.0,0.0,0.0,0.0,
2.1927,3.343392728619646,3.3269891207922906,3.3746569922209244,0.0,0.0,0.0,3.348346280544287,0.0,0.0,0.0,0.0,0.0,0.0,0.0,0.0,0.0,0.0,0.0,0.0,0.0,0.0,
2.2127,3.3451786781183306,3.3287468869515084,3.3764786889883482,0.0,0.0,0.0,3.3501347513527286,0.0,0.0,0.0,0.0,0.0,0.0,0.0,0.0,0.0,0.0,0.0,0.0,0.0,0.0,
2.2326,3.3469756328226596,3.3305154454959447,3.37831163337015,0.0,0.0,0.0,3.3519342372295853,0.0,0.0,0.0,0.0,0.0,0.0,0.0,0.0,0.0,0.0,0.0,0.0,0.0,0.0,
2.2525,3.3487925909324616,3.332303651361421,3.3801650043948333,0.0,0.0,0.0,3.3537537488962386,0.0,0.0,0.0,0.0,0.0,0.0,0.0,0.0,0.0,0.0,0.0,0.0,0.0,0.0,
2.2725,3.350638955062707,3.334120756674336,3.382048394077445,0.0,0.0,0.0,3.3556027019381625,0.0,0.0,0.0,0.0,0.0,0.0,0.0,0.0,0.0,0.0,0.0,0.0,0.0,0.0,
2.2924,3.3524963839530617,3.335948709403895,3.38394309416494,0.0,0.0,0.0,3.3574627291739656,0.0,0.0,0.0,0.0,0.0,0.0,0.0,0.0,0.0,0.0,0.0,0.0,0.0,0.0,
2.3124,3.35438367032044,3.3378060025827168,3.385868275299245,0.0,0.0,0.0,3.3593526494008006,0.0,0.0,0.0,0.0,0.0,0.0,0.0,0.0,0.0,0.0,0.0,0.0,0.0,0.0,
2.3323,3.3562820674611373,3.339674185959328,3.3878048152027276,0.0,0.0,0.0,3.3612536895410643,0.0,0.0,0.0,0.0,0.0,0.0,0.0,0.0,0.0,0.0,0.0,0.0,0.0,0.0,
2.3522,3.3582010880782724,3.341562619666572,3.3897624183778565,0.0,0.0,0.0,3.3631753753742335,0.0,0.0,0.0,0.0,0.0,0.0,0.0,0.0,0.0,0.0,0.0,0.0,0.0,0.0,
2.3722,3.360150661908039,3.3434810732967915,3.391751215269569,0.0,0.0,0.0,3.365127650158133,0.0,0.0,0.0,0.0,0.0,0.0,0.0,0.0,0.0,0.0,0.0,0.0,0.0,0.0,
2.3921,3.362111425248537,3.3454104906803086,3.3937514534925595,0.0,0.0,0.0,3.3670911231404683,0.0,0.0,0.0,0.0,0.0,0.0,0.0,0.0,0.0,0.0,0.0,0.0,0.0,0.0,
2.412,3.364093207211939,3.3473605425577064,3.395773160749633,0.0,0.0,0.0,3.3690756368397596,0.0,0.0,0.0,0.0,0.0,0.0,0.0,0.0,0.0,0.0,0.0,0.0,0.0,0.0,
2.432,3.3661062619866744,3.349341316947504,3.3978267989460136,0.0,0.0,0.0,3.3710914592933974,0.0,0.0,0.0,0.0,0.0,0.0,0.0,0.0,0.0,0.0,0.0,0.0,0.0,0.0,
2.4519,3.3681305972081264,3.351333140417688,3.3998919736127857,0.0,0.0,0.0,3.3731185704128666,0.0,0.0,0.0,0.0,0.0,0.0,0.0,0.0,0.0,0.0,0.0,0.0,0.0,0.0,
2.4718,3.370176364594813,3.3533460003380573,3.401979042018848,0.0,0.0,0.0,3.375167135650573,0.0,0.0,0.0,0.0,0.0,0.0,0.0,0.0,0.0,0.0,0.0,0.0,0.0,0.0,
2.4918,3.372254149361054,3.355390309538692,3.404098804283064,0.0,0.0,0.0,3.3772477543942703,0.0,0.0,0.0,0.0,0.0,0.0,0.0,0.0,0.0,0.0,0.0,0.0,0.0,0.0,
2.5117,3.374343318277457,3.357445765461033,3.4062302113236567,0.0,0.0,0.0,3.3793397650207155,0.0,0.0,0.0,0.0,0.0,0.0,0.0,0.0,0.0,0.0,0.0,0.0,0.0,0.0,
2.5316,3.376454352160456,3.359522678409976,3.408383956644546,0.0,0.0,0.0,3.3814536624049922,0.0,0.0,0.0,0.0,0.0,0.0,0.0,0.0,0.0,0.0,0.0,0.0,0.0,0.0,
2.5516,3.3785981741361595,3.361631792713908,3.4105711856532306,0.0,0.0,0.0,3.383600384167766,0.0,0.0,0.0,0.0,0.0,0.0,0.0,0.0,0.0,0.0,0.0,0.0,0.0,0.0,
2.5715,3.380753497346109,3.3637521642797688,3.4127701815469473,0.0,0.0,0.0,3.385758614390942,0.0,0.0,0.0,0.0,0.0,0.0,0.0,0.0,0.0,0.0,0.0,0.0,0.0,0.0,
2.5914,3.382931138505021,3.3658944329514036,3.414991981051639,0.0,0.0,0.0,3.3879391841693547,0.0,0.0,0.0,0.0,0.0,0.0,0.0,0.0,0.0,0.0,0.0,0.0,0.0,0.0,
