energies(eV),real_xx,real_yy,real_zz,real_xy,real_yz,real_xz,real_ave,imag_xx,imag_yy,imag_zz,imag_xy,imag_yz,imag_xz,imag_ave,absorption_xx,absorption_yy,absorption_zz,absorption_xy,absorption_yz,absorption_xz,absorption_ave,band_gap
0.0,2.4120227197717012,2.4120227197717012,2.4120227197717012,0.0,0.0,0.0,2.4120227197717012,0.0,0.0,0.0,0.0,0.0,0.0,0.0,0.0,0.0,0.0,0.0,0.0,0.0,0.0,5.7245
0.014,2.4120254353610875,2.4120254353610875,2.4120254353610875,0.0,0.0,0.0,2.4120254353610875,0.0,0.0,0.0,0.0,0.0,0.0,0.0,0.0,0.0,0.0,0.0,0.0,0.0,0.0,
0.028,2.4120335822323846,2.4120335822323846,2.4120335822323846,0.0,0.0,0.0,2.4120335822323846,0.0,0.0,0.0,0.0,0.0,0.0,0.0,0.0,0.0,0.0,0.0,0.0,0.0,0.0,
0.042,2.4120471606950966,2.4120471606950966,2.4120471606950966,0.0,0.0,0.0,2.4120471606950966,0.0,0.0,0.0,0.0,0.0,0.0,0.0,0.0,0.0,0.0,0.0,0.0,0.0,0.0,
0.056,2.4120661712650406,2.4120661712650406,2.4120661712650406,0.0,0.0,0.0,2.4120661712650406,0.0,0.0,0.0,0.0,0.0,0.0,0.0,0.0,0.0,0.0,0.0,0.0,0.0,0.0,
0.07,2.412090614664508,2.412090614664508,2.412090614664508,0.0,0.0,0.0,2.412090614664508,0.0,0.0,0.0,0.0,0.0,0.0,0.0,0.0,0.0,0.0,0.0,0.0,0.0,0.0,
0.084,2.4121204918222716,2.4121204918222716,2.4121204918222716,0.0,0.0,0.0,2.4121204918222716,0.0,0.0,0.0,0.0,0.0,0.0,0.0,0.0,0.0,0.0,0.0,0.0,0.0,0.0,
0.098,2.412155803873725,2.412155803873725,2.412155803873725,0.0,0.0,0.0,2.412155803873725,0.0,0.0,0.0,0.0,0.0,0.0,0.0,0.0,0.0,0.0,0.0,0.0,0.0,0.0,
0.112,2.4121965521610087,2.4121965521610087,2.4121965521610087,0.0,0.0,0.0,2.4121965521610087,0.0,0.0,0.0,0.0,0.0,0.0,0.0,0.0,0.0,0.0,0.0,0.0,0.0,0.0,
0.126,2.412242738233206,2.412242738233206,2.412242738233206,0.0,0.0,0.0,2.412242738233206,0.0,0.0,0.0,0.0,0.0,0.0,0.0,0.0,0.0,0.0,0.0,0.0,0.0,0.0,
0.14,2.4122943638464545,2.4122943638464545,2.4122943638464545,0.0,0.0,0.0,2.4122943638464545,0.0,0.0,0.0,0.0,0.0,0.0,0.0,0.0,0.0,0.0,0.0,0.0,0.0,0.0,
0.154,2.412351430964216,2.412351430964216,2.412351430964216,0.0,0.0,0.0,2.412351430964216,0.0,0.0,0.0,0.0,0.0,0.0,0.0,0.0,0.0,0.0,0.0,0.0,0.0,0.0,
0.168,2.412413941757485,2.412413941757485,2.412413941757485,0.0,0.0,0.0,2.412413941757485,0.0,0.0,0.0,0.0,0.0,0.0,0.0,0.0,0.0,0.0,0.0,0.0,0.0,0.0,
0.182,2.4124818986050767,2.4124818986050767,2.4124818986050767,0.0,0.0,0.0,2.4124818986050767,0.0,0.0,0.0,0.0,0.0,0.0,0.0,0.0,0.0,0.0,0.0,0.0,0.0,0.0,
0.196,2.412555304093842,2.412555304093842,2.412555304093842,0.0,0.0,0.0,2.412555304093842,0.0,0.0,0.0,0.0,0.0,0.0,0.0,0.0,0.0,0.0,0.0,0.0,0.0,0.0,
0.21,2.4126341610190316,2.4126341610190316,2.4126341610190316,0.0,0.0,0.0,2.4126341610190316,0.0,0.0,0.0,0.0,0.0,0.0,0.0,0.0,0.0,0.0,0.0,0.0,0.0,0.0,
0.224,2.4127184723846007,2.4127184723846007,2.4127184723846007,0.0,0.0,0.0,2.4127184723846007,0.0,0.0,0.0,0.0,0.0,0.0,0.0,0.0,0.0,0.0,0.0,0.0,0.0,0.0,
0.238,2.4128082414035985,2.4128082414035985,2.4128082414035985,0.0,0.0,0.0,2.4128082414035985,0.0,0.0,0.0,0.0,0.0,0.0,0.0,0.0,0.0,0.0,0.0,0.0,0.0,0.0,
0.252,2.4129034714985194,2.4129034714985194,2.4129034714985194,0.0,0.0,0.0,2.4129034714985194,0.0,0.0,0.0,0.0,0.0,0.0,0.0,0.0,0.0,0.0,0.0,0.0,0.0,0.0,
0.266,2.413004166301705,2.413004166301705,2.413004166301705,0.0,0.0,0.0,2.413004166301705,0.0,0.0,0.0,0.0,0.0,0.0,0.0,0.0,0.0,0.0,0.0,0.0,0.0,0.0,
0.28,2.413110329655814,2.413110329655814,2.413110329655814,0.0,0.0,0.0,2.413110329655814,0.0,0.0,0.0,0.0,0.0,0.0,0.0,0.0,0.0,0.0,0.0,0.0,0.0,0.0,
0.294,2.413221965614239,2.413221965614239,2.413221965614239,0.0,0.0,0.0,2.413221965614239,0.0,0.0,0.0,0.0,0.0,0.0,0.0,0.0,0.0,0.0,0.0,0.0,0.0,0.0,
0.308,2.4133390784416098,2.4133390784416098,2.4133390784416098,0.0,0.0,0.0,2.4133390784416098,0.0,0.0,0.0,0.0,0.0,0.0,0.0,0.0,0.0,0.0,0.0,0.0,0.0,0.0,
0.322,2.413461672614312,2.413461672614312,2.413461672614312,0.0,0.0,0.0,2.413461672614312,0.0,0.0,0.0,0.0,0.0,0.0,0.0,0.0,0.0,0.0,0.0,0.0,0.0,0.0,
0.336,2.413589752820986,2.413589752820986,2.413589752820986,0.0,0.0,0.0,2.413589752820986,0.0,0.0,0.0,0.0,0.0,0.0,0.0,0.0,0.0,0.0,0.0,0.0,0.0,0.0,
0.35,2.4137233239631533,2.4137233239631533,2.4137233239631533,0.0,0.0,0.0,2.4137233239631533,0.0,0.0,0.0,0.0,0.0,0.0,0.0,0.0,0.0,0.0,0.0,0.0,0.0,0.0,
0.364,2.4138623911557193,2.4138623911557193,2.4138623911557193,0.0,0.0,0.0,2.4138623911557193,0.0,0.0,0.0,0.0,0.0,0.0,0.0,0.0,0.0,0.0,0.0,0.0,0.0,0.0,
0.378,2.414006959727665,2.414006959727665,2.414006959727665,0.0,0.0,0.0,2.414006959727665,0.0,0.0,0.0,0.0,0.0,0.0,0.0,0.0,0.0,0.0,0.0,0.0,0.0,0.0,
0.392,2.4141570352226154,2.4141570352226154,2.4141570352226154,0.0,0.0,0.0,2.4141570352226154,0.0,0.0,0.0,0.0,0.0,0.0,0.0,0.0,0.0,0.0,0.0,0.0,0.0,0.0,
0.406,2.414312623399554,2.414312623399554,2.414312623399554,0.0,0.0,0.0,2.414312623399554,0.0,0.0,0.0,0.0,0.0,0.0,0.0,0.0,0.0,0.0,0.0,0.0,0.0,0.0,
0.42,2.414473730233516,2.414473730233516,2.414473730233516,0.0,0.0,0.0,2.414473730233516,0.0,0.0,0.0,0.0,0.0,0.0,0.0,0.0,0.0,0.0,0.0,0.0,0.0,0.0,
0.434,2.4146403619162746,2.4146403619162746,2.4146403619162746,0.0,0.0,0.0,2.4146403619162746,0.0,0.0,0.0,0.0,0.0,0.0,0.0,0.0,0.0,0.0,0.0,0.0,0.0,0.0,
0.448,2.414812524857119,2.414812524857119,2.414812524857119,0.0,0.0,0.0,2.414812524857119,0.0,0.0,0.0,0.0,0.0,0.0,0.0,0.0,0.0,0.0,0.0,0.0,0.0,0.0,
0.462,2.4149902256836024,2.4149902256836024,2.4149902256836024,0.0,0.0,0.0,2.4149902256836024,0.0,0.0,0.0,0.0,0.0,0.0,0.0,0.0,0.0,0.0,0.0,0.0,0.0,0.0,
0.476,2.4151734712423636,2.4151734712423636,2.4151734712423636,0.0,0.0,0.0,2.4151734712423636,0.0,0.0,0.0,0.0,0.0,0.0,0.0,0.0,0.0,0.0,0.0,0.0,0.0,0.0,
0.49,2.4153622685999316,2.4153622685999316,2.4153622685999316,0.0,0.0,0.0,2.4153622685999316,0.0,0.0,0.0,0.0,0.0,0.0,0.0,0.0,0.0,0.0,0.0,0.0,0.0,0.0,
0.504,2.4155566250436125,2.4155566250436125,2.4155566250436125,0.0,0.0,0.0,2.4155566250436125,0.0,0.0,0.0,0.0,0.0,0.0,0.0,0.0,0.0,0.0,0.0,0.0,0.0,0.0,
0.518,2.4157565480823635,2.4157565480823635,2.4157565480823635,0.0,0.0,0.0,2.4157565480823635,0.0,0.0,0.0,0.0,0.0,0.0,0.0,0.0,0.0,0.0,0.0,0.0,0.0,0.0,
0.532,2.41596204544768,2.41596204544768,2.41596204544768,0.0,0.0,0.0,2.41596204544768,0.0,0.0,0.0,0.0,0.0,0.0,0.0,0.0,0.0,0.0,0.0,0.0,0.0,0.0,
0.5459,2.416171597569355,2.416171597569355,2.416171597569355,0.0,0.0,0.0,2.416171597569355,0.0,0.0,0.0,0.0,0.0,0.0,0.0,0.0,0.0,0.0,0.0,0.0,0.0,0.0,
0.5599,2.4163882277158977,2.4163882277158977,2.4163882277158977,0.0,0.0,0.0,2.4163882277158977,0.0,0.0,0.0,0.0,0.0,0.0,0.0,0.0,0.0,0.0,0.0,0.0,0.0,0.0,
0.5739,2.4166104566675948,2.4166104566675948,2.4166104566675948,0.0,0.0,0.0,2.4166104566675948,0.0,0.0,0.0,0.0,0.0,0.0,0.0,0.0,0.0,0.0,0.0,0.0,0.0,0.0,
0.5879,2.4168382930542656,2.4168382930542656,2.4168382930542656,0.0,0.0,0.0,2.4168382930542656,0.0,0.0,0.0,0.0,0.0,0.0,0.0,0.0,0.0,0.0,0.0,0.0,0.0,0.0,
0.6019,2.4170717457332778,2.4170717457332778,2.4170717457332778,0.0,0.0,0.0,2.4170717457332778,0.0,0.0,0.0,0.0,0.0,0.0,0.0,0.0,0.0,0.0,0.0,0.0,0.0,0.0,
0.6159,2.4173108237906233,2.4173108237906233,2.4173108237906233,0.0,0.0,0.0,2.4173108237906233,0.0,0.0,0.0,0.0,0.0,0.0,0.0,0.0,0.0,0.0,0.0,0.0,0.0,0.0,
0.6299,2.4175555365420633,2.4175555365420633,2.4175555365420633,0.0,0.0,0.0,2.4175555365420633,0.0,0.0,0.0,0.0,0.0,0.0,0.0,0.0,0.0,0.0,0.0,0.0,0.0,0.0,
0.6439,2.4178058935342372,2.4178058935342372,2.4178058935342372,0.0,0.0,0.0,2.4178058935342372,0.0,0.0,0.0,0.0,0.0,0.0,0.0,0.0,0.0,0.0,0.0,0.0,0.0,0.0,
0.6579,2.4180619045458602,2.4180619045458602,2.4180619045458602,0.0,0.0,0.0,2.4180619045458602,0.0,0.0,0.0,0.0,0.0,0.0,0.0,0.0,0.0,0.0,0.0,0.0,0.0,0.0,
0.6719,2.4183235795889666,2.4183235795889666,2.4183235795889666,0.0,0.0,0.0,2.4183235795889666,0.0,0.0,0.0,0.0,0.0,0.0,0.0,0.0,0.0,0.0,0.0,0.0,0.0,0.0,
0.6859,2.418590928910071,2.418590928910071,2.418590928910071,0.0,0.0,0.0,2.418590928910071,0.0,0.0,0.0,0.0,0.0,0.0,0.0,0.0,0.0,0.0,0.0,0.0,0.0,0.0,
0.6999,2.4188639629915176,2.4188639629915176,2.4188639629915176,0.0,0.0,0.0,2.4188639629915176,0.0,0.0,0.0,0.0,0.0,0.0,0.0,0.0,0.0,0.0,0.0,0.0,0.0,0.0,
0.7139,2.4191426925527426,2.4191426925527426,2.4191426925527426,0.0,0.0,0.0,2.4191426925527426,0.0,0.0,0.0,0.0,0.0,0.0,0.0,0.0,0.0,0.0,0.0,0.0,0.0,0.0,
0.7279,2.4194271285516216,2.4194271285516216,2.4194271285516216,0.0,0.0,0.0,2.4194271285516216,0.0,0.0,0.0,0.0,0.0,0.0,0.0,0.0,0.0,0.0,0.0,0.0,0.0,0.0,
0.7419,2.419717282185835,2.419717282185835,2.419717282185835,0.0,0.0,0.0,2.419717282185835,0.0,0.0,0.0,0.0,0.0,0.0,0.0,0.0,0.0,0.0,0.0,0.0,0.0,0.0,
0.7559,2.4200131648942818,2.4200131648942818,2.4200131648942818,0.0,0.0,0.0,2.4200131648942818,0.0,0.0,0.0,0.0,0.0,0.0,0.0,0.0,0.0,0.0,0.0,0.0,0.0,0.0,
0.7699,2.4203147883584997,2.4203147883584997,2.4203147883584997,0.0,0.0,0.0,2.4203147883584997,0.0,0.0,0.0,0.0,0.0,0.0,0.0,0.0,0.0,0.0,0.0,0.0,0.0,0.0,
0.7839,2.420622164504138,2.420622164504138,2.420622164504138,0.0,0.0,0.0,2.420622164504138,0.0,0.0,0.0,0.0,0.0,0.0,0.0,0.0,0.0,0.0,0.0,0.0,0.0,0.0,
0.7979,2.42093530550248,2.42093530550248,2.42093530550248,0.0,0.0,0.0,2.42093530550248,0.0,0.0,0.0,0.0,0.0,0.0,0.0,0.0,0.0,0.0,0.0,0.0,0.0,0.0,
0.8119,2.4212542237719266,2.4212542237719266,2.4212542237719266,0.0,0.0,0.0,2.4212542237719266,0.0,0.0,0.0,0.0,0.0,0.0,0.0,0.0,0.0,0.0,0.0,0.0,0.0,0.0,
0.8259,2.4215789319796586,2.4215789319796586,2.4215789319796586,0.0,0.0,0.0,2.4215789319796586,0.0,0.0,0.0,0.0,0.0,0.0,0.0,0.0,0.0,0.0,0.0,0.0,0.0,0.0,
0.8399,2.4219094430431514,2.4219094430431514,2.4219094430431514,0.0,0.0,0.0,2.4219094430431514,0.0,0.0,0.0,0.0,0.0,0.0,0.0,0.0,0.0,0.0,0.0,0.0,0.0,0.0,
0.8539,2.4222457701318953,2.4222457701318953,2.4222457701318953,0.0,0.0,0.0,2.4222457701318953,0.0,0.0,0.0,0.0,0.0,0.0,0.0,0.0,0.0,0.0,0.0,0.0,0.0,0.0,
0.8679,2.422587926668996,2.422587926668996,2.422587926668996,0.0,0.0,0.0,2.422587926668996,0.0,0.0,0.0,0.0,0.0,0.0,0.0,0.0,0.0,0.0,0.0,0.0,0.0,0.0,
0.8819,2.422935926332986,2.422935926332986,2.422935926332986,0.0,0.0,0.0,2.422935926332986,0.0,0.0,0.0,0.0,0.0,0.0,0.0,0.0,0.0,0.0,0.0,0.0,0.0,0.0,
0.8959,2.4232897830595004,2.4232897830595004,2.4232897830595004,0.0,0.0,0.0,2.4232897830595004,0.0,0.0,0.0,0.0,0.0,0.0,0.0,0.0,0.0,0.0,0.0,0.0,0.0,0.0,
0.9099,2.4236495110431155,2.4236495110431155,2.4236495110431155,0.0,0.0,0.0,2.4236495110431155,0.0,0.0,0.0,0.0,0.0,0.0,0.0,0.0,0.0,0.0,0.0,0.0,0.0,0.0,
0.9239,2.424015124739147,2.424015124739147,2.424015124739147,0.0,0.0,0.0,2.424015124739147,0.0,0.0,0.0,0.0,0.0,0.0,0.0,0.0,0.0,0.0,0.0,0.0,0.0,0.0,
0.9379,2.424386638865544,2.424386638865544,2.424386638865544,0.0,0.0,0.0,2.424386638865544,0.0,0.0,0.0,0.0,0.0,0.0,0.0,0.0,0.0,0.0,0.0,0.0,0.0,0.0,
0.9519,2.424764068404772,2.424764068404772,2.424764068404772,0.0,0.0,0.0,2.424764068404772,0.0,0.0,0.0,0.0,0.0,0.0,0.0,0.0,0.0,0.0,0.0,0.0,0.0,0.0,
0.9659,2.425147428605816,2.425147428605816,2.425147428605816,0.0,0.0,0.0,2.425147428605816,0.0,0.0,0.0,0.0,0.0,0.0,0.0,0.0,0.0,0.0,0.0,0.0,0.0,0.0,
0.9799,2.42553673498609,2.42553673498609,2.42553673498609,0.0,0.0,0.0,2.42553673498609,0.0,0.0,0.0,0.0,0.0,0.0,0.0,0.0,0.0,0.0,0.0,0.0,0.0,0.0,
0.9939,2.4259320033335126,2.4259320033335126,2.4259320033335126,0.0,0.0,0.0,2.4259320033335126,0.0,0.0,0.0,0.0,0.0,0.0,0.0,0.0,0.0,0.0,0.0,0.0,0.0,0.0,
1.0079,2.4263332497085925,2.4263332497085925,2.4263332497085925,0.0,0.0,0.0,2.4263332497085925,0.0,0.0,0.0,0.0,0.0,0.0,0.0,0.0,0.0,0.0,0.0,0.0,0.0,0.0,
1.0219,2.426740490446482,2.426740490446482,2.426740490446482,0.0,0.0,0.0,2.426740490446482,0.0,0.0,0.0,0.0,0.0,0.0,0.0,0.0,0.0,0.0,0.0,0.0,0.0,0.0,
1.0359,2.4271537421592075,2.4271537421592075,2.4271537421592075,0.0,0.0,0.0,2.4271537421592075,0.0,0.0,0.0,0.0,0.0,0.0,0.0,0.0,0.0,0.0,0.0,0.0,0.0,0.0,
1.0499,2.4275730217378015,2.4275730217378015,2.4275730217378015,0.0,0.0,0.0,2.4275730217378015,0.0,0.0,0.0,0.0,0.0,0.0,0.0,0.0,0.0,0.0,0.0,0.0,0.0,0.0,
1.0639,2.4279983463545847,2.4279983463545847,2.4279983463545847,0.0,0.0,0.0,2.4279983463545847,0.0,0.0,0.0,0.0,0.0,0.0,0.0,0.0,0.0,0.0,0.0,0.0,0.0,0.0,
1.0779,2.428429733465454,2.428429733465454,2.428429733465454,0.0,0.0,0.0,2.428429733465454,0.0,0.0,0.0,0.0,0.0,0.0,0.0,0.0,0.0,0.0,0.0,0.0,0.0,0.0,
1.0919,2.4288672008121646,2.4288672008121646,2.4288672008121646,0.0,0.0,0.0,2.4288672008121646,0.0,0.0,0.0,0.0,0.0,0.0,0.0,0.0,0.0,0.0,0.0,0.0,0.0,0.0,
1.1059,2.429310766424794,2.429310766424794,2.429310766424794,0.0,0.0,0.0,2.429310766424794,0.0,0.0,0.0,0.0,0.0,0.0,0.0,0.0,0.0,0.0,0.0,0.0,0.0,0.0,
1.1199,2.4297604486240685,2.4297604486240685,2.4297604486240685,0.0,0.0,0.0,2.4297604486240685,0.0,0.0,0.0,0.0,0.0,0.0,0.0,0.0,0.0,0.0,0.0,0.0,0.0,0.0,
1.1339,2.4302162660239066,2.4302162660239066,2.4302162660239066,0.0,0.0,0.0,2.4302162660239066,0.0,0.0,0.0,0.0,0.0,0.0,0.0,0.0,0.0,0.0,0.0,0.0,0.0,0.0,
1.1479,2.430678237533942,2.430678237533942,2.430678237533942,0.0,0.0,0.0,2.430678237533942,0.0,0.0,0.0,0.0,0.0,0.0,0.0,0.0,0.0,0.0,0.0,0.0,0.0,0.0,
1.1619,2.4311463823620105,2.4311463823620105,2.4311463823620105,0.0,0.0,0.0,2.4311463823620105,0.0,0.0,0.0,0.0,0.0,0.0,0.0,0.0,0.0,0.0,0.0,0.0,0.0,0.0,
1.1759,2.4316207200168627,2.4316207200168627,2.4316207200168627,0.0,0.0,0.0,2.4316207200168627,0.0,0.0,0.0,0.0,0.0,0.0,0.0,0.0,0.0,0.0,0.0,0.0,0.0,0.0,
1.1899,2.432101270310786,2.432101270310786,2.432101270310786,0.0,0.0,0.0,2.432101270310786,0.0,0.0,0.0,0.0,0.0,0.0,0.0,0.0,0.0,0.0,0.0,0.0,0.0,0.0,
1.2039,2.4325880533623296,2.4325880533623296,2.4325880533623296,0.0,0.0,0.0,2.4325880533623296,0.0,0.0,0.0,0.0,0.0,0.0,0.0,0.0,0.0,0.0,0.0,0.0,0.0,0.0,
1.2179,2.433081089599062,2.433081089599062,2.433081089599062,0.0,0.0,0.0,2.433081089599062,0.0,0.0,0.0,0.0,0.0,0.0,0.0,0.0,0.0,0.0,0.0,0.0,0.0,0.0,
1.2319,2.43358039976044,2.43358039976044,2.43358039976044,0.0,0.0,0.0,2.43358039976044,0.0,0.0,0.0,0.0,0.0,0.0,0.0,0.0,0.0,0.0,0.0,0.0,0.0,0.0,
1.2459,2.4340860049006174,2.4340860049006174,2.4340860049006174,0.0,0.0,0.0,2.4340860049006174,0.0,0.0,0.0,0.0,0.0,0.0,0.0,0.0,0.0,0.0,0.0,0.0,0.0,0.0,
1.2599,2.4345979263914397,2.4345979263914397,2.4345979263914397,0.0,0.0,0.0,2.4345979263914397,0.0,0.0,0.0,0.0,0.0,0.0,0.0,0.0,0.0,0.0,0.0,0.0,0.0,0.0,
1.2739,2.435116185925412,2.435116185925412,2.435116185925412,0.0,0.0,0.0,2.435116185925412,0.0,0.0,0.0,0.0,0.0,0.0,0.0,0.0,0.0,0.0,0.0,0.0,0.0,0.0,
1.2879,2.4356408055187146,2.4356408055187146,2.4356408055187146,0.0,0.0,0.0,2.4356408055187146,0.0,0.0,0.0,0.0,0.0,0.0,0.0,0.0,0.0,0.0,0.0,0.0,0.0,0.0,
1.3019,2.4361718075143375,2.4361718075143375,2.4361718075143375,0.0,0.0,0.0,2.4361718075143375,0.0,0.0,0.0,0.0,0.0,0.0,0.0,0.0,0.0,0.0,0.0,0.0,0.0,0.0,
1.3159,2.43670921458523,2.43670921458523,2.43670921458523,0.0,0.0,0.0,2.43670921458523,0.0,0.0,0.0,0.0,0.0,0.0,0.0,0.0,0.0,0.0,0.0,0.0,0.0,0.0,
1.3299,2.4372530497375164,2.4372530497375164,2.4372530497375164,0.0,0.0,0.0,2.4372530497375164,0.0,0.0,0.0,0.0,0.0,0.0,0.0,0.0,0.0,0.0,0.0,0.0,0.0,0.0,
1.3439,2.43780333631379,2.43780333631379,2.43780333631379,0.0,0.0,0.0,2.43780333631379,0.0,0.0,0.0,0.0,0.0,0.0,0.0,0.0,0.0,0.0,0.0,0.0,0.0,0.0,
1.3579,2.438360097996388,2.438360097996388,2.438360097996388,0.0,0.0,0.0,2.438360097996388,0.0,0.0,0.0,0.0,0.0,0.0,0.0,0.0,0.0,0.0,0.0,0.0,0.0,0.0,
1.3719,2.438923358810894,2.438923358810894,2.438923358810894,0.0,0.0,0.0,2.438923358810894,0.0,0.0,0.0,0.0,0.0,0.0,0.0,0.0,0.0,0.0,0.0,0.0,0.0,0.0,
1.3859,2.43949314312953,2.43949314312953,2.43949314312953,0.0,0.0,0.0,2.43949314312953,0.0,0.0,0.0,0.0,0.0,0.0,0.0,0.0,0.0,0.0,0.0,0.0,0.0,0.0,
1.3999,2.4400694756747034,2.4400694756747034,2.4400694756747034,0.0,0.0,0.0,2.4400694756747034,0.0,0.0,0.0,0.0,0.0,0.0,0.0,0.0,0.0,0.0,0.0,0.0,0.0,0.0,
1.4139,2.4406523815226056,2.4406523815226056,2.4406523815226056,0.0,0.0,0.0,2.4406523815226056,0.0,0.0,0.0,0.0,0.0,0.0,0.0,0.0,0.0,0.0,0.0,0.0,0.0,0.0,
1.4279,2.441241886106888,2.441241886106888,2.441241886106888,0.0,0.0,0.0,2.441241886106888,0.0,0.0,0.0,0.0,0.0,0.0,0.0,0.0,0.0,0.0,0.0,0.0,0.0,0.0,
1.4419,2.4418380152223618,2.4418380152223618,2.4418380152223618,0.0,0.0,0.0,2.4418380152223618,0.0,0.0,0.0,0.0,0.0,0.0,0.0,0.0,0.0,0.0,0.0,0.0,0.0,0.0,
1.4559,2.442440795028828,2.442440795028828,2.442440795028828,0.0,0.0,0.0,2.442440795028828,0.0,0.0,0.0,0.0,0.0,0.0,0.0,0.0,0.0,0.0,0.0,0.0,0.0,0.0,
1.4699,2.4430502520548947,2.4430502520548947,2.4430502520548947,0.0,0.0,0.0,2.4430502520548947,0.0,0.0,0.0,0.0,0.0,0.0,0.0,0.0,0.0,0.0,0.0,0.0,0.0,0.0,
1.4839,2.4436664132020156,2.4436664132020156,2.4436664132020156,0.0,0.0,0.0,2.4436664132020156,0.0,0.0,0.0,0.0,0.0,0.0,0.0,0.0,0.0,0.0,0.0,0.0,0.0,0.0,
1.4979,2.4442893057483754,2.4442893057483754,2.4442893057483754,0.0,0.0,0.0,2.4442893057483754,0.0,0.0,0.0,0.0,0.0,0.0,0.0,0.0,0.0,0.0,0.0,0.0,0.0,0.0,
1.5119,2.444918957353095,2.444918957353095,2.444918957353095,0.0,0.0,0.0,2.444918957353095,0.0,0.0,0.0,0.0,0.0,0.0,0.0,0.0,0.0,0.0,0.0,0.0,0.0,0.0,
1.5259,2.4455553960603367,2.4455553960603367,2.4455553960603367,0.0,0.0,0.0,2.4455553960603367,0.0,0.0,0.0,0.0,0.0,0.0,0.0,0.0,0.0,0.0,0.0,0.0,0.0,0.0,
1.5399,2.44619865030352,2.44619865030352,2.44619865030352,0.0,0.0,0.0,2.44619865030352,0.0,0.0,0.0,0.0,0.0,0.0,0.0,0.0,0.0,0.0,0.0,0.0,0.0,0.0,
1.5539,2.446848748909714,2.446848748909714,2.446848748909714,0.0,0.0,0.0,2.446848748909714,0.0,0.0,0.0,0.0,0.0,0.0,0.0,0.0,0.0,0.0,0.0,0.0,0.0,0.0,
1.5679,2.447505721103984,2.447505721103984,2.447505721103984,0.0,0.0,0.0,2.447505721103984,0.0,0.0,0.0,0.0,0.0,0.0,0.0,0.0,0.0,0.0,0.0,0.0,0.0,0.0,
1.5819,2.448169596513869,2.448169596513869,2.448169596513869,0.0,0.0,0.0,2.448169596513869,0.0,0.0,0.0,0.0,0.0,0.0,0.0,0.0,0.0,0.0,0.0,0.0,0.0,0.0,
1.5959,2.448840405174,2.448840405174,2.448840405174,0.0,0.0,0.0,2.448840405174,0.0,0.0,0.0,0.0,0.0,0.0,0.0,0.0,0.0,0.0,0.0,0.0,0.0,0.0,
1.6099,2.449518177530683,2.449518177530683,2.449518177530683,0.0,0.0,0.0,2.449518177530683,0.0,0.0,0.0,0.0,0.0,0.0,0.0,0.0,0.0,0.0,0.0,0.0,0.0,0.0,
1.6239,2.45020294444667,2.45020294444667,2.45020294444667,0.0,0.0,0.0,2.45020294444667,0.0,0.0,0.0,0.0,0.0,0.0,0.0,0.0,0.0,0.0,0.0,0.0,0.0,0.0,
1.6378,2.450889770841619,2.450889770841619,2.450889770841619,0.0,0.0,0.0,2.450889770841619,0.0,0.0,0.0,0.0,0.0,0.0,0.0,0.0,0.0,0.0,0.0,0.0,0.0,0.0,
1.6518,2.4515885706298786,2.4515885706298786,2.4515885706298786,0.0,0.0,0.0,2.4515885706298786,0.0,0.0,0.0,0.0,0.0,0.0,0.0,0.0,0.0,0.0,0.0,0.0,0.0,0.0,
1.6658,2.452294459881882,2.452294459881882,2.452294459881882,0.0,0.0,0.0,2.452294459881882,0.0,0.0,0.0,0.0,0.0,0.0,0.0,0.0,0.0,0.0,0.0,0.0,0.0,0.0,
1.6798,2.4530074711721426,2.4530074711721426,2.4530074711721426,0.0,0.0,0.0,2.4530074711721426,0.0,0.0,0.0,0.0,0.0,0.0,0.0,0.0,0.0,0.0,0.0,0.0,0.0,0.0,
1.6938,2.4537276375165877,2.4537276375165877,2.4537276375165877,0.0,0.0,0.0,2.4537276375165877,0.0,0.0,0.0,0.0,0.0,0.0,0.0,0.0,0.0,0.0,0.0,0.0,0.0,0.0,
1.7078,2.4544549923778645,2.4544549923778645,2.4544549923778645,0.0,0.0,0.0,2.4544549923778645,0.0,0.0,0.0,0.0,0.0,0.0,0.0,0.0,0.0,0.0,0.0,0.0,0.0,0.0,
1.7218,2.455189569670726,2.455189569670726,2.455189569670726,0.0,0.0,0.0,2.455189569670726,0.0,0.0,0.0,0.0,0.0,0.0,0.0,0.0,0.0,0.0,0.0,0.0,0.0,0.0,
1.7358,2.4559314037675235,2.4559314037675235,2.4559314037675235,0.0,0.0,0.0,2.4559314037675235,0.0,0.0,0.0,0.0,0.0,0.0,0.0,0.0,0.0,0.0,0.0,0.0,0.0,0.0,
1.7498,2.456680529503771,2.456680529503771,2.456680529503771,0.0,0.0,0.0,2.456680529503771,0.0,0.0,0.0,0.0,0.0,0.0,0.0,0.0,0.0,0.0,0.0,0.0,0.0,0.0,
1.7638,2.4574369821838937,2.4574369821838937,2.4574369821838937,0.0,0.0,0.0,2.4574369821838937,0.0,0.0,0.0,0.0,0.0,0.0,0.0,0.0,0.0,0.0,0.0,0.0,0.0,0.0,
1.7778,2.458200797586944,2.458200797586944,2.458200797586944,0.0,0.0,0.0,2.458200797586944,0.0,0.0,0.0,0.0,0.0,0.0,0.0,0.0,0.0,0.0,0.0,0.0,0.0,0.0,
1.7918,2.4589720119726,2.4589720119726,2.4589720119726,0.0,0.0,0.0,2.4589720119726,0.0,0.0,0.0,0.0,0.0,0.0,0.0,0.0,0.0,0.0,0.0,0.0,0.0,0.0,
1.8058,2.4597506620871394,2.4597506620871394,2.4597506620871394,0.0,0.0,0.0,2.4597506620871394,0.0,0.0,0.0,0.0,0.0,0.0,0.0,0.0,0.0,0.0,0.0,0.0,0.0,0.0,
1.8198,2.4605367851695905,2.4605367851695905,2.4605367851695905,0.0,0.0,0.0,2.4605367851695905,0.0,0.0,0.0,0.0,0.0,0.0,0.0,0.0,0.0,0.0,0.0,0.0,0.0,0.0,
1.8338,2.4613304189579814,2.4613304189579814,2.4613304189579814,0.0,0.0,0.0,2.4613304189579814,0.0,0.0,0.0,0.0,0.0,0.0,0.0,0.0,0.0,0.0,0.0,0.0,0.0,0.0,
