energies(eV),real_xx,real_yy,real_zz,real_xy,real_yz,real_xz,real_ave,imag_xx,imag_yy,imag_zz,imag_xy,imag_yz,imag_xz,imag_ave,absorption_xx,absorption_yy,absorption_zz,absorption_xy,absorption_yz,absorption_xz,absorption_ave,band_gap
0.0,2.4435440271065523,2.4435440271065523,2.341603191787006,0.0,0.0,0.0,2.4095637486667036,0.0,0.0,0.0,0.0,0.0,0.0,0.0,0.0,0.0,0.0,0.0,0.0,0.0,0.0,8.0268
0.0172,2.443546200775791,2.443546200775791,2.3416051788690027,0.0,0.0,0.0,2.409565860140195,0.0,0.0,0.0,0.0,0.0,0.0,0.0,0.0,0.0,0.0,0.0,0.0,0.0,0.0,
0.0344,2.4435527218375244,2.4435527218375244,2.3416111401654387,0.0,0.0,0.0,2.409572194613496,0.0,0.0,0.0,0.0,0.0,0.0,0.0,0.0,0.0,0.0,0.0,0.0,0.0,0.0,
0.0516,2.4435635904538153,2.4435635904538153,2.341621075827664,0.0,0.0,0.0,2.409582752245098,0.0,0.0,0.0,0.0,0.0,0.0,0.0,0.0,0.0,0.0,0.0,0.0,0.0,0.0,
0.0689,2.443578908075623,2.443578908075623,2.341635078603587,0.0,0.0,0.0,2.4095976315849446,0.0,0.0,0.0,0.0,0.0,0.0,0.0,0.0,0.0,0.0,0.0,0.0,0.0,0.0,
0.0861,2.4435984980009553,2.4435984980009553,2.341652986966604,0.0,0.0,0.0,2.4096166609895047,0.0,0.0,0.0,0.0,0.0,0.0,0.0,0.0,0.0,0.0,0.0,0.0,0.0,0.0,
0.1033,2.4436224366185364,2.4436224366185364,2.34167487075793,0.0,0.0,0.0,2.409639914665001,0.0,0.0,0.0,0.0,0.0,0.0,0.0,0.0,0.0,0.0,0.0,0.0,0.0,0.0,
0.1205,2.443650724523417,2.443650724523417,2.3417007305332995,0.0,0.0,0.0,2.4096673931933776,0.0,0.0,0.0,0.0,0.0,0.0,0.0,0.0,0.0,0.0,0.0,0.0,0.0,0.0,
0.1377,2.443683362418798,2.443683362418798,2.3417305669494732,0.0,0.0,0.0,2.4096990972623566,0.0,0.0,0.0,0.0,0.0,0.0,0.0,0.0,0.0,0.0,0.0,0.0,0.0,0.0,
0.1549,2.4437203511161663,2.4437203511161663,2.341764380764295,0.0,0.0,0.0,2.4097350276655427,0.0,0.0,0.0,0.0,0.0,0.0,0.0,0.0,0.0,0.0,0.0,0.0,0.0,0.0,
0.1722,2.443761944612369,2.443761944612369,2.3418024041918937,0.0,0.0,0.0,2.4097754311388773,0.0,0.0,0.0,0.0,0.0,0.0,0.0,0.0,0.0,0.0,0.0,0.0,0.0,0.0,
0.1894,2.4438076630912002,2.4438076630912002,2.3418441986202496,0.0,0.0,0.0,2.4098198416008834,0.0,0.0,0.0,0.0,0.0,0.0,0.0,0.0,0.0,0.0,0.0,0.0,0.0,0.0,
0.2066,2.443857735463333,2.443857735463333,2.3418899733344523,0.0,0.0,0.0,2.409868481420373,0.0,0.0,0.0,0.0,0.0,0.0,0.0,0.0,0.0,0.0,0.0,0.0,0.0,0.0,
0.2238,2.4439121629745015,2.4439121629745015,2.3419397294979856,0.0,0.0,0.0,2.409921351815663,0.0,0.0,0.0,0.0,0.0,0.0,0.0,0.0,0.0,0.0,0.0,0.0,0.0,0.0,
0.241,2.443970946979042,2.443970946979042,2.341993468375791,0.0,0.0,0.0,2.409978454111292,0.0,0.0,0.0,0.0,0.0,0.0,0.0,0.0,0.0,0.0,0.0,0.0,0.0,0.0,
0.2582,2.444034088940005,2.444034088940005,2.342051191334366,0.0,0.0,0.0,2.4100397897381254,0.0,0.0,0.0,0.0,0.0,0.0,0.0,0.0,0.0,0.0,0.0,0.0,0.0,0.0,
0.2754,2.444101590429309,2.444101590429309,2.3421128998419043,0.0,0.0,0.0,2.410105360233507,0.0,0.0,0.0,0.0,0.0,0.0,0.0,0.0,0.0,0.0,0.0,0.0,0.0,0.0,
0.2927,2.4441738836892615,2.4441738836892615,2.342178989080754,0.0,0.0,0.0,2.4101755854864257,0.0,0.0,0.0,0.0,0.0,0.0,0.0,0.0,0.0,0.0,0.0,0.0,0.0,0.0,
0.3099,2.4442501347585717,2.4442501347585717,2.3422486966937623,0.0,0.0,0.0,2.4102496554036352,0.0,0.0,0.0,0.0,0.0,0.0,0.0,0.0,0.0,0.0,0.0,0.0,0.0,0.0,
0.3271,2.4443307507374987,2.4443307507374987,2.3423223948821246,0.0,0.0,0.0,2.410327965452374,0.0,0.0,0.0,0.0,0.0,0.0,0.0,0.0,0.0,0.0,0.0,0.0,0.0,0.0,
0.3443,2.4444157336351804,2.4444157336351804,2.3424000855225433,0.0,0.0,0.0,2.4104105175976347,0.0,0.0,0.0,0.0,0.0,0.0,0.0,0.0,0.0,0.0,0.0,0.0,0.0,0.0,
0.3615,2.444505085570269,2.444505085570269,2.3424817705940537,0.0,0.0,0.0,2.4104973139115304,0.0,0.0,0.0,0.0,0.0,0.0,0.0,0.0,0.0,0.0,0.0,0.0,0.0,0.0,
0.3787,2.4445988087711026,2.4445988087711026,2.342567452178197,0.0,0.0,0.0,2.4105883565734674,0.0,0.0,0.0,0.0,0.0,0.0,0.0,0.0,0.0,0.0,0.0,0.0,0.0,0.0,
0.3959,2.4446969055758343,2.4446969055758343,2.3426571324591454,0.0,0.0,0.0,2.4106836478702713,0.0,0.0,0.0,0.0,0.0,0.0,0.0,0.0,0.0,0.0,0.0,0.0,0.0,0.0,
0.4132,2.4447999870050596,2.4447999870050596,2.342751370085431,0.0,0.0,0.0,2.410783781365183,0.0,0.0,0.0,0.0,0.0,0.0,0.0,0.0,0.0,0.0,0.0,0.0,0.0,0.0,
0.4304,2.4449068639370903,2.4449068639370903,2.342849078006644,0.0,0.0,0.0,2.4108876019602747,0.0,0.0,0.0,0.0,0.0,0.0,0.0,0.0,0.0,0.0,0.0,0.0,0.0,0.0,
0.4476,2.445018122164215,2.445018122164215,2.3429507918096837,0.0,0.0,0.0,2.4109956787127045,0.0,0.0,0.0,0.0,0.0,0.0,0.0,0.0,0.0,0.0,0.0,0.0,0.0,0.0,
0.4648,2.445133764466487,2.445133764466487,2.3430565140917636,0.0,0.0,0.0,2.411108014341579,0.0,0.0,0.0,0.0,0.0,0.0,0.0,0.0,0.0,0.0,0.0,0.0,0.0,0.0,
0.482,2.4452537937347114,2.4452537937347114,2.3431662475536745,0.0,0.0,0.0,2.4112246116743656,0.0,0.0,0.0,0.0,0.0,0.0,0.0,0.0,0.0,0.0,0.0,0.0,0.0,0.0,
0.4992,2.44537821297079,2.44537821297079,2.343279995000051,0.0,0.0,0.0,2.4113454736472106,0.0,0.0,0.0,0.0,0.0,0.0,0.0,0.0,0.0,0.0,0.0,0.0,0.0,0.0,
0.5165,2.4455077870477435,2.4455077870477435,2.343398455766668,0.0,0.0,0.0,2.411471343287385,0.0,0.0,0.0,0.0,0.0,0.0,0.0,0.0,0.0,0.0,0.0,0.0,0.0,0.0,
0.5337,2.4456410212399975,2.4456410212399975,2.343520263392728,0.0,0.0,0.0,2.411600768624241,0.0,0.0,0.0,0.0,0.0,0.0,0.0,0.0,0.0,0.0,0.0,0.0,0.0,0.0,
0.5509,2.4457786550939553,2.4457786550939553,2.3436460940606665,0.0,0.0,0.0,2.411734468082859,0.0,0.0,0.0,0.0,0.0,0.0,0.0,0.0,0.0,0.0,0.0,0.0,0.0,0.0,
0.5681,2.4459206920586674,2.4459206920586674,2.3437759509932707,0.0,0.0,0.0,2.4118724450368685,0.0,0.0,0.0,0.0,0.0,0.0,0.0,0.0,0.0,0.0,0.0,0.0,0.0,0.0,
0.5853,2.446067135695401,2.446067135695401,2.343909837518341,0.0,0.0,0.0,2.412014702969714,0.0,0.0,0.0,0.0,0.0,0.0,0.0,0.0,0.0,0.0,0.0,0.0,0.0,0.0,
0.6025,2.4462179896780007,2.4462179896780007,2.344047757068936,0.0,0.0,0.0,2.4121612454749792,0.0,0.0,0.0,0.0,0.0,0.0,0.0,0.0,0.0,0.0,0.0,0.0,0.0,0.0,
0.6197,2.446373257793092,2.446373257793092,2.3441897131837033,0.0,0.0,0.0,2.412312076256629,0.0,0.0,0.0,0.0,0.0,0.0,0.0,0.0,0.0,0.0,0.0,0.0,0.0,0.0,
0.637,2.4465338852738387,2.4465338852738387,2.344336570143275,0.0,0.0,0.0,2.412468113563651,0.0,0.0,0.0,0.0,0.0,0.0,0.0,0.0,0.0,0.0,0.0,0.0,0.0,0.0,
0.6542,2.4466980191880876,2.4466980191880876,2.3444866339484127,0.0,0.0,0.0,2.4126275574415295,0.0,0.0,0.0,0.0,0.0,0.0,0.0,0.0,0.0,0.0,0.0,0.0,0.0,0.0,
0.6714,2.446866579298902,2.446866579298902,2.34464074559249,0.0,0.0,0.0,2.412791301396765,0.0,0.0,0.0,0.0,0.0,0.0,0.0,0.0,0.0,0.0,0.0,0.0,0.0,0.0,
0.6886,2.4470395698478438,2.4470395698478438,2.3447989090398558,0.0,0.0,0.0,2.4129593495785144,0.0,0.0,0.0,0.0,0.0,0.0,0.0,0.0,0.0,0.0,0.0,0.0,0.0,0.0,
0.7058,2.4472169951908196,2.4472169951908196,2.3449611283619305,0.0,0.0,0.0,2.4131317062478566,0.0,0.0,0.0,0.0,0.0,0.0,0.0,0.0,0.0,0.0,0.0,0.0,0.0,0.0,
0.723,2.447398859798414,2.447398859798414,2.3451274077374875,0.0,0.0,0.0,2.413308375778105,0.0,0.0,0.0,0.0,0.0,0.0,0.0,0.0,0.0,0.0,0.0,0.0,0.0,0.0,
0.7402,2.4475851682562766,2.4475851682562766,2.3452977514530193,0.0,0.0,0.0,2.413489362655191,0.0,0.0,0.0,0.0,0.0,0.0,0.0,0.0,0.0,0.0,0.0,0.0,0.0,0.0,
0.7575,2.447777047334162,2.447777047334162,2.3454731898342076,0.0,0.0,0.0,2.4136757615008437,0.0,0.0,0.0,0.0,0.0,0.0,0.0,0.0,0.0,0.0,0.0,0.0,0.0,0.0,
0.7747,2.4479722836173257,2.4479722836173257,2.3456516992167833,0.0,0.0,0.0,2.413865422150478,0.0,0.0,0.0,0.0,0.0,0.0,0.0,0.0,0.0,0.0,0.0,0.0,0.0,0.0,
0.7919,2.4481719782304694,2.4481719782304694,2.345834286475742,0.0,0.0,0.0,2.414059414312227,0.0,0.0,0.0,0.0,0.0,0.0,0.0,0.0,0.0,0.0,0.0,0.0,0.0,0.0,
0.8091,2.4483761362236467,2.4483761362236467,2.346020956332608,0.0,0.0,0.0,2.4142577429266336,0.0,0.0,0.0,0.0,0.0,0.0,0.0,0.0,0.0,0.0,0.0,0.0,0.0,0.0,
0.8263,2.4485847627638364,2.4485847627638364,2.3462117136184366,0.0,0.0,0.0,2.4144604130487033,0.0,0.0,0.0,0.0,0.0,0.0,0.0,0.0,0.0,0.0,0.0,0.0,0.0,0.0,
0.8435,2.448797863135322,2.448797863135322,2.346406563274199,0.0,0.0,0.0,2.414667429848281,0.0,0.0,0.0,0.0,0.0,0.0,0.0,0.0,0.0,0.0,0.0,0.0,0.0,0.0,
0.8608,2.449016720845245,2.449016720845245,2.3466066790106472,0.0,0.0,0.0,2.4148800402337125,0.0,0.0,0.0,0.0,0.0,0.0,0.0,0.0,0.0,0.0,0.0,0.0,0.0,0.0,
0.878,2.4492388112938928,2.4492388112938928,2.346809752538449,0.0,0.0,0.0,2.4150957917087448,0.0,0.0,0.0,0.0,0.0,0.0,0.0,0.0,0.0,0.0,0.0,0.0,0.0,0.0,
0.8952,2.449465392167732,2.449465392167732,2.3470169339536753,0.0,0.0,0.0,2.41531590609638,0.0,0.0,0.0,0.0,0.0,0.0,0.0,0.0,0.0,0.0,0.0,0.0,0.0,0.0,
0.9124,2.449696469225117,2.449696469225117,2.3472282286417414,0.0,0.0,0.0,2.4155403890306584,0.0,0.0,0.0,0.0,0.0,0.0,0.0,0.0,0.0,0.0,0.0,0.0,0.0,0.0,
0.9296,2.4499320483438445,2.4499320483438445,2.3474436421000675,0.0,0.0,0.0,2.4157692462625855,0.0,0.0,0.0,0.0,0.0,0.0,0.0,0.0,0.0,0.0,0.0,0.0,0.0,0.0,
0.9468,2.450172135521647,2.450172135521647,2.3476631799385563,0.0,0.0,0.0,2.4160024836606167,0.0,0.0,0.0,0.0,0.0,0.0,0.0,0.0,0.0,0.0,0.0,0.0,0.0,0.0,
0.964,2.45041673687662,2.45041673687662,2.3478868478800337,0.0,0.0,0.0,2.4162401072110913,0.0,0.0,0.0,0.0,0.0,0.0,0.0,0.0,0.0,0.0,0.0,0.0,0.0,0.0,
0.9813,2.4506673202596176,2.4506673202596176,2.3481159883064437,0.0,0.0,0.0,2.416483542941893,0.0,0.0,0.0,0.0,0.0,0.0,0.0,0.0,0.0,0.0,0.0,0.0,0.0,0.0,
0.9985,2.450920995144435,2.450920995144435,2.3483479581748017,0.0,0.0,0.0,2.4167299828212236,0.0,0.0,0.0,0.0,0.0,0.0,0.0,0.0,0.0,0.0,0.0,0.0,0.0,0.0,
1.0157,2.4511792033258732,2.4511792033258732,2.3485840760325267,0.0,0.0,0.0,2.4169808275614244,0.0,0.0,0.0,0.0,0.0,0.0,0.0,0.0,0.0,0.0,0.0,0.0,0.0,0.0,
1.0329,2.451441951409153,2.451441951409153,2.348824348059593,0.0,0.0,0.0,2.4172360836259665,0.0,0.0,0.0,0.0,0.0,0.0,0.0,0.0,0.0,0.0,0.0,0.0,0.0,0.0,
1.0501,2.4517092461223813,2.4517092461223813,2.349068780551365,0.0,0.0,0.0,2.4174957575987093,0.0,0.0,0.0,0.0,0.0,0.0,0.0,0.0,0.0,0.0,0.0,0.0,0.0,0.0,
1.0673,2.4519810943170723,2.4519810943170723,2.3493173799191096,0.0,0.0,0.0,2.4177598561844182,0.0,0.0,0.0,0.0,0.0,0.0,0.0,0.0,0.0,0.0,0.0,0.0,0.0,0.0,
1.0845,2.452257502968714,2.452257502968714,2.3495701526904913,0.0,0.0,0.0,2.4180283862093064,0.0,0.0,0.0,0.0,0.0,0.0,0.0,0.0,0.0,0.0,0.0,0.0,0.0,0.0,
1.1018,2.4525401261289237,2.4525401261289237,2.349828611657009,0.0,0.0,0.0,2.4183029546382855,0.0,0.0,0.0,0.0,0.0,0.0,0.0,0.0,0.0,0.0,0.0,0.0,0.0,0.0,
1.119,2.4528257037383883,2.4528257037383883,2.3500897756490517,0.0,0.0,0.0,2.418580394375276,0.0,0.0,0.0,0.0,0.0,0.0,0.0,0.0,0.0,0.0,0.0,0.0,0.0,0.0,
1.1362,2.4531158635236583,2.4531158635236583,2.3503551333720987,0.0,0.0,0.0,2.4188622868064718,0.0,0.0,0.0,0.0,0.0,0.0,0.0,0.0,0.0,0.0,0.0,0.0,0.0,0.0,
1.1534,2.453410612962372,2.453410612962372,2.3506246918257423,0.0,0.0,0.0,2.419148639250162,0.0,0.0,0.0,0.0,0.0,0.0,0.0,0.0,0.0,0.0,0.0,0.0,0.0,0.0,
1.1706,2.4537099596590535,2.4537099596590535,2.3508984581287855,0.0,0.0,0.0,2.4194394591489643,0.0,0.0,0.0,0.0,0.0,0.0,0.0,0.0,0.0,0.0,0.0,0.0,0.0,0.0,
1.1878,2.45401391134563,2.45401391134563,2.3511764395198713,0.0,0.0,0.0,2.4197347540703773,0.0,0.0,0.0,0.0,0.0,0.0,0.0,0.0,0.0,0.0,0.0,0.0,0.0,0.0,
1.2051,2.4543242833649463,2.4543242833649463,2.3514602964385403,0.0,0.0,0.0,2.420036287722811,0.0,0.0,0.0,0.0,0.0,0.0,0.0,0.0,0.0,0.0,0.0,0.0,0.0,0.0,
1.2223,2.4546374956289867,2.4546374956289867,2.351746754818689,0.0,0.0,0.0,2.420340582025554,0.0,0.0,0.0,0.0,0.0,0.0,0.0,0.0,0.0,0.0,0.0,0.0,0.0,0.0,
1.2395,2.4549553368972212,2.4549553368972212,2.3520374507724506,0.0,0.0,0.0,2.420649374855631,0.0,0.0,0.0,0.0,0.0,0.0,0.0,0.0,0.0,0.0,0.0,0.0,0.0,0.0,
1.2567,2.4552778154184303,2.4552778154184303,2.3523323920246644,0.0,0.0,0.0,2.420962674287175,0.0,0.0,0.0,0.0,0.0,0.0,0.0,0.0,0.0,0.0,0.0,0.0,0.0,0.0,
1.2739,2.455604939572038,2.455604939572038,2.352631586423168,0.0,0.0,0.0,2.421280488522415,0.0,0.0,0.0,0.0,0.0,0.0,0.0,0.0,0.0,0.0,0.0,0.0,0.0,0.0,
1.2911,2.4559367178687976,2.4559367178687976,2.3529350419394137,0.0,0.0,0.0,2.4216028258923363,0.0,0.0,0.0,0.0,0.0,0.0,0.0,0.0,0.0,0.0,0.0,0.0,0.0,0.0,
1.3083,2.45627315895151,2.45627315895151,2.353242766669207,0.0,0.0,0.0,2.421929694857409,0.0,0.0,0.0,0.0,0.0,0.0,0.0,0.0,0.0,0.0,0.0,0.0,0.0,0.0,
1.3256,2.456616268485139,2.456616268485139,2.353556595322339,0.0,0.0,0.0,2.422263044097539,0.0,0.0,0.0,0.0,0.0,0.0,0.0,0.0,0.0,0.0,0.0,0.0,0.0,0.0,
1.3428,2.4569620888380324,2.4569620888380324,2.3538729082092504,0.0,0.0,0.0,2.4225990286284382,0.0,0.0,0.0,0.0,0.0,0.0,0.0,0.0,0.0,0.0,0.0,0.0,0.0,0.0,
1.36,2.4573125987573925,2.4573125987573925,2.3541935153995244,0.0,0.0,0.0,2.4229395709714363,0.0,0.0,0.0,0.0,0.0,0.0,0.0,0.0,0.0,0.0,0.0,0.0,0.0,0.0,
1.3772,2.457667807422016,2.457667807422016,2.3545184254939535,0.0,0.0,0.0,2.423284680112662,0.0,0.0,0.0,0.0,0.0,0.0,0.0,0.0,0.0,0.0,0.0,0.0,0.0,0.0,
1.3944,2.4580277241463713,2.4580277241463713,2.3548476472212014,0.0,0.0,0.0,2.423634365171315,0.0,0.0,0.0,0.0,0.0,0.0,0.0,0.0,0.0,0.0,0.0,0.0,0.0,0.0,
1.4116,2.4583923583813254,2.4583923583813254,2.3551811894385715,0.0,0.0,0.0,2.4239886354004074,0.0,0.0,0.0,0.0,0.0,0.0,0.0,0.0,0.0,0.0,0.0,0.0,0.0,0.0,
1.4288,2.458761719714955,2.458761719714955,2.3555190611327634,0.0,0.0,0.0,2.424347500187558,0.0,0.0,0.0,0.0,0.0,0.0,0.0,0.0,0.0,0.0,0.0,0.0,0.0,0.0,
1.4461,2.4591380067317488,2.4591380067317488,2.355863273718861,0.0,0.0,0.0,2.4247130957274527,0.0,0.0,0.0,0.0,0.0,0.0,0.0,0.0,0.0,0.0,0.0,0.0,0.0,0.0,
1.4633,2.459516879205876,2.459516879205876,2.3562098571536616,0.0,0.0,0.0,2.425081205188471,0.0,0.0,0.0,0.0,0.0,0.0,0.0,0.0,0.0,0.0,0.0,0.0,0.0,0.0,
1.4805,2.4599005084326686,2.4599005084326686,2.356560797864451,0.0,0.0,0.0,2.4254539382432627,0.0,0.0,0.0,0.0,0.0,0.0,0.0,0.0,0.0,0.0,0.0,0.0,0.0,0.0,
1.4977,2.4602889045578107,2.4602889045578107,2.3569161053641468,0.0,0.0,0.0,2.4258313048265894,0.0,0.0,0.0,0.0,0.0,0.0,0.0,0.0,0.0,0.0,0.0,0.0,0.0,0.0,
1.5149,2.4606820778683436,2.4606820778683436,2.357275789299057,0.0,0.0,0.0,2.4262133150119145,0.0,0.0,0.0,0.0,0.0,0.0,0.0,0.0,0.0,0.0,0.0,0.0,0.0,0.0,
1.5321,2.46108003879341,2.46108003879341,2.357639859449762,0.0,0.0,0.0,2.426599979012194,0.0,0.0,0.0,0.0,0.0,0.0,0.0,0.0,0.0,0.0,0.0,0.0,0.0,0.0,
1.5494,2.461485153578115,2.461485153578115,2.358010480851079,0.0,0.0,0.0,2.4269935960024362,0.0,0.0,0.0,0.0,0.0,0.0,0.0,0.0,0.0,0.0,0.0,0.0,0.0,0.0,
1.5666,2.461892749583001,2.461892749583001,2.3583833789633277,0.0,0.0,0.0,2.42738962604311,0.0,0.0,0.0,0.0,0.0,0.0,0.0,0.0,0.0,0.0,0.0,0.0,0.0,0.0,
1.5838,2.462305165415101,2.462305165415101,2.358760693506804,0.0,0.0,0.0,2.4277903414456685,0.0,0.0,0.0,0.0,0.0,0.0,0.0,0.0,0.0,0.0,0.0,0.0,0.0,0.0,
1.601,2.462722412081833,2.462722412081833,2.3591424348085503,0.0,0.0,0.0,2.4281957529907388,0.0,0.0,0.0,0.0,0.0,0.0,0.0,0.0,0.0,0.0,0.0,0.0,0.0,0.0,
1.6182,2.4631445007372657,2.4631445007372657,2.3595286133342954,0.0,0.0,0.0,2.4286058716029424,0.0,0.0,0.0,0.0,0.0,0.0,0.0,0.0,0.0,0.0,0.0,0.0,0.0,0.0,
1.6354,2.463571442683068,2.463571442683068,2.3599192396893587,0.0,0.0,0.0,2.4290207083518314,0.0,0.0,0.0,0.0,0.0,0.0,0.0,0.0,0.0,0.0,0.0,0.0,0.0,0.0,
1.6526,2.4640032493694433,2.4640032493694433,2.360314324619592,0.0,0.0,0.0,2.4294402744528263,0.0,0.0,0.0,0.0,0.0,0.0,0.0,0.0,0.0,0.0,0.0,0.0,0.0,0.0,
1.6699,2.4644424855316447,2.4644424855316447,2.3607162150926753,0.0,0.0,0.0,2.429867062051988,0.0,0.0,0.0,0.0,0.0,0.0,0.0,0.0,0.0,0.0,0.0,0.0,0.0,0.0,
1.6871,2.4648840851026357,2.4648840851026357,2.3611202760597125,0.0,0.0,0.0,2.430296148754995,0.0,0.0,0.0,0.0,0.0,0.0,0.0,0.0,0.0,0.0,0.0,0.0,0.0,0.0,
1.7043,2.465330584735553,2.465330584735553,2.3615288287577885,0.0,0.0,0.0,2.4307299994096314,0.0,0.0,0.0,0.0,0.0,0.0,0.0,0.0,0.0,0.0,0.0,0.0,0.0,0.0,
1.7215,2.465781996485541,2.465781996485541,2.361941884505483,0.0,0.0,0.0,2.4311686258255216,0.0,0.0,0.0,0.0,0.0,0.0,0.0,0.0,0.0,0.0,0.0,0.0,0.0,0.0,
1.7387,2.466238332561365,2.466238332561365,2.3623594547668945,0.0,0.0,0.0,2.4316120399632077,0.0,0.0,0.0,0.0,0.0,0.0,0.0,0.0,0.0,0.0,0.0,0.0,0.0,0.0,
1.7559,2.466699605326351,2.466699605326351,2.3627815511525974,0.0,0.0,0.0,2.4320602539351,0.0,0.0,0.0,0.0,0.0,0.0,0.0,0.0,0.0,0.0,0.0,0.0,0.0,0.0,
1.7731,2.4671658272995587,2.4671658272995587,2.3632081854208042,0.0,0.0,0.0,2.4325132800066407,0.0,0.0,0.0,0.0,0.0,0.0,0.0,0.0,0.0,0.0,0.0,0.0,0.0,0.0,
1.7904,2.4676397651307855,2.4676397651307855,2.363641889688881,0.0,0.0,0.0,2.4329738066501507,0.0,0.0,0.0,0.0,0.0,0.0,0.0,0.0,0.0,0.0,0.0,0.0,0.0,0.0,
1.8076,2.468115952666354,2.468115952666354,2.364077662150142,0.0,0.0,0.0,2.4334365224942833,0.0,0.0,0.0,0.0,0.0,0.0,0.0,0.0,0.0,0.0,0.0,0.0,0.0,0.0,
1.8248,2.4685971279883345,2.4685971279883345,2.364518008736039,0.0,0.0,0.0,2.4339040882375693,0.0,0.0,0.0,0.0,0.0,0.0,0.0,0.0,0.0,0.0,0.0,0.0,0.0,0.0,
1.842,2.469083304250444,2.469083304250444,2.364962941806793,0.0,0.0,0.0,2.434376516769227,0.0,0.0,0.0,0.0,0.0,0.0,0.0,0.0,0.0,0.0,0.0,0.0,0.0,0.0,
1.8592,2.4695744947677074,2.4695744947677074,2.3654124738756854,0.0,0.0,0.0,2.4348538211370334,0.0,0.0,0.0,0.0,0.0,0.0,0.0,0.0,0.0,0.0,0.0,0.0,0.0,0.0,
1.8764,2.4700707130175807,2.4700707130175807,2.365866617610273,0.0,0.0,0.0,2.435336014548478,0.0,0.0,0.0,0.0,0.0,0.0,0.0,0.0,0.0,0.0,0.0,0.0,0.0,0.0,
1.8937,2.4705749017085727,2.4705749017085727,2.3663280666373563,0.0,0.0,0.0,2.435825956684834,0.0,0.0,0.0,0.0,0.0,0.0,0.0,0.0,0.0,0.0,0.0,0.0,0.0,0.0,
1.9109,2.4710812459430738,2.4710812459430738,2.3667914993290773,0.0,0.0,0.0,2.4363179970717415,0.0,0.0,0.0,0.0,0.0,0.0,0.0,0.0,0.0,0.0,0.0,0.0,0.0,0.0,
1.9281,2.471592659410927,2.471592659410927,2.3672595827032157,0.0,0.0,0.0,2.436814967175023,0.0,0.0,0.0,0.0,0.0,0.0,0.0,0.0,0.0,0.0,0.0,0.0,0.0,0.0,
1.9453,2.4721091562524258,2.4721091562524258,2.367732330057111,0.0,0.0,0.0,2.4373168808539876,0.0,0.0,0.0,0.0,0.0,0.0,0.0,0.0,0.0,0.0,0.0,0.0,0.0,0.0,
1.9625,2.472630750776416,2.472630750776416,2.368209754848386,0.0,0.0,0.0,2.437823752133739,0.0,0.0,0.0,0.0,0.0,0.0,0.0,0.0,0.0,0.0,0.0,0.0,0.0,0.0,
1.9797,2.4731574574615696,2.4731574574615696,2.368691870696213,0.0,0.0,0.0,2.4383355952064507,0.0,0.0,0.0,0.0,0.0,0.0,0.0,0.0,0.0,0.0,0.0,0.0,0.0,0.0,
1.9969,2.473689290957741,2.473689290957741,2.3691786913826185,0.0,0.0,0.0,2.4388524244327,0.0,0.0,0.0,0.0,0.0,0.0,0.0,0.0,0.0,0.0,0.0,0.0,0.0,0.0,
2.0142,2.4742294030983816,2.4742294030983816,2.3696731024660256,0.0,0.0,0.0,2.4393773028875962,0.0,0.0,0.0,0.0,0.0,0.0,0.0,0.0,0.0,0.0,0.0,0.0,0.0,0.0,
2.0314,2.4747715648818467,2.4747715648818467,2.370169402391914,0.0,0.0,0.0,2.4399041773852024,0.0,0.0,0.0,0.0,0.0,0.0,0.0,0.0,0.0,0.0,0.0,0.0,0.0,0.0,
2.0486,2.475318898554672,2.475318898554672,2.3706704495760675,0.0,0.0,0.0,2.4404360822284707,0.0,0.0,0.0,0.0,0.0,0.0,0.0,0.0,0.0,0.0,0.0,0.0,0.0,0.0,
2.0658,2.475871419465664,2.475871419465664,2.3711762584660363,0.0,0.0,0.0,2.4409730324657883,0.0,0.0,0.0,0.0,0.0,0.0,0.0,0.0,0.0,0.0,0.0,0.0,0.0,0.0,
2.083,2.476429143141569,2.476429143141569,2.3716868436789618,0.0,0.0,0.0,2.4415150433207,0.0,0.0,0.0,0.0,0.0,0.0,0.0,0.0,0.0,0.0,0.0,0.0,0.0,0.0,
2.1002,2.476992085288462,2.476992085288462,2.372202220002917,0.0,0.0,0.0,2.4420621301932806,0.0,0.0,0.0,0.0,0.0,0.0,0.0,0.0,0.0,0.0,0.0,0.0,0.0,0.0,
2.1174,2.4775602617932426,2.4775602617932426,2.3727224023983764,0.0,0.0,0.0,2.4426143086616205,0.0,0.0,0.0,0.0,0.0,0.0,0.0,0.0,0.0,0.0,0.0,0.0,0.0,0.0,
2.1347,2.4781370379858254,2.4781370379858254,2.3732504724726318,0.0,0.0,0.0,2.443174849481428,0.0,0.0,0.0,0.0,0.0,0.0,0.0,0.0,0.0,0.0,0.0,0.0,0.0,0.0,
2.1519,2.478715762265594,2.478715762265594,2.3737803407537243,0.0,0.0,0.0,2.443737288428304,0.0,0.0,0.0,0.0,0.0,0.0,0.0,0.0,0.0,0.0,0.0,0.0,0.0,0.0,
2.1691,2.4792997697594368,2.4792997697594368,2.3743150611272177,0.0,0.0,0.0,2.4443048668820304,0.0,0.0,0.0,0.0,0.0,0.0,0.0,0.0,0.0,0.0,0.0,0.0,0.0,0.0,
2.1863,2.479889077093304,2.479889077093304,2.374854649258868,0.0,0.0,0.0,2.4448776011484923,0.0,0.0,0.0,0.0,0.0,0.0,0.0,0.0,0.0,0.0,0.0,0.0,0.0,0.0,
2.2035,2.480483701081462,2.480483701081462,2.3753991209942944,0.0,0.0,0.0,2.445455507719073,0.0,0.0,0.0,0.0,0.0,0.0,0.0,0.0,0.0,0.0,0.0,0.0,0.0,0.0,
2.2207,2.481083658728057,2.481083658728057,2.3759484923605383,0.0,0.0,0.0,2.4460386032722172,0.0,0.0,0.0,0.0,0.0,0.0,0.0,0.0,0.0,0.0,0.0,0.0,0.0,0.0,
2.238,2.4816925021433347,2.4816925021433347,2.3765060165729386,0.0,0.0,0.0,2.446630340286536,0.0,0.0,0.0,0.0,0.0,0.0,0.0,0.0,0.0,0.0,0.0,0.0,0.0,0.0,
