energies(eV),real_xx,real_yy,real_zz,real_xy,real_yz,real_xz,real_ave,imag_xx,imag_yy,imag_zz,imag_xy,imag_yz,imag_xz,imag_ave,absorption_xx,absorption_yy,absorption_zz,absorption_xy,absorption_yz,absorption_xz,absorption_ave,band_gap
0.0,4.096717802144974,4.052201106303471,4.041011187076808,0.0,0.0,0.0,4.063310031841751,0.0,0.0,0.0,0.0,0.0,0.0,0.0,0.0,0.0,0.0,0.0,0.0,0.0,0.0,3.1837999999999997
0.0182,4.096745407447537,4.052226238308863,4.041036856487814,0.0,0.0,0.0,4.063336167414739,0.0,0.0,0.0,0.0,0.0,0.0,0.0,0.0,0.0,0.0,0.0,0.0,0.0,0.0,
0.0365,4.09682883525012,4.052302190972226,4.041114433430163,0.0,0.0,0.0,4.063415153217503,0.0,0.0,0.0,0.0,0.0,0.0,0.0,0.0,0.0,0.0,0.0,0.0,0.0,0.0,
0.0547,4.096967186746587,4.052428144753625,4.041243081312416,0.0,0.0,0.0,4.0635461376042095,0.0,0.0,0.0,0.0,0.0,0.0,0.0,0.0,0.0,0.0,0.0,0.0,0.0,0.0,
0.0729,4.097160787667066,4.0526043940950185,4.041423101661042,0.0,0.0,0.0,4.063729427807709,0.0,0.0,0.0,0.0,0.0,0.0,0.0,0.0,0.0,0.0,0.0,0.0,0.0,0.0,
0.0912,4.097411188403576,4.052832347439953,4.0416559341760205,0.0,0.0,0.0,4.063966490006517,0.0,0.0,0.0,0.0,0.0,0.0,0.0,0.0,0.0,0.0,0.0,0.0,0.0,0.0,
0.1094,4.097715691309091,4.053109545165342,4.0419390680149085,0.0,0.0,0.0,4.064254768163114,0.0,0.0,0.0,0.0,0.0,0.0,0.0,0.0,0.0,0.0,0.0,0.0,0.0,0.0,
0.1276,4.098075560255282,4.053437133214016,4.042273675382295,0.0,0.0,0.0,4.064595456283865,0.0,0.0,0.0,0.0,0.0,0.0,0.0,0.0,0.0,0.0,0.0,0.0,0.0,0.0,
0.1459,4.098493286396257,4.0538173736552565,4.042662068924212,0.0,0.0,0.0,4.064990909658575,0.0,0.0,0.0,0.0,0.0,0.0,0.0,0.0,0.0,0.0,0.0,0.0,0.0,0.0,
0.1641,4.098964369552908,4.054246163768825,4.043100060338563,0.0,0.0,0.0,4.0654368645534325,0.0,0.0,0.0,0.0,0.0,0.0,0.0,0.0,0.0,0.0,0.0,0.0,0.0,0.0,
0.1824,4.099494060922064,4.054728276014186,4.0435925272281015,0.0,0.0,0.0,4.065938288054784,0.0,0.0,0.0,0.0,0.0,0.0,0.0,0.0,0.0,0.0,0.0,0.0,0.0,0.0,
0.2006,4.100076654260764,4.055258508596495,4.044134159113776,0.0,0.0,0.0,4.066489773990345,0.0,0.0,0.0,0.0,0.0,0.0,0.0,0.0,0.0,0.0,0.0,0.0,0.0,0.0,
0.2188,4.100714982516257,4.0558394311114725,4.044727584107873,0.0,0.0,0.0,4.067093999245201,0.0,0.0,0.0,0.0,0.0,0.0,0.0,0.0,0.0,0.0,0.0,0.0,0.0,0.0,
0.2371,4.101413114208107,4.056474735998951,4.045376577935562,0.0,0.0,0.0,4.067754809380873,0.0,0.0,0.0,0.0,0.0,0.0,0.0,0.0,0.0,0.0,0.0,0.0,0.0,0.0,
0.2553,4.102163528887935,4.057157568839804,4.0460741425141205,0.0,0.0,0.0,4.06846508008062,0.0,0.0,0.0,0.0,0.0,0.0,0.0,0.0,0.0,0.0,0.0,0.0,0.0,0.0,
0.2735,4.102970005854457,4.0578913573309805,4.046823783700971,0.0,0.0,0.0,4.06922838229547,0.0,0.0,0.0,0.0,0.0,0.0,0.0,0.0,0.0,0.0,0.0,0.0,0.0,0.0,
0.2918,4.103837567336713,4.058680657971998,4.0476301613292796,0.0,0.0,0.0,4.070049462212663,0.0,0.0,0.0,0.0,0.0,0.0,0.0,0.0,0.0,0.0,0.0,0.0,0.0,0.0,
0.31,4.1047568683239835,4.059516955271889,4.048484580715907,0.0,0.0,0.0,4.070919468103926,0.0,0.0,0.0,0.0,0.0,0.0,0.0,0.0,0.0,0.0,0.0,0.0,0.0,0.0,
0.3282,4.105732640145837,4.060404539594256,4.049391430351962,0.0,0.0,0.0,4.071842870030685,0.0,0.0,0.0,0.0,0.0,0.0,0.0,0.0,0.0,0.0,0.0,0.0,0.0,0.0,
0.3465,4.106770866246003,4.061348837536878,4.050356260642167,0.0,0.0,0.0,4.072825321475016,0.0,0.0,0.0,0.0,0.0,0.0,0.0,0.0,0.0,0.0,0.0,0.0,0.0,0.0,
0.3647,4.107860364130107,4.062339662004618,4.051368669083354,0.0,0.0,0.0,4.07385623173936,0.0,0.0,0.0,0.0,0.0,0.0,0.0,0.0,0.0,0.0,0.0,0.0,0.0,0.0,
0.3829,4.109006824292573,4.06338217175908,4.052433932938586,0.0,0.0,0.0,4.074940976330079,0.0,0.0,0.0,0.0,0.0,0.0,0.0,0.0,0.0,0.0,0.0,0.0,0.0,0.0,
0.4012,4.110217200391416,4.064482670729051,4.053558500929234,0.0,0.0,0.0,4.076086124016567,0.0,0.0,0.0,0.0,0.0,0.0,0.0,0.0,0.0,0.0,0.0,0.0,0.0,0.0,
0.4194,4.111478456911035,4.065629287560424,4.054730249247562,0.0,0.0,0.0,4.077279331239674,0.0,0.0,0.0,0.0,0.0,0.0,0.0,0.0,0.0,0.0,0.0,0.0,0.0,0.0,
0.4377,4.1128046575871,4.066834787348389,4.055962230387385,0.0,0.0,0.0,4.078533891774291,0.0,0.0,0.0,0.0,0.0,0.0,0.0,0.0,0.0,0.0,0.0,0.0,0.0,0.0,
0.4559,4.114181520462468,4.0680861667635835,4.057241163311718,0.0,0.0,0.0,4.0798362835125905,0.0,0.0,0.0,0.0,0.0,0.0,0.0,0.0,0.0,0.0,0.0,0.0,0.0,0.0,
0.4741,4.115616355148191,4.069390048415448,4.058573824242442,0.0,0.0,0.0,4.0811934092686935,0.0,0.0,0.0,0.0,0.0,0.0,0.0,0.0,0.0,0.0,0.0,0.0,0.0,0.0,
0.4924,4.117117757122994,4.0707542184088625,4.059968180454067,0.0,0.0,0.0,4.082613385328641,0.0,0.0,0.0,0.0,0.0,0.0,0.0,0.0,0.0,0.0,0.0,0.0,0.0,0.0,
0.5106,4.1186695595105265,4.072163963209654,4.061409201944341,0.0,0.0,0.0,4.084080908221506,0.0,0.0,0.0,0.0,0.0,0.0,0.0,0.0,0.0,0.0,0.0,0.0,0.0,0.0,
0.5288,4.120280057502162,4.0736267950069545,4.062904576408153,0.0,0.0,0.0,4.08560380963909,0.0,0.0,0.0,0.0,0.0,0.0,0.0,0.0,0.0,0.0,0.0,0.0,0.0,0.0,
0.5471,4.121958848440185,4.0751514026078715,4.064463196630941,0.0,0.0,0.0,4.087191149226332,0.0,0.0,0.0,0.0,0.0,0.0,0.0,0.0,0.0,0.0,0.0,0.0,0.0,0.0,
0.5653,4.123687857675416,4.076721343712178,4.066068263846141,0.0,0.0,0.0,4.088825821744578,0.0,0.0,0.0,0.0,0.0,0.0,0.0,0.0,0.0,0.0,0.0,0.0,0.0,0.0,
0.5835,4.125476378784357,4.078345030332992,4.067728388210222,0.0,0.0,0.0,4.090516599109191,0.0,0.0,0.0,0.0,0.0,0.0,0.0,0.0,0.0,0.0,0.0,0.0,0.0,0.0,
0.6018,4.127335025863475,4.0800320658827385,4.069453400791048,0.0,0.0,0.0,4.09227349751242,0.0,0.0,0.0,0.0,0.0,0.0,0.0,0.0,0.0,0.0,0.0,0.0,0.0,0.0,
0.62,4.1292437907332875,4.081764258402941,4.071224711761651,0.0,0.0,0.0,4.09407758696596,0.0,0.0,0.0,0.0,0.0,0.0,0.0,0.0,0.0,0.0,0.0,0.0,0.0,0.0,
0.6382,4.131212979832076,4.083550931294035,4.073051866150536,0.0,0.0,0.0,4.095938592425548,0.0,0.0,0.0,0.0,0.0,0.0,0.0,0.0,0.0,0.0,0.0,0.0,0.0,0.0,
0.6565,4.133254240656401,4.085402615854948,4.074945647568427,0.0,0.0,0.0,4.097867501359925,0.0,0.0,0.0,0.0,0.0,0.0,0.0,0.0,0.0,0.0,0.0,0.0,0.0,0.0,
0.6747,4.135345602726991,4.087299347167889,4.076885650247181,0.0,0.0,0.0,4.099843533380687,0.0,0.0,0.0,0.0,0.0,0.0,0.0,0.0,0.0,0.0,0.0,0.0,0.0,0.0,
0.6929,4.137498401562696,4.089251372952179,4.078882367975718,0.0,0.0,0.0,4.101877380830198,0.0,0.0,0.0,0.0,0.0,0.0,0.0,0.0,0.0,0.0,0.0,0.0,0.0,0.0,
0.7112,4.139725336542371,4.091270167109325,4.080947552720353,0.0,0.0,0.0,4.103981018790683,0.0,0.0,0.0,0.0,0.0,0.0,0.0,0.0,0.0,0.0,0.0,0.0,0.0,0.0,
0.7294,4.142002442983297,4.093333965964309,4.083058955208848,0.0,0.0,0.0,4.106131788052152,0.0,0.0,0.0,0.0,0.0,0.0,0.0,0.0,0.0,0.0,0.0,0.0,0.0,0.0,
0.7477,4.144355132324867,4.095465760007748,4.085240111375059,0.0,0.0,0.0,4.108353667902558,0.0,0.0,0.0,0.0,0.0,0.0,0.0,0.0,0.0,0.0,0.0,0.0,0.0,0.0,
0.7659,4.146758089841251,4.0976425696673875,4.087467525111759,0.0,0.0,0.0,4.110622728206799,0.0,0.0,0.0,0.0,0.0,0.0,0.0,0.0,0.0,0.0,0.0,0.0,0.0,0.0,
0.7841,4.149224407868603,4.099876216409257,4.089753307153794,0.0,0.0,0.0,4.112951310477218,0.0,0.0,0.0,0.0,0.0,0.0,0.0,0.0,0.0,0.0,0.0,0.0,0.0,0.0,
0.8024,4.151768585948638,4.102179782542251,4.092110863598506,0.0,0.0,0.0,4.115353077363132,0.0,0.0,0.0,0.0,0.0,0.0,0.0,0.0,0.0,0.0,0.0,0.0,0.0,0.0,
0.8206,4.154363254609314,4.104528440899665,4.0945148026085025,0.0,0.0,0.0,4.11780216603916,0.0,0.0,0.0,0.0,0.0,0.0,0.0,0.0,0.0,0.0,0.0,0.0,0.0,0.0,
0.8388,4.1570225876886715,4.106934978896188,4.0969782284547165,0.0,0.0,0.0,4.120311931679859,0.0,0.0,0.0,0.0,0.0,0.0,0.0,0.0,0.0,0.0,0.0,0.0,0.0,0.0,
0.8571,4.159762195628245,4.109413468225879,4.0995155659421005,0.0,0.0,0.0,4.122897076598742,0.0,0.0,0.0,0.0,0.0,0.0,0.0,0.0,0.0,0.0,0.0,0.0,0.0,0.0,
0.8753,4.162552613227085,4.111937201155632,4.10209949220879,0.0,0.0,0.0,4.125529768863836,0.0,0.0,0.0,0.0,0.0,0.0,0.0,0.0,0.0,0.0,0.0,0.0,0.0,0.0,
0.8935,4.165409119199852,4.114519949530639,4.104744124972298,0.0,0.0,0.0,4.128224397900929,0.0,0.0,0.0,0.0,0.0,0.0,0.0,0.0,0.0,0.0,0.0,0.0,0.0,0.0,
0.9118,4.168348460985159,4.117176795018899,4.107464929944057,0.0,0.0,0.0,4.130996728649372,0.0,0.0,0.0,0.0,0.0,0.0,0.0,0.0,0.0,0.0,0.0,0.0,0.0,0.0,
0.93,4.171339032947332,4.119879113431086,4.11023261478907,0.0,0.0,0.0,4.133816920389163,0.0,0.0,0.0,0.0,0.0,0.0,0.0,0.0,0.0,0.0,0.0,0.0,0.0,0.0,
0.9482,4.174397244265425,4.122641681219232,4.113062332429547,0.0,0.0,0.0,4.136700419304734,0.0,0.0,0.0,0.0,0.0,0.0,0.0,0.0,0.0,0.0,0.0,0.0,0.0,0.0,
0.9665,4.177541007848264,4.1254806124207075,4.115970613656729,0.0,0.0,0.0,4.139664077975233,0.0,0.0,0.0,0.0,0.0,0.0,0.0,0.0,0.0,0.0,0.0,0.0,0.0,0.0,
0.9847,4.180736528989609,4.128365327436861,4.118926154895996,0.0,0.0,0.0,4.142676003774155,0.0,0.0,0.0,0.0,0.0,0.0,0.0,0.0,0.0,0.0,0.0,0.0,0.0,0.0,
1.003,4.184019506575874,4.131327988748584,4.12196193222962,0.0,0.0,0.0,4.145769809184693,0.0,0.0,0.0,0.0,0.0,0.0,0.0,0.0,0.0,0.0,0.0,0.0,0.0,0.0,
1.0212,4.187354656085656,4.134336688703337,4.125045275074781,0.0,0.0,0.0,4.148912206621258,0.0,0.0,0.0,0.0,0.0,0.0,0.0,0.0,0.0,0.0,0.0,0.0,0.0,0.0,
1.0394,4.190760334855144,4.137407928484325,4.128193116075931,0.0,0.0,0.0,4.152120459805133,0.0,0.0,0.0,0.0,0.0,0.0,0.0,0.0,0.0,0.0,0.0,0.0,0.0,0.0,
1.0577,4.194256469230363,4.1405595984282915,4.131423821320157,0.0,0.0,0.0,4.15541329632627,0.0,0.0,0.0,0.0,0.0,0.0,0.0,0.0,0.0,0.0,0.0,0.0,0.0,0.0,
1.0759,4.197805495160292,4.143757763270115,4.134702631468539,0.0,0.0,0.0,4.1587552966329815,0.0,0.0,0.0,0.0,0.0,0.0,0.0,0.0,0.0,0.0,0.0,0.0,0.0,0.0,
1.0941,4.201426980634409,4.1470199916608905,4.1380475823055125,0.0,0.0,0.0,4.162164851533604,0.0,0.0,0.0,0.0,0.0,0.0,0.0,0.0,0.0,0.0,0.0,0.0,0.0,0.0,
1.1124,4.205142106294806,4.15036527573568,4.141478180112825,0.0,0.0,0.0,4.16566185404777,0.0,0.0,0.0,0.0,0.0,0.0,0.0,0.0,0.0,0.0,0.0,0.0,0.0,0.0,
1.1306,4.208910968257511,4.153757604657606,4.144957525238043,0.0,0.0,0.0,4.169208699384387,0.0,0.0,0.0,0.0,0.0,0.0,0.0,0.0,0.0,0.0,0.0,0.0,0.0,0.0,
1.1488,4.212754380195759,4.1572156418361494,4.148504786166629,0.0,0.0,0.0,4.172824936066179,0.0,0.0,0.0,0.0,0.0,0.0,0.0,0.0,0.0,0.0,0.0,0.0,0.0,0.0,
1.1671,4.216694815734911,4.160759511243448,4.152140641953792,0.0,0.0,0.0,4.1765316563107175,0.0,0.0,0.0,0.0,0.0,0.0,0.0,0.0,0.0,0.0,0.0,0.0,0.0,0.0,
1.1853,4.220689965958078,4.164351074770151,4.155825996992575,0.0,0.0,0.0,4.180289012573602,0.0,0.0,0.0,0.0,0.0,0.0,0.0,0.0,0.0,0.0,0.0,0.0,0.0,0.0,
1.2035,4.224761928275562,4.168010120115529,4.159581184503778,0.0,0.0,0.0,4.18411774429829,0.0,0.0,0.0,0.0,0.0,0.0,0.0,0.0,0.0,0.0,0.0,0.0,0.0,0.0,
1.2218,4.228934511276098,4.1717579355514305,4.163428091576568,0.0,0.0,0.0,4.1880401794680315,0.0,0.0,0.0,0.0,0.0,0.0,0.0,0.0,0.0,0.0,0.0,0.0,0.0,0.0,
1.24,4.23316293057951,4.175554200022173,4.167325366663331,0.0,0.0,0.0,4.192014165755005,0.0,0.0,0.0,0.0,0.0,0.0,0.0,0.0,0.0,0.0,0.0,0.0,0.0,0.0,
1.2583,4.237494497720782,4.179441290236335,4.171316551009024,0.0,0.0,0.0,4.196084112988713,0.0,0.0,0.0,0.0,0.0,0.0,0.0,0.0,0.0,0.0,0.0,0.0,0.0,0.0,
1.2765,4.241882734571299,4.183377395461072,4.175358752082968,0.0,0.0,0.0,4.200206294038446,0.0,0.0,0.0,0.0,0.0,0.0,0.0,0.0,0.0,0.0,0.0,0.0,0.0,0.0,
1.2947,4.24635197247971,4.187384250160397,4.1794743235765965,0.0,0.0,0.0,4.204403515405567,0.0,0.0,0.0,0.0,0.0,0.0,0.0,0.0,0.0,0.0,0.0,0.0,0.0,0.0,
1.313,4.250928348948285,4.191485163156843,4.1836872530582525,0.0,0.0,0.0,4.2087002550544605,0.0,0.0,0.0,0.0,0.0,0.0,0.0,0.0,0.0,0.0,0.0,0.0,0.0,0.0,
1.3312,4.255562780305571,4.195636038407233,4.1879522815792924,0.0,0.0,0.0,4.213050366764032,0.0,0.0,0.0,0.0,0.0,0.0,0.0,0.0,0.0,0.0,0.0,0.0,0.0,0.0,
1.3494,4.260280999819548,4.199859825651828,4.192293026554697,0.0,0.0,0.0,4.217477950675358,0.0,0.0,0.0,0.0,0.0,0.0,0.0,0.0,0.0,0.0,0.0,0.0,0.0,0.0,
1.3677,4.265110610185503,4.204181097871233,4.196734792390587,0.0,0.0,0.0,4.222008833482441,0.0,0.0,0.0,0.0,0.0,0.0,0.0,0.0,0.0,0.0,0.0,0.0,0.0,0.0,
1.3859,4.269999835888134,4.208553406118915,4.201229880641778,0.0,0.0,0.0,4.226594374216275,0.0,0.0,0.0,0.0,0.0,0.0,0.0,0.0,0.0,0.0,0.0,0.0,0.0,0.0,
1.4041,4.2749758635190656,4.213000954655012,4.2058032152745675,0.0,0.0,0.0,4.231260011149549,0.0,0.0,0.0,0.0,0.0,0.0,0.0,0.0,0.0,0.0,0.0,0.0,0.0,0.0,
1.4224,4.280067817591835,4.217549623654442,4.2104814645783035,0.0,0.0,0.0,4.2360329686081934,0.0,0.0,0.0,0.0,0.0,0.0,0.0,0.0,0.0,0.0,0.0,0.0,0.0,0.0,
1.4406,4.285221137648807,4.2221505386273055,4.2152144119649595,0.0,0.0,0.0,4.24086202941369,0.0,0.0,0.0,0.0,0.0,0.0,0.0,0.0,0.0,0.0,0.0,0.0,0.0,0.0,
1.4588,4.290464519423389,4.226829200747805,4.22002833430642,0.0,0.0,0.0,4.245774018159205,0.0,0.0,0.0,0.0,0.0,0.0,0.0,0.0,0.0,0.0,0.0,0.0,0.0,0.0,
1.4771,4.295828670743888,4.231612843871931,4.22495131469398,0.0,0.0,0.0,4.250797609769934,0.0,0.0,0.0,0.0,0.0,0.0,0.0,0.0,0.0,0.0,0.0,0.0,0.0,0.0,
1.4953,4.301256145771848,4.236450089911918,4.229930533762859,0.0,0.0,0.0,4.255878923148876,0.0,0.0,0.0,0.0,0.0,0.0,0.0,0.0,0.0,0.0,0.0,0.0,0.0,0.0,
1.5135,4.306777210028532,4.24136778276603,4.234993671480677,0.0,0.0,0.0,4.2610462214250795,0.0,0.0,0.0,0.0,0.0,0.0,0.0,0.0,0.0,0.0,0.0,0.0,0.0,0.0,
1.5318,4.312424221497084,4.246394560208643,4.240170280884393,0.0,0.0,0.0,4.26632968753004,0.0,0.0,0.0,0.0,0.0,0.0,0.0,0.0,0.0,0.0,0.0,0.0,0.0,0.0,
1.55,4.318136740575101,4.2514764566786045,4.2454048487445455,0.0,0.0,0.0,4.271672681999417,0.0,0.0,0.0,0.0,0.0,0.0,0.0,0.0,0.0,0.0,0.0,0.0,0.0,0.0,
1.5683,4.3239788627326625,4.256670320947844,4.250755995041024,0.0,0.0,0.0,4.277135059573843,0.0,0.0,0.0,0.0,0.0,0.0,0.0,0.0,0.0,0.0,0.0,0.0,0.0,0.0,
1.5865,4.329888086177946,4.261920411157432,4.256166354898901,0.0,0.0,0.0,4.282658284078093,0.0,0.0,0.0,0.0,0.0,0.0,0.0,0.0,0.0,0.0,0.0,0.0,0.0,0.0,
1.6047,4.3358974431926836,4.267255922003268,4.2616660707875855,0.0,0.0,0.0,4.288273145327845,0.0,0.0,0.0,0.0,0.0,0.0,0.0,0.0,0.0,0.0,0.0,0.0,0.0,0.0,
1.623,4.342042207902207,4.272707954967871,4.267287281927803,0.0,0.0,0.0,4.294012481599293,0.0,0.0,0.0,0.0,0.0,0.0,0.0,0.0,0.0,0.0,0.0,0.0,0.0,0.0,
1.6412,4.348256684514185,4.278218026685723,4.272969761928016,0.0,0.0,0.0,4.299814824375974,0.0,0.0,0.0,0.0,0.0,0.0,0.0,0.0,0.0,0.0,0.0,0.0,0.0,0.0,
1.6594,4.354575664258906,4.283816815860208,4.278745211791563,0.0,0.0,0.0,4.305712563970226,0.0,0.0,0.0,0.0,0.0,0.0,0.0,0.0,0.0,0.0,0.0,0.0,0.0,0.0,
1.6777,4.3610362801546545,4.289536982942629,4.284647411620442,0.0,0.0,0.0,4.3117402249059085,0.0,0.0,0.0,0.0,0.0,0.0,0.0,0.0,0.0,0.0,0.0,0.0,0.0,0.0,
1.6959,4.3675695093225375,4.295317201319797,4.290613162512921,0.0,0.0,0.0,4.317833291051752,0.0,0.0,0.0,0.0,0.0,0.0,0.0,0.0,0.0,0.0,0.0,0.0,0.0,0.0,
1.7141,4.374211984844676,4.301189694895373,4.296675791624022,0.0,0.0,0.0,4.324025823788023,0.0,0.0,0.0,0.0,0.0,0.0,0.0,0.0,0.0,0.0,0.0,0.0,0.0,0.0,
1.7324,4.381002790268807,4.307188750323101,4.302870794397799,0.0,0.0,0.0,4.330354111663236,0.0,0.0,0.0,0.0,0.0,0.0,0.0,0.0,0.0,0.0,0.0,0.0,0.0,0.0,
1.7506,4.387869431716048,4.313250088270713,4.309131879772936,0.0,0.0,0.0,4.336750466586566,0.0,0.0,0.0,0.0,0.0,0.0,0.0,0.0,0.0,0.0,0.0,0.0,0.0,0.0,
1.7688,4.394850474689757,4.319407544211958,4.315494074590613,0.0,0.0,0.0,4.343250697830776,0.0,0.0,0.0,0.0,0.0,0.0,0.0,0.0,0.0,0.0,0.0,0.0,0.0,0.0,
1.7871,4.40198705349554,4.325697103989633,4.321994670693883,0.0,0.0,0.0,4.349892942726352,0.0,0.0,0.0,0.0,0.0,0.0,0.0,0.0,0.0,0.0,0.0,0.0,0.0,0.0,
1.8053,4.409203047498473,4.3320514176876905,4.328564155788133,0.0,0.0,0.0,4.356606206991432,0.0,0.0,0.0,0.0,0.0,0.0,0.0,0.0,0.0,0.0,0.0,0.0,0.0,0.0,
1.8236,4.416579696607114,4.338541748852823,4.335276308226713,0.0,0.0,0.0,4.3634659178955495,0.0,0.0,0.0,0.0,0.0,0.0,0.0,0.0,0.0,0.0,0.0,0.0,0.0,0.0,
1.8418,4.424038367126874,4.345098628593578,4.342059389415929,0.0,0.0,0.0,4.37039879504546,0.0,0.0,0.0,0.0,0.0,0.0,0.0,0.0,0.0,0.0,0.0,0.0,0.0,0.0,
1.86,4.431621071522761,4.3517587426838675,4.348951441687614,0.0,0.0,0.0,4.377443751964748,0.0,0.0,0.0,0.0,0.0,0.0,0.0,0.0,0.0,0.0,0.0,0.0,0.0,0.0,
1.8783,4.439372612790594,4.358561089877279,4.355992952498276,0.0,0.0,0.0,4.384642218388716,0.0,0.0,0.0,0.0,0.0,0.0,0.0,0.0,0.0,0.0,0.0,0.0,0.0,0.0,
1.8965,4.447210441293334,4.365432913472897,4.363108723480055,0.0,0.0,0.0,4.391917359415428,0.0,0.0,0.0,0.0,0.0,0.0,0.0,0.0,0.0,0.0,0.0,0.0,0.0,0.0,
1.9147,4.455178788158701,4.37241271745938,4.3703387268686,0.0,0.0,0.0,4.39931007749556,0.0,0.0,0.0,0.0,0.0,0.0,0.0,0.0,0.0,0.0,0.0,0.0,0.0,0.0,
1.933,4.463324824769847,4.379541427509322,4.377725500884395,0.0,0.0,0.0,4.406863917721188,0.0,0.0,0.0,0.0,0.0,0.0,0.0,0.0,0.0,0.0,0.0,0.0,0.0,0.0,
1.9512,4.471561892227648,4.386742855002147,4.3851902286805124,0.0,0.0,0.0,4.414498325303436,0.0,0.0,0.0,0.0,0.0,0.0,0.0,0.0,0.0,0.0,0.0,0.0,0.0,0.0,
1.9694,4.479936567715438,4.39405741267725,4.39277491384523,0.0,0.0,0.0,4.422256298079305,0.0,0.0,0.0,0.0,0.0,0.0,0.0,0.0,0.0,0.0,0.0,0.0,0.0,0.0,
1.9877,4.488498532794464,4.401528053144473,4.400524257751446,0.0,0.0,0.0,4.430183614563461,0.0,0.0,0.0,0.0,0.0,0.0,0.0,0.0,0.0,0.0,0.0,0.0,0.0,0.0,
2.0059,4.497156809204252,4.409075000190885,4.408355653244213,0.0,0.0,0.0,4.438195820879783,0.0,0.0,0.0,0.0,0.0,0.0,0.0,0.0,0.0,0.0,0.0,0.0,0.0,0.0,
2.0241,4.505960460789881,4.416740674270889,4.416313246551519,0.0,0.0,0.0,4.446338127204096,0.0,0.0,0.0,0.0,0.0,0.0,0.0,0.0,0.0,0.0,0.0,0.0,0.0,0.0,
2.0424,4.514961836092974,4.424570164435064,4.424444025700058,0.0,0.0,0.0,4.454658675409365,0.0,0.0,0.0,0.0,0.0,0.0,0.0,0.0,0.0,0.0,0.0,0.0,0.0,0.0,
2.0606,4.524065408842137,4.432479938523522,4.432661406957459,0.0,0.0,0.0,4.463068918107706,0.0,0.0,0.0,0.0,0.0,0.0,0.0,0.0,0.0,0.0,0.0,0.0,0.0,0.0,
2.0788,4.533322885191143,4.440514533128487,4.441011801577683,0.0,0.0,0.0,4.471616406632438,0.0,0.0,0.0,0.0,0.0,0.0,0.0,0.0,0.0,0.0,0.0,0.0,0.0,0.0,
2.0971,4.5427894546059004,4.44872129392196,4.4495446203166615,0.0,0.0,0.0,4.480351789614841,0.0,0.0,0.0,0.0,0.0,0.0,0.0,0.0,0.0,0.0,0.0,0.0,0.0,0.0,
2.1153,4.552364793600527,4.457012750500372,4.4581691006709185,0.0,0.0,0.0,4.4891822149239395,0.0,0.0,0.0,0.0,0.0,0.0,0.0,0.0,0.0,0.0,0.0,0.0,0.0,0.0,
2.1336,4.562157389622731,4.465482321941682,4.4669826058396875,0.0,0.0,0.0,4.4982074391347,0.0,0.0,0.0,0.0,0.0,0.0,0.0,0.0,0.0,0.0,0.0,0.0,0.0,0.0,
2.1518,4.572063568310491,4.47403980100815,4.4758914638224425,0.0,0.0,0.0,4.507331611047028,0.0,0.0,0.0,0.0,0.0,0.0,0.0,0.0,0.0,0.0,0.0,0.0,0.0,0.0,
2.17,4.582139835312706,4.482733523179746,4.48494616940759,0.0,0.0,0.0,4.516606509300014,0.0,0.0,0.0,0.0,0.0,0.0,0.0,0.0,0.0,0.0,0.0,0.0,0.0,0.0,
2.1883,4.59244655833205,4.491614897317559,4.494200515053097,0.0,0.0,0.0,4.526087323567569,0.0,0.0,0.0,0.0,0.0,0.0,0.0,0.0,0.0,0.0,0.0,0.0,0.0,0.0,
2.2065,4.602874798290735,4.5005894390635035,4.503556272810158,0.0,0.0,0.0,4.535673503388132,0.0,0.0,0.0,0.0,0.0,0.0,0.0,0.0,0.0,0.0,0.0,0.0,0.0,0.0,
2.2247,4.613484209790142,4.509707945344496,4.5130665953690965,0.0,0.0,0.0,4.545419583501245,0.0,0.0,0.0,0.0,0.0,0.0,0.0,0.0,0.0,0.0,0.0,0.0,0.0,0.0,
2.243,4.624338570246526,4.519024465851608,4.522788136517601,0.0,0.0,0.0,4.555383724205245,0.0,0.0,0.0,0.0,0.0,0.0,0.0,0.0,0.0,0.0,0.0,0.0,0.0,0.0,
2.2612,4.635323359893348,4.528440012178523,4.532617858877224,0.0,0.0,0.0,4.565460410316365,0.0,0.0,0.0,0.0,0.0,0.0,0.0,0.0,0.0,0.0,0.0,0.0,0.0,0.0,
2.2794,4.646501615296348,4.538007997880693,4.542611751070799,0.0,0.0,0.0,4.575707121415947,0.0,0.0,0.0,0.0,0.0,0.0,0.0,0.0,0.0,0.0,0.0,0.0,0.0,0.0,
2.2977,4.657940786448343,4.547785286847418,4.5528295278310535,0.0,0.0,0.0,4.586185200375605,0.0,0.0,0.0,0.0,0.0,0.0,0.0,0.0,0.0,0.0,0.0,0.0,0.0,0.0,
2.3159,4.669520426447633,4.557668139590634,4.5631630656303885,0.0,0.0,0.0,4.596783877222886,0.0,0.0,0.0,0.0,0.0,0.0,0.0,0.0,0.0,0.0,0.0,0.0,0.0,0.0,
2.3341,4.681307216629757,4.5677127587709725,4.573671387922389,0.0,0.0,0.0,4.607563787774374,0.0,0.0,0.0,0.0,0.0,0.0,0.0,0.0,0.0,0.0,0.0,0.0,0.0,0.0,
2.3524,4.6933725769494625,4.577979015665319,4.584417494009314,0.0,0.0,0.0,4.618589695541365,0.0,0.0,0.0,0.0,0.0,0.0,0.0,0.0,0.0,0.0,0.0,0.0,0.0,0.0,
2.3706,4.705589752866878,4.5883581503441615,4.595287871607566,0.0,0.0,0.0,4.629745258272869,0.0,0.0,0.0,0.0,0.0,0.0,0.0,0.0,0.0,0.0,0.0,0.0,0.0,0.0,
2.3889,4.718098342542341,4.598967802676507,4.606406077592294,0.0,0.0,0.0,4.641157407603714,0.0,0.0,0.0,0.0,0.0,0.0,0.0,0.0,0.0,0.0,0.0,0.0,0.0,0.0,
2.4071,4.7307671521822545,4.60969570070619,4.61765482140879,0.0,0.0,0.0,4.6527058914324115,0.0,0.0,0.0,0.0,0.0,0.0,0.0,0.0,0.0,0.0,0.0,0.0,0.0,0.0,
