energies(eV),real_xx,real_yy,real_zz,real_xy,real_yz,real_xz,real_ave,imag_xx,imag_yy,imag_zz,imag_xy,imag_yz,imag_xz,imag_ave,absorption_xx,absorption_yy,absorption_zz,absorption_xy,absorption_yz,absorption_xz,absorption_ave,band_gap
0.0,3.9731007278262265,3.9731007278262265,4.085373699659032,0.0,0.0,0.0,4.010525051770495,0.0,0.0,0.0,0.0,0.0,0.0,0.0,0.0,0.0,0.0,0.0,0.0,0.0,0.0,3.6071999999999997
0.0167,3.9731126128092518,3.9731126128092518,4.085386475596225,0.0,0.0,0.0,4.010537233738243,0.0,0.0,0.0,0.0,0.0,0.0,0.0,0.0,0.0,0.0,0.0,0.0,0.0,0.0,
0.0333,3.9731479844444593,3.9731479844444593,4.0854244988834125,0.0,0.0,0.0,4.010573489257443,0.0,0.0,0.0,0.0,0.0,0.0,0.0,0.0,0.0,0.0,0.0,0.0,0.0,0.0,
0.05,3.9732072717066647,3.9732072717066647,4.085488230738484,0.0,0.0,0.0,4.0106342580506045,0.0,0.0,0.0,0.0,0.0,0.0,0.0,0.0,0.0,0.0,0.0,0.0,0.0,0.0,
0.0667,3.97329033739254,3.97329033739254,4.08557752381453,0.0,0.0,0.0,4.010719399533204,0.0,0.0,0.0,0.0,0.0,0.0,0.0,0.0,0.0,0.0,0.0,0.0,0.0,0.0,
0.0833,3.973396477470853,3.973396477470853,4.0856916214948455,0.0,0.0,0.0,4.010828192145517,0.0,0.0,0.0,0.0,0.0,0.0,0.0,0.0,0.0,0.0,0.0,0.0,0.0,0.0,
0.1,3.9735269791757126,3.9735269791757126,4.085831907775349,0.0,0.0,0.0,4.010961955375591,0.0,0.0,0.0,0.0,0.0,0.0,0.0,0.0,0.0,0.0,0.0,0.0,0.0,0.0,
0.1167,3.9736812846962817,3.9736812846962817,4.085997783338394,0.0,0.0,0.0,4.0111201175769855,0.0,0.0,0.0,0.0,0.0,0.0,0.0,0.0,0.0,0.0,0.0,0.0,0.0,0.0,
0.1333,3.973858268792862,3.973858268792862,4.086188038932466,0.0,0.0,0.0,4.011301525506063,0.0,0.0,0.0,0.0,0.0,0.0,0.0,0.0,0.0,0.0,0.0,0.0,0.0,0.0,
0.15,3.974060077888571,3.974060077888571,4.08640498235936,0.0,0.0,0.0,4.011508379378834,0.0,0.0,0.0,0.0,0.0,0.0,0.0,0.0,0.0,0.0,0.0,0.0,0.0,0.0,
0.1667,3.97428573318406,3.97428573318406,4.086647561910127,0.0,0.0,0.0,4.011739676092749,0.0,0.0,0.0,0.0,0.0,0.0,0.0,0.0,0.0,0.0,0.0,0.0,0.0,0.0,
0.1833,3.974533687448171,3.974533687448171,4.086914114833677,0.0,0.0,0.0,4.011993829910007,0.0,0.0,0.0,0.0,0.0,0.0,0.0,0.0,0.0,0.0,0.0,0.0,0.0,0.0,
0.2,3.9748069478447765,3.9748069478447765,4.087207874453433,0.0,0.0,0.0,4.012273923380995,0.0,0.0,0.0,0.0,0.0,0.0,0.0,0.0,0.0,0.0,0.0,0.0,0.0,0.0,
0.2167,3.9751041139137127,3.9751041139137127,4.087527335926859,0.0,0.0,0.0,4.012578521251428,0.0,0.0,0.0,0.0,0.0,0.0,0.0,0.0,0.0,0.0,0.0,0.0,0.0,0.0,
0.2333,3.9754232153554643,3.9754232153554643,4.0878703818139766,0.0,0.0,0.0,4.012905604174969,0.0,0.0,0.0,0.0,0.0,0.0,0.0,0.0,0.0,0.0,0.0,0.0,0.0,0.0,
0.25,3.9757681222524988,3.9757681222524988,4.088241173367723,0.0,0.0,0.0,4.0132591392909065,0.0,0.0,0.0,0.0,0.0,0.0,0.0,0.0,0.0,0.0,0.0,0.0,0.0,0.0,
0.2667,3.9761370115184445,3.9761370115184445,4.088637751546109,0.0,0.0,0.0,4.013637258194333,0.0,0.0,0.0,0.0,0.0,0.0,0.0,0.0,0.0,0.0,0.0,0.0,0.0,0.0,
0.2834,3.976529912636332,3.976529912636332,4.089060148937541,0.0,0.0,0.0,4.0140399914034015,0.0,0.0,0.0,0.0,0.0,0.0,0.0,0.0,0.0,0.0,0.0,0.0,0.0,0.0,
0.3,3.97694428874452,3.97694428874452,4.0895056391295554,0.0,0.0,0.0,4.0144647388728645,0.0,0.0,0.0,0.0,0.0,0.0,0.0,0.0,0.0,0.0,0.0,0.0,0.0,0.0,
0.3167,3.9773851655415045,3.9773851655415045,4.089979626189637,0.0,0.0,0.0,4.0149166524242155,0.0,0.0,0.0,0.0,0.0,0.0,0.0,0.0,0.0,0.0,0.0,0.0,0.0,0.0,
0.3334,3.977850154144142,3.977850154144142,4.090479542950522,0.0,0.0,0.0,4.015393283746269,0.0,0.0,0.0,0.0,0.0,0.0,0.0,0.0,0.0,0.0,0.0,0.0,0.0,0.0,
0.35,3.9783362909519737,3.9783362909519737,4.091002204256892,0.0,0.0,0.0,4.015891595386947,0.0,0.0,0.0,0.0,0.0,0.0,0.0,0.0,0.0,0.0,0.0,0.0,0.0,0.0,
0.3667,3.9788494721312184,3.9788494721312184,4.091553950453461,0.0,0.0,0.0,4.016417631571966,0.0,0.0,0.0,0.0,0.0,0.0,0.0,0.0,0.0,0.0,0.0,0.0,0.0,0.0,
0.3834,3.9793868827670735,3.9793868827670735,4.092131756413082,0.0,0.0,0.0,4.016968507315743,0.0,0.0,0.0,0.0,0.0,0.0,0.0,0.0,0.0,0.0,0.0,0.0,0.0,0.0,
0.4,3.979945130443709,3.979945130443709,4.092731975943755,0.0,0.0,0.0,4.017540745610391,0.0,0.0,0.0,0.0,0.0,0.0,0.0,0.0,0.0,0.0,0.0,0.0,0.0,0.0,
0.4167,3.9805309861043994,3.9805309861043994,4.093361890433329,0.0,0.0,0.0,4.018141287547376,0.0,0.0,0.0,0.0,0.0,0.0,0.0,0.0,0.0,0.0,0.0,0.0,0.0,0.0,
0.4334,3.9811412068424077,3.9811412068424077,4.0940180146297624,0.0,0.0,0.0,4.018766809438193,0.0,0.0,0.0,0.0,0.0,0.0,0.0,0.0,0.0,0.0,0.0,0.0,0.0,0.0,
0.45,3.981771969041089,3.981771969041089,4.094696238669142,0.0,0.0,0.0,4.019413392250439,0.0,0.0,0.0,0.0,0.0,0.0,0.0,0.0,0.0,0.0,0.0,0.0,0.0,0.0,
0.4667,3.982430923389148,3.982430923389148,4.095404790477859,0.0,0.0,0.0,4.020088879085385,0.0,0.0,0.0,0.0,0.0,0.0,0.0,0.0,0.0,0.0,0.0,0.0,0.0,0.0,
0.4834,3.983114396720962,3.983114396720962,4.096139722174987,0.0,0.0,0.0,4.020789505205637,0.0,0.0,0.0,0.0,0.0,0.0,0.0,0.0,0.0,0.0,0.0,0.0,0.0,0.0,
0.5,3.9838181315198917,3.9838181315198917,4.096896457242561,0.0,0.0,0.0,4.021510906760781,0.0,0.0,0.0,0.0,0.0,0.0,0.0,0.0,0.0,0.0,0.0,0.0,0.0,0.0,
0.5167,3.9845506638590393,3.9845506638590393,4.097684176383337,0.0,0.0,0.0,4.022261834700472,0.0,0.0,0.0,0.0,0.0,0.0,0.0,0.0,0.0,0.0,0.0,0.0,0.0,0.0,
0.5334,3.9853078877354506,3.9853078877354506,4.098498466239251,0.0,0.0,0.0,4.023038080570051,0.0,0.0,0.0,0.0,0.0,0.0,0.0,0.0,0.0,0.0,0.0,0.0,0.0,0.0,
0.55,3.9860851087132447,3.9860851087132447,4.09933428030196,0.0,0.0,0.0,4.02383483257615,0.0,0.0,0.0,0.0,0.0,0.0,0.0,0.0,0.0,0.0,0.0,0.0,0.0,0.0,
0.5667,3.986891754573385,3.986891754573385,4.100201759046739,0.0,0.0,0.0,4.024661756064503,0.0,0.0,0.0,0.0,0.0,0.0,0.0,0.0,0.0,0.0,0.0,0.0,0.0,0.0,
0.5834,3.987723283579913,3.987723283579913,4.101096020439133,0.0,0.0,0.0,4.025514195866319,0.0,0.0,0.0,0.0,0.0,0.0,0.0,0.0,0.0,0.0,0.0,0.0,0.0,0.0,
0.6,3.9885745610316405,3.9885745610316405,4.102011544282643,0.0,0.0,0.0,4.026386888781975,0.0,0.0,0.0,0.0,0.0,0.0,0.0,0.0,0.0,0.0,0.0,0.0,0.0,0.0,
0.6167,3.989455913440615,3.989455913440615,4.102959438596392,0.0,0.0,0.0,4.0272904218258745,0.0,0.0,0.0,0.0,0.0,0.0,0.0,0.0,0.0,0.0,0.0,0.0,0.0,0.0,
0.6334,3.9903623601184646,3.9903623601184646,4.10393434911235,0.0,0.0,0.0,4.028219689783093,0.0,0.0,0.0,0.0,0.0,0.0,0.0,0.0,0.0,0.0,0.0,0.0,0.0,0.0,
0.65,3.9912883224184483,3.9912883224184483,4.104930277877818,0.0,0.0,0.0,4.029168974238238,0.0,0.0,0.0,0.0,0.0,0.0,0.0,0.0,0.0,0.0,0.0,0.0,0.0,0.0,
0.6667,3.9922450333236874,3.9922450333236874,4.1059593090219755,0.0,0.0,0.0,4.030149791889784,0.0,0.0,0.0,0.0,0.0,0.0,0.0,0.0,0.0,0.0,0.0,0.0,0.0,0.0,
0.6834,3.9932270696433094,3.9932270696433094,4.1070156121197545,0.0,0.0,0.0,4.031156583802125,0.0,0.0,0.0,0.0,0.0,0.0,0.0,0.0,0.0,0.0,0.0,0.0,0.0,0.0,
0.7,3.994228404761891,3.994228404761891,4.108092707014798,0.0,0.0,0.0,4.0321831721795265,0.0,0.0,0.0,0.0,0.0,0.0,0.0,0.0,0.0,0.0,0.0,0.0,0.0,0.0,
0.7167,3.995261186609884,3.995261186609884,4.1092036633289,0.0,0.0,0.0,4.03324201218289,0.0,0.0,0.0,0.0,0.0,0.0,0.0,0.0,0.0,0.0,0.0,0.0,0.0,0.0,
0.7334,3.996319545604763,3.996319545604763,4.110342170181267,0.0,0.0,0.0,4.034327087130264,0.0,0.0,0.0,0.0,0.0,0.0,0.0,0.0,0.0,0.0,0.0,0.0,0.0,0.0,
0.75,3.9973970027873724,3.9973970027873724,4.111501260374208,0.0,0.0,0.0,4.035431755316318,0.0,0.0,0.0,0.0,0.0,0.0,0.0,0.0,0.0,0.0,0.0,0.0,0.0,0.0,
0.7667,3.9985066302691274,3.9985066302691274,4.112694999245312,0.0,0.0,0.0,4.036569419927855,0.0,0.0,0.0,0.0,0.0,0.0,0.0,0.0,0.0,0.0,0.0,0.0,0.0,0.0,
0.7834,3.999642107839052,3.999642107839052,4.1139165907740605,0.0,0.0,0.0,4.0377336021507215,0.0,0.0,0.0,0.0,0.0,0.0,0.0,0.0,0.0,0.0,0.0,0.0,0.0,0.0,
0.8,4.00079649945685,4.00079649945685,4.1151585754823685,0.0,0.0,0.0,4.038917191465356,0.0,0.0,0.0,0.0,0.0,0.0,0.0,0.0,0.0,0.0,0.0,0.0,0.0,0.0,
0.8167,4.0019838114294,4.0019838114294,4.116436025513416,0.0,0.0,0.0,4.040134549457405,0.0,0.0,0.0,0.0,0.0,0.0,0.0,0.0,0.0,0.0,0.0,0.0,0.0,0.0,
0.8334,4.003197268322893,4.003197268322893,4.117741654626972,0.0,0.0,0.0,4.0413787304242526,0.0,0.0,0.0,0.0,0.0,0.0,0.0,0.0,0.0,0.0,0.0,0.0,0.0,0.0,
0.8501,4.004436973616068,4.004436973616068,4.119075577407772,0.0,0.0,0.0,4.042649841546636,0.0,0.0,0.0,0.0,0.0,0.0,0.0,0.0,0.0,0.0,0.0,0.0,0.0,0.0,
0.8667,4.005695373499677,4.005695373499677,4.120429668800582,0.0,0.0,0.0,4.043940138599979,0.0,0.0,0.0,0.0,0.0,0.0,0.0,0.0,0.0,0.0,0.0,0.0,0.0,0.0,
0.8834,4.006987737487169,4.006987737487169,4.121820362847113,0.0,0.0,0.0,4.045265279273817,0.0,0.0,0.0,0.0,0.0,0.0,0.0,0.0,0.0,0.0,0.0,0.0,0.0,0.0,
0.9001,4.008306675086402,4.008306675086402,4.123239710736772,0.0,0.0,0.0,4.046617686969859,0.0,0.0,0.0,0.0,0.0,0.0,0.0,0.0,0.0,0.0,0.0,0.0,0.0,0.0,
0.9167,4.009644162875835,4.009644162875835,4.12467908127021,0.0,0.0,0.0,4.0479891356739595,0.0,0.0,0.0,0.0,0.0,0.0,0.0,0.0,0.0,0.0,0.0,0.0,0.0,0.0,
0.9334,4.01101643112585,4.01101643112585,4.1261559447207645,0.0,0.0,0.0,4.049396268990821,0.0,0.0,0.0,0.0,0.0,0.0,0.0,0.0,0.0,0.0,0.0,0.0,0.0,0.0,
0.9501,4.012415621945179,4.012415621945179,4.127661848589339,0.0,0.0,0.0,4.050831030826566,0.0,0.0,0.0,0.0,0.0,0.0,0.0,0.0,0.0,0.0,0.0,0.0,0.0,0.0,
0.9667,4.013833236268323,4.013833236268323,4.129187648856513,0.0,0.0,0.0,4.0522847071310535,0.0,0.0,0.0,0.0,0.0,0.0,0.0,0.0,0.0,0.0,0.0,0.0,0.0,0.0,
0.9834,4.015286477940846,4.015286477940846,4.130751866234231,0.0,0.0,0.0,4.053774940705307,0.0,0.0,0.0,0.0,0.0,0.0,0.0,0.0,0.0,0.0,0.0,0.0,0.0,0.0,
1.0001,4.01676701580298,4.01676701580298,4.132345538039923,0.0,0.0,0.0,4.055293189881961,0.0,0.0,0.0,0.0,0.0,0.0,0.0,0.0,0.0,0.0,0.0,0.0,0.0,0.0,
1.0167,4.018265868694987,4.018265868694987,4.13395900029326,0.0,0.0,0.0,4.056830245894411,0.0,0.0,0.0,0.0,0.0,0.0,0.0,0.0,0.0,0.0,0.0,0.0,0.0,0.0,
1.0334,4.019801227767474,4.019801227767474,4.1356118393661685,0.0,0.0,0.0,4.058404764967039,0.0,0.0,0.0,0.0,0.0,0.0,0.0,0.0,0.0,0.0,0.0,0.0,0.0,0.0,
1.0501,4.021364282311373,4.021364282311373,4.137294575440716,0.0,0.0,0.0,4.060007713354487,0.0,0.0,0.0,0.0,0.0,0.0,0.0,0.0,0.0,0.0,0.0,0.0,0.0,0.0,
1.0667,4.022945562187689,4.022945562187689,4.138997016951387,0.0,0.0,0.0,4.061629380442255,0.0,0.0,0.0,0.0,0.0,0.0,0.0,0.0,0.0,0.0,0.0,0.0,0.0,0.0,
1.0834,4.024564260531383,4.024564260531383,4.140739832208981,0.0,0.0,0.0,4.063289451090582,0.0,0.0,0.0,0.0,0.0,0.0,0.0,0.0,0.0,0.0,0.0,0.0,0.0,0.0,
1.1001,4.026211080376176,4.026211080376176,4.142513016833584,0.0,0.0,0.0,4.064978392528645,0.0,0.0,0.0,0.0,0.0,0.0,0.0,0.0,0.0,0.0,0.0,0.0,0.0,0.0,
1.1167,4.0278760552667645,4.0278760552667645,4.1443058435474285,0.0,0.0,0.0,4.0666859846936525,0.0,0.0,0.0,0.0,0.0,0.0,0.0,0.0,0.0,0.0,0.0,0.0,0.0,0.0,
1.1334,4.029579395992384,4.029579395992384,4.146140079982933,0.0,0.0,0.0,4.068432957322567,0.0,0.0,0.0,0.0,0.0,0.0,0.0,0.0,0.0,0.0,0.0,0.0,0.0,0.0,
1.1501,4.0313113121779125,4.0313113121779125,4.148005189278196,0.0,0.0,0.0,4.070209271211341,0.0,0.0,0.0,0.0,0.0,0.0,0.0,0.0,0.0,0.0,0.0,0.0,0.0,0.0,
1.1667,4.03306133324351,4.03306133324351,4.149889899791501,0.0,0.0,0.0,4.072004188759507,0.0,0.0,0.0,0.0,0.0,0.0,0.0,0.0,0.0,0.0,0.0,0.0,0.0,0.0,
1.1834,4.034850704338165,4.034850704338165,4.1518170970147015,0.0,0.0,0.0,4.073839501897011,0.0,0.0,0.0,0.0,0.0,0.0,0.0,0.0,0.0,0.0,0.0,0.0,0.0,0.0,
1.2001,4.036669134064521,4.036669134064521,4.153775703169808,0.0,0.0,0.0,4.0757046570996165,0.0,0.0,0.0,0.0,0.0,0.0,0.0,0.0,0.0,0.0,0.0,0.0,0.0,0.0,
1.2167,4.038505639418064,4.038505639418064,4.155753893051752,0.0,0.0,0.0,4.077588390629294,0.0,0.0,0.0,0.0,0.0,0.0,0.0,0.0,0.0,0.0,0.0,0.0,0.0,0.0,
1.2334,4.040382517697721,4.040382517697721,4.157775689759932,0.0,0.0,0.0,4.0795135750517915,0.0,0.0,0.0,0.0,0.0,0.0,0.0,0.0,0.0,0.0,0.0,0.0,0.0,0.0,
1.2501,4.0422889683886325,4.0422889683886325,4.159829465629911,0.0,0.0,0.0,4.081469134135726,0.0,0.0,0.0,0.0,0.0,0.0,0.0,0.0,0.0,0.0,0.0,0.0,0.0,0.0,
1.2667,4.044213487247723,4.044213487247723,4.161902832120984,0.0,0.0,0.0,4.083443268872144,0.0,0.0,0.0,0.0,0.0,0.0,0.0,0.0,0.0,0.0,0.0,0.0,0.0,0.0,
1.2834,4.046179442651758,4.046179442651758,4.16402097095884,0.0,0.0,0.0,4.085459952087452,0.0,0.0,0.0,0.0,0.0,0.0,0.0,0.0,0.0,0.0,0.0,0.0,0.0,0.0,
1.3001,4.048175516370255,4.048175516370255,4.166171695061801,0.0,0.0,0.0,4.0875075759341035,0.0,0.0,0.0,0.0,0.0,0.0,0.0,0.0,0.0,0.0,0.0,0.0,0.0,0.0,
1.3167,4.05018967356954,4.05018967356954,4.168342042181283,0.0,0.0,0.0,4.0895737964401215,0.0,0.0,0.0,0.0,0.0,0.0,0.0,0.0,0.0,0.0,0.0,0.0,0.0,0.0,
1.3334,4.052246373828078,4.052246373828078,4.170558375024321,0.0,0.0,0.0,4.091683707560159,0.0,0.0,0.0,0.0,0.0,0.0,0.0,0.0,0.0,0.0,0.0,0.0,0.0,0.0,
1.3501,4.054333772075369,4.054333772075369,4.172807936974721,0.0,0.0,0.0,4.093825160375153,0.0,0.0,0.0,0.0,0.0,0.0,0.0,0.0,0.0,0.0,0.0,0.0,0.0,0.0,
1.3668,4.0564520697522735,4.0564520697522735,4.175090951829942,0.0,0.0,0.0,4.095998363778163,0.0,0.0,0.0,0.0,0.0,0.0,0.0,0.0,0.0,0.0,0.0,0.0,0.0,0.0,
1.3834,4.058588508678566,4.058588508678566,4.177393674774242,0.0,0.0,0.0,4.0981902307104585,0.0,0.0,0.0,0.0,0.0,0.0,0.0,0.0,0.0,0.0,0.0,0.0,0.0,0.0,
1.4001,4.060769037611683,4.060769037611683,4.179744081192151,0.0,0.0,0.0,4.100427385471839,0.0,0.0,0.0,0.0,0.0,0.0,0.0,0.0,0.0,0.0,0.0,0.0,0.0,0.0,
1.4168,4.062981093515445,4.062981093515445,4.182128637890816,0.0,0.0,0.0,4.102696941640569,0.0,0.0,0.0,0.0,0.0,0.0,0.0,0.0,0.0,0.0,0.0,0.0,0.0,0.0,
1.4334,4.065211363547896,4.065211363547896,4.184532999632992,0.0,0.0,0.0,4.104985242242928,0.0,0.0,0.0,0.0,0.0,0.0,0.0,0.0,0.0,0.0,0.0,0.0,0.0,0.0,
1.4501,4.067486939654895,4.067486939654895,4.186986380574478,0.0,0.0,0.0,4.107320086628089,0.0,0.0,0.0,0.0,0.0,0.0,0.0,0.0,0.0,0.0,0.0,0.0,0.0,0.0,
1.4668,4.069794708474166,4.069794708474166,4.189474651930402,0.0,0.0,0.0,4.1096880229595785,0.0,0.0,0.0,0.0,0.0,0.0,0.0,0.0,0.0,0.0,0.0,0.0,0.0,0.0,
1.4834,4.072120791155712,4.072120791155712,4.191982855442379,0.0,0.0,0.0,4.112074812584601,0.0,0.0,0.0,0.0,0.0,0.0,0.0,0.0,0.0,0.0,0.0,0.0,0.0,0.0,
1.5001,4.074493447433348,4.074493447433348,4.194541471401893,0.0,0.0,0.0,4.114509455422863,0.0,0.0,0.0,0.0,0.0,0.0,0.0,0.0,0.0,0.0,0.0,0.0,0.0,0.0,
1.5168,4.0768990025491245,4.0768990025491245,4.197135763143075,0.0,0.0,0.0,4.116977922747108,0.0,0.0,0.0,0.0,0.0,0.0,0.0,0.0,0.0,0.0,0.0,0.0,0.0,0.0,
1.5334,4.079322999631187,4.079322999631187,4.199750146040424,0.0,0.0,0.0,4.1194653817676,0.0,0.0,0.0,0.0,0.0,0.0,0.0,0.0,0.0,0.0,0.0,0.0,0.0,0.0,
1.5501,4.081794892314383,4.081794892314383,4.202416395582082,0.0,0.0,0.0,4.122002060070282,0.0,0.0,0.0,0.0,0.0,0.0,0.0,0.0,0.0,0.0,0.0,0.0,0.0,0.0,
1.5668,4.084300432726058,4.084300432726058,4.20511915420625,0.0,0.0,0.0,4.124573339886123,0.0,0.0,0.0,0.0,0.0,0.0,0.0,0.0,0.0,0.0,0.0,0.0,0.0,0.0,
1.5834,4.086824573254486,4.086824573254486,4.207842196786066,0.0,0.0,0.0,4.1271637810983455,0.0,0.0,0.0,0.0,0.0,0.0,0.0,0.0,0.0,0.0,0.0,0.0,0.0,0.0,
1.6001,4.089397989154357,4.089397989154357,4.210618624868639,0.0,0.0,0.0,4.129804867725784,0.0,0.0,0.0,0.0,0.0,0.0,0.0,0.0,0.0,0.0,0.0,0.0,0.0,0.0,
1.6168,4.092005847034631,4.092005847034631,4.213432446215584,0.0,0.0,0.0,4.132481380094949,0.0,0.0,0.0,0.0,0.0,0.0,0.0,0.0,0.0,0.0,0.0,0.0,0.0,0.0,
1.6334,4.094632495081534,4.094632495081534,4.216266780231211,0.0,0.0,0.0,4.135177256798094,0.0,0.0,0.0,0.0,0.0,0.0,0.0,0.0,0.0,0.0,0.0,0.0,0.0,0.0,
1.6501,4.097309859595077,4.097309859595077,4.219156087299764,0.0,0.0,0.0,4.137925268829973,0.0,0.0,0.0,0.0,0.0,0.0,0.0,0.0,0.0,0.0,0.0,0.0,0.0,0.0,
1.6668,4.100022508539754,4.100022508539754,4.222083725916935,0.0,0.0,0.0,4.140709580998815,0.0,0.0,0.0,0.0,0.0,0.0,0.0,0.0,0.0,0.0,0.0,0.0,0.0,0.0,
1.6834,4.102754171650313,4.102754171650313,4.225032144168612,0.0,0.0,0.0,4.143513495823079,0.0,0.0,0.0,0.0,0.0,0.0,0.0,0.0,0.0,0.0,0.0,0.0,0.0,0.0,
1.7001,4.105538057514277,4.105538057514277,4.228037196095544,0.0,0.0,0.0,4.146371103708033,0.0,0.0,0.0,0.0,0.0,0.0,0.0,0.0,0.0,0.0,0.0,0.0,0.0,0.0,
1.7168,4.108358121562379,4.108358121562379,4.231081575483452,0.0,0.0,0.0,4.149265939536069,0.0,0.0,0.0,0.0,0.0,0.0,0.0,0.0,0.0,0.0,0.0,0.0,0.0,0.0,
1.7334,4.111197459993924,4.111197459993924,4.234147042314531,0.0,0.0,0.0,4.152180654100793,0.0,0.0,0.0,0.0,0.0,0.0,0.0,0.0,0.0,0.0,0.0,0.0,0.0,0.0,
1.7501,4.114090596864762,4.114090596864762,4.237270881284747,0.0,0.0,0.0,4.155150691671424,0.0,0.0,0.0,0.0,0.0,0.0,0.0,0.0,0.0,0.0,0.0,0.0,0.0,0.0,
1.7668,4.117020860374433,4.117020860374433,4.24043510512049,0.0,0.0,0.0,4.158158941956452,0.0,0.0,0.0,0.0,0.0,0.0,0.0,0.0,0.0,0.0,0.0,0.0,0.0,0.0,
1.7834,4.119970697217614,4.119970697217614,4.243620767921702,0.0,0.0,0.0,4.161187387452309,0.0,0.0,0.0,0.0,0.0,0.0,0.0,0.0,0.0,0.0,0.0,0.0,0.0,0.0,
1.8001,4.122975982170603,4.122975982170603,4.246866624369207,0.0,0.0,0.0,4.164272862903471,0.0,0.0,0.0,0.0,0.0,0.0,0.0,0.0,0.0,0.0,0.0,0.0,0.0,0.0,
1.8168,4.12601940064855,4.12601940064855,4.25015398882093,0.0,0.0,0.0,4.16739759670601,0.0,0.0,0.0,0.0,0.0,0.0,0.0,0.0,0.0,0.0,0.0,0.0,0.0,0.0,
1.8334,4.129082732931344,4.129082732931344,4.253463190659844,0.0,0.0,0.0,4.170542885507511,0.0,0.0,0.0,0.0,0.0,0.0,0.0,0.0,0.0,0.0,0.0,0.0,0.0,0.0,
1.8501,4.132203241986115,4.132203241986115,4.256834496379129,0.0,0.0,0.0,4.173746993450453,0.0,0.0,0.0,0.0,0.0,0.0,0.0,0.0,0.0,0.0,0.0,0.0,0.0,0.0,
1.8668,4.135362953982145,4.135362953982145,4.260248503640307,0.0,0.0,0.0,4.176991470534865,0.0,0.0,0.0,0.0,0.0,0.0,0.0,0.0,0.0,0.0,0.0,0.0,0.0,0.0,
1.8835,4.138562240804135,4.138562240804135,4.263705627644351,0.0,0.0,0.0,4.180276703084207,0.0,0.0,0.0,0.0,0.0,0.0,0.0,0.0,0.0,0.0,0.0,0.0,0.0,0.0,
1.9001,4.141781965667516,4.141781965667516,4.267185199723716,0.0,0.0,0.0,4.183583043686249,0.0,0.0,0.0,0.0,0.0,0.0,0.0,0.0,0.0,0.0,0.0,0.0,0.0,0.0,
1.9168,4.145061305862459,4.145061305862459,4.270729572915734,0.0,0.0,0.0,4.18695072821355,0.0,0.0,0.0,0.0,0.0,0.0,0.0,0.0,0.0,0.0,0.0,0.0,0.0,0.0,
1.9335,4.148381380819396,4.148381380819396,4.274318358392666,0.0,0.0,0.0,4.190360373343819,0.0,0.0,0.0,0.0,0.0,0.0,0.0,0.0,0.0,0.0,0.0,0.0,0.0,0.0,
1.9501,4.15172234386007,4.15172234386007,4.277930114303438,0.0,0.0,0.0,4.193791600674526,0.0,0.0,0.0,0.0,0.0,0.0,0.0,0.0,0.0,0.0,0.0,0.0,0.0,0.0,
1.9668,4.155124857494503,4.155124857494503,4.281608813917279,0.0,0.0,0.0,4.197286176302095,0.0,0.0,0.0,0.0,0.0,0.0,0.0,0.0,0.0,0.0,0.0,0.0,0.0,0.0,
1.9835,4.158569339624869,4.158569339624869,4.2853333045972,0.0,0.0,0.0,4.200823994615646,0.0,0.0,0.0,0.0,0.0,0.0,0.0,0.0,0.0,0.0,0.0,0.0,0.0,0.0,
2.0001,4.162035213164131,4.162035213164131,4.289081348421789,0.0,0.0,0.0,4.204383924916684,0.0,0.0,0.0,0.0,0.0,0.0,0.0,0.0,0.0,0.0,0.0,0.0,0.0,0.0,
2.0168,4.165564671978519,4.165564671978519,4.292898590497311,0.0,0.0,0.0,4.2080093114847825,0.0,0.0,0.0,0.0,0.0,0.0,0.0,0.0,0.0,0.0,0.0,0.0,0.0,0.0,
2.0335,4.169137412514727,4.169137412514727,4.296763092157142,0.0,0.0,0.0,4.2116793057288655,0.0,0.0,0.0,0.0,0.0,0.0,0.0,0.0,0.0,0.0,0.0,0.0,0.0,0.0,
2.0501,4.172732105516855,4.172732105516855,4.300651795121391,0.0,0.0,0.0,4.2153720020517005,0.0,0.0,0.0,0.0,0.0,0.0,0.0,0.0,0.0,0.0,0.0,0.0,0.0,0.0,
2.0668,4.176392525400623,4.176392525400623,4.304612071394639,0.0,0.0,0.0,4.219132374065295,0.0,0.0,0.0,0.0,0.0,0.0,0.0,0.0,0.0,0.0,0.0,0.0,0.0,0.0,
2.0835,4.180097626038513,4.180097626038513,4.308621172720428,0.0,0.0,0.0,4.222938808265819,0.0,0.0,0.0,0.0,0.0,0.0,0.0,0.0,0.0,0.0,0.0,0.0,0.0,0.0,
2.1001,4.183825302912155,4.183825302912155,4.312655194671092,0.0,0.0,0.0,4.2267686001651334,0.0,0.0,0.0,0.0,0.0,0.0,0.0,0.0,0.0,0.0,0.0,0.0,0.0,0.0,
2.1168,4.187620963492151,4.187620963492151,4.316763294958845,0.0,0.0,0.0,4.230668407314382,0.0,0.0,0.0,0.0,0.0,0.0,0.0,0.0,0.0,0.0,0.0,0.0,0.0,0.0,
2.1335,4.191462796684815,4.191462796684815,4.320921890745451,0.0,0.0,0.0,4.23461582803836,0.0,0.0,0.0,0.0,0.0,0.0,0.0,0.0,0.0,0.0,0.0,0.0,0.0,0.0,
2.1501,4.195327898185867,4.195327898185867,4.325106204055386,0.0,0.0,0.0,4.2385873334757065,0.0,0.0,0.0,0.0,0.0,0.0,0.0,0.0,0.0,0.0,0.0,0.0,0.0,0.0,
2.1668,4.199263364623032,4.199263364623032,4.329367241192814,0.0,0.0,0.0,4.242631323479626,0.0,0.0,0.0,0.0,0.0,0.0,0.0,0.0,0.0,0.0,0.0,0.0,0.0,0.0,
2.1835,4.203246596182941,4.203246596182941,4.333680558214318,0.0,0.0,0.0,4.246724583526734,0.0,0.0,0.0,0.0,0.0,0.0,0.0,0.0,0.0,0.0,0.0,0.0,0.0,0.0,
2.2001,4.207253862716103,4.207253862716103,4.338020474465631,0.0,0.0,0.0,4.250842733299279,0.0,0.0,0.0,0.0,0.0,0.0,0.0,0.0,0.0,0.0,0.0,0.0,0.0,0.0,
