energies(eV),real_xx,real_yy,real_zz,real_xy,real_yz,real_xz,real_ave,imag_xx,imag_yy,imag_zz,imag_xy,imag_yz,imag_xz,imag_ave,absorption_xx,absorption_yy,absorption_zz,absorption_xy,absorption_yz,absorption_xz,absorption_ave,band_gap
0.0,4.377729155501246,4.377729155501246,5.61765636691274,0.0,0.0,0.0,4.791038225971744,0.0,0.0,0.0,0.0,0.0,0.0,0.0,0.0,0.0,0.0,0.0,0.0,0.0,0.0,3.1516000000000006
0.0148,4.377746022450002,4.377746022450002,5.617685984733341,0.0,0.0,0.0,4.791059343211114,0.0,0.0,0.0,0.0,0.0,0.0,0.0,0.0,0.0,0.0,0.0,0.0,0.0,0.0,
0.0297,4.377797081594178,4.377797081594178,5.617775643361155,0.0,0.0,0.0,4.791123268849837,0.0,0.0,0.0,0.0,0.0,0.0,0.0,0.0,0.0,0.0,0.0,0.0,0.0,0.0,
0.0445,4.377881652530853,4.377881652530853,5.617924149244263,0.0,0.0,0.0,4.791229151435323,0.0,0.0,0.0,0.0,0.0,0.0,0.0,0.0,0.0,0.0,0.0,0.0,0.0,0.0,
0.0593,4.377999972180639,4.377999972180639,5.61813192043038,0.0,0.0,0.0,4.791377288263885,0.0,0.0,0.0,0.0,0.0,0.0,0.0,0.0,0.0,0.0,0.0,0.0,0.0,0.0,
0.0742,4.378153194465684,4.378153194465684,5.618400986112035,0.0,0.0,0.0,4.791569125014468,0.0,0.0,0.0,0.0,0.0,0.0,0.0,0.0,0.0,0.0,0.0,0.0,0.0,0.0,
0.089,4.378339277588831,4.378339277588831,5.618727764457393,0.0,0.0,0.0,4.791802106545018,0.0,0.0,0.0,0.0,0.0,0.0,0.0,0.0,0.0,0.0,0.0,0.0,0.0,0.0,
0.1038,4.378559153912729,4.378559153912729,5.619113897178543,0.0,0.0,0.0,4.792077401668,0.0,0.0,0.0,0.0,0.0,0.0,0.0,0.0,0.0,0.0,0.0,0.0,0.0,0.0,
0.1187,4.3788146740198215,4.3788146740198215,5.619562639573481,0.0,0.0,0.0,4.792397329204374,0.0,0.0,0.0,0.0,0.0,0.0,0.0,0.0,0.0,0.0,0.0,0.0,0.0,0.0,
0.1335,4.379102432951973,4.379102432951973,5.620068017998711,0.0,0.0,0.0,4.792757627967553,0.0,0.0,0.0,0.0,0.0,0.0,0.0,0.0,0.0,0.0,0.0,0.0,0.0,0.0,
0.1483,4.379424059367374,4.379424059367374,5.620632899546462,0.0,0.0,0.0,4.793160339427071,0.0,0.0,0.0,0.0,0.0,0.0,0.0,0.0,0.0,0.0,0.0,0.0,0.0,0.0,
0.1632,4.379782102178086,4.379782102178086,5.621261768971377,0.0,0.0,0.0,4.79360865777585,0.0,0.0,0.0,0.0,0.0,0.0,0.0,0.0,0.0,0.0,0.0,0.0,0.0,0.0,
0.178,4.3801717903151465,4.3801717903151465,5.621946254920898,0.0,0.0,0.0,4.794096611850397,0.0,0.0,0.0,0.0,0.0,0.0,0.0,0.0,0.0,0.0,0.0,0.0,0.0,0.0,
0.1928,4.3805954502181965,4.3805954502181965,5.622690452853673,0.0,0.0,0.0,4.794627117763356,0.0,0.0,0.0,0.0,0.0,0.0,0.0,0.0,0.0,0.0,0.0,0.0,0.0,0.0,
0.2077,4.381056331436491,4.381056331436491,5.623500081614741,0.0,0.0,0.0,4.795204248162574,0.0,0.0,0.0,0.0,0.0,0.0,0.0,0.0,0.0,0.0,0.0,0.0,0.0,0.0,
0.2225,4.381548292649256,4.381548292649256,5.624364363862451,0.0,0.0,0.0,4.795820316386988,0.0,0.0,0.0,0.0,0.0,0.0,0.0,0.0,0.0,0.0,0.0,0.0,0.0,0.0,
0.2374,4.382078030828755,4.382078030828755,5.6252950769543935,0.0,0.0,0.0,4.796483712870635,0.0,0.0,0.0,0.0,0.0,0.0,0.0,0.0,0.0,0.0,0.0,0.0,0.0,0.0,
0.2522,4.3826384872283715,4.3826384872283715,5.6262798319572385,0.0,0.0,0.0,4.7971856021379935,0.0,0.0,0.0,0.0,0.0,0.0,0.0,0.0,0.0,0.0,0.0,0.0,0.0,0.0,
0.267,4.383233156817887,4.383233156817887,5.627324782653181,0.0,0.0,0.0,4.797930365429652,0.0,0.0,0.0,0.0,0.0,0.0,0.0,0.0,0.0,0.0,0.0,0.0,0.0,0.0,
0.2819,4.383866464288317,4.383866464288317,5.628437719468273,0.0,0.0,0.0,4.798723549348303,0.0,0.0,0.0,0.0,0.0,0.0,0.0,0.0,0.0,0.0,0.0,0.0,0.0,0.0,
0.2967,4.38452997105615,4.38452997105615,5.629603828306748,0.0,0.0,0.0,4.7995545901396826,0.0,0.0,0.0,0.0,0.0,0.0,0.0,0.0,0.0,0.0,0.0,0.0,0.0,0.0,
0.3115,4.385227876968681,4.385227876968681,5.630830505580768,0.0,0.0,0.0,4.80042875317271,0.0,0.0,0.0,0.0,0.0,0.0,0.0,0.0,0.0,0.0,0.0,0.0,0.0,0.0,
0.3264,4.385965316687441,4.385965316687441,5.632126794563476,0.0,0.0,0.0,4.801352475979453,0.0,0.0,0.0,0.0,0.0,0.0,0.0,0.0,0.0,0.0,0.0,0.0,0.0,0.0,
0.3412,4.386732464410475,4.386732464410475,5.633475441224669,0.0,0.0,0.0,4.802313456681873,0.0,0.0,0.0,0.0,0.0,0.0,0.0,0.0,0.0,0.0,0.0,0.0,0.0,0.0,
0.356,4.387534228719508,4.387534228719508,5.634885092363001,0.0,0.0,0.0,4.803317849934006,0.0,0.0,0.0,0.0,0.0,0.0,0.0,0.0,0.0,0.0,0.0,0.0,0.0,0.0,
0.3709,4.38837645896656,4.38837645896656,5.63636605359122,0.0,0.0,0.0,4.804372990508114,0.0,0.0,0.0,0.0,0.0,0.0,0.0,0.0,0.0,0.0,0.0,0.0,0.0,0.0,
0.3857,4.389247933501091,4.389247933501091,5.637898613667294,0.0,0.0,0.0,4.805464826889825,0.0,0.0,0.0,0.0,0.0,0.0,0.0,0.0,0.0,0.0,0.0,0.0,0.0,0.0,
0.4005,4.3901542741655595,4.3901542741655595,5.639492678882142,0.0,0.0,0.0,4.806600409071087,0.0,0.0,0.0,0.0,0.0,0.0,0.0,0.0,0.0,0.0,0.0,0.0,0.0,0.0,
0.4154,4.391102050408396,4.391102050408396,5.641159828066812,0.0,0.0,0.0,4.807787976294534,0.0,0.0,0.0,0.0,0.0,0.0,0.0,0.0,0.0,0.0,0.0,0.0,0.0,0.0,
0.4302,4.392078634828476,4.392078634828476,5.642877872933462,0.0,0.0,0.0,4.809011714196804,0.0,0.0,0.0,0.0,0.0,0.0,0.0,0.0,0.0,0.0,0.0,0.0,0.0,0.0,
0.445,4.393090367737676,4.393090367737676,5.64465798974961,0.0,0.0,0.0,4.810279575074987,0.0,0.0,0.0,0.0,0.0,0.0,0.0,0.0,0.0,0.0,0.0,0.0,0.0,0.0,
0.4599,4.394144544789525,4.394144544789525,5.646513042864052,0.0,0.0,0.0,4.811600710814368,0.0,0.0,0.0,0.0,0.0,0.0,0.0,0.0,0.0,0.0,0.0,0.0,0.0,0.0,
0.4747,4.395227121630459,4.395227121630459,5.648418344494203,0.0,0.0,0.0,4.812957529251707,0.0,0.0,0.0,0.0,0.0,0.0,0.0,0.0,0.0,0.0,0.0,0.0,0.0,0.0,
0.4895,4.396345162949006,4.396345162949006,5.650386352780539,0.0,0.0,0.0,4.814358892892851,0.0,0.0,0.0,0.0,0.0,0.0,0.0,0.0,0.0,0.0,0.0,0.0,0.0,0.0,
0.5044,4.397506697433402,4.397506697433402,5.6524312313499925,0.0,0.0,0.0,4.815814875405599,0.0,0.0,0.0,0.0,0.0,0.0,0.0,0.0,0.0,0.0,0.0,0.0,0.0,0.0,
0.5192,4.398696251244784,4.398696251244784,5.654525767793706,0.0,0.0,0.0,4.817306090094426,0.0,0.0,0.0,0.0,0.0,0.0,0.0,0.0,0.0,0.0,0.0,0.0,0.0,0.0,
0.534,4.399921620072011,4.399921620072011,5.656683715472485,0.0,0.0,0.0,4.818842318538835,0.0,0.0,0.0,0.0,0.0,0.0,0.0,0.0,0.0,0.0,0.0,0.0,0.0,0.0,
0.5489,4.40119157320961,4.40119157320961,5.658920552557666,0.0,0.0,0.0,4.820434566325629,0.0,0.0,0.0,0.0,0.0,0.0,0.0,0.0,0.0,0.0,0.0,0.0,0.0,0.0,
0.5637,4.402489193434262,4.402489193434262,5.661206514124281,0.0,0.0,0.0,4.822061633664268,0.0,0.0,0.0,0.0,0.0,0.0,0.0,0.0,0.0,0.0,0.0,0.0,0.0,0.0,
0.5785,4.403823014795493,4.403823014795493,5.663556663595722,0.0,0.0,0.0,4.823734231062236,0.0,0.0,0.0,0.0,0.0,0.0,0.0,0.0,0.0,0.0,0.0,0.0,0.0,0.0,
0.5934,4.405202555531304,4.405202555531304,5.665987810510473,0.0,0.0,0.0,4.825464307191027,0.0,0.0,0.0,0.0,0.0,0.0,0.0,0.0,0.0,0.0,0.0,0.0,0.0,0.0,
0.6082,4.406609439728479,4.406609439728479,5.66846760669409,0.0,0.0,0.0,4.827228828717016,0.0,0.0,0.0,0.0,0.0,0.0,0.0,0.0,0.0,0.0,0.0,0.0,0.0,0.0,
0.6231,4.408062826253516,4.408062826253516,5.671029858741623,0.0,0.0,0.0,4.829051837082885,0.0,0.0,0.0,0.0,0.0,0.0,0.0,0.0,0.0,0.0,0.0,0.0,0.0,0.0,
0.6379,4.40954335640868,4.40954335640868,5.673640475826777,0.0,0.0,0.0,4.8309090628813784,0.0,0.0,0.0,0.0,0.0,0.0,0.0,0.0,0.0,0.0,0.0,0.0,0.0,0.0,
0.6527,4.411060813843346,4.411060813843346,5.676316743021665,0.0,0.0,0.0,4.832812790236119,0.0,0.0,0.0,0.0,0.0,0.0,0.0,0.0,0.0,0.0,0.0,0.0,0.0,0.0,
0.6676,4.412625986301734,4.412625986301734,5.67907773163251,0.0,0.0,0.0,4.834776568078659,0.0,0.0,0.0,0.0,0.0,0.0,0.0,0.0,0.0,0.0,0.0,0.0,0.0,0.0,
0.6824,4.414218027626497,4.414218027626497,5.681886709751727,0.0,0.0,0.0,4.836774255001573,0.0,0.0,0.0,0.0,0.0,0.0,0.0,0.0,0.0,0.0,0.0,0.0,0.0,0.0,
0.6972,4.41584748324826,4.41584748324826,5.684762319810799,0.0,0.0,0.0,4.838819095435773,0.0,0.0,0.0,0.0,0.0,0.0,0.0,0.0,0.0,0.0,0.0,0.0,0.0,0.0,
0.7121,4.417525916047095,4.417525916047095,5.687725017421154,0.0,0.0,0.0,4.840925616505115,0.0,0.0,0.0,0.0,0.0,0.0,0.0,0.0,0.0,0.0,0.0,0.0,0.0,0.0,
0.7269,4.419230973120244,4.419230973120244,5.690735390782356,0.0,0.0,0.0,4.843065779007614,0.0,0.0,0.0,0.0,0.0,0.0,0.0,0.0,0.0,0.0,0.0,0.0,0.0,0.0,
0.7417,4.4209739719599135,4.4209739719599135,5.693813460478539,0.0,0.0,0.0,4.845253801466122,0.0,0.0,0.0,0.0,0.0,0.0,0.0,0.0,0.0,0.0,0.0,0.0,0.0,0.0,
0.7566,4.422767261974504,4.422767261974504,5.696981089491962,0.0,0.0,0.0,4.847505204480323,0.0,0.0,0.0,0.0,0.0,0.0,0.0,0.0,0.0,0.0,0.0,0.0,0.0,0.0,
0.7714,4.4245869626374645,4.4245869626374645,5.7001961440733195,0.0,0.0,0.0,4.849790023116083,0.0,0.0,0.0,0.0,0.0,0.0,0.0,0.0,0.0,0.0,0.0,0.0,0.0,0.0,
0.7862,4.4264451746514695,4.4264451746514695,5.703480045531426,0.0,0.0,0.0,4.852123464944788,0.0,0.0,0.0,0.0,0.0,0.0,0.0,0.0,0.0,0.0,0.0,0.0,0.0,0.0,
0.8011,4.428355046260862,4.428355046260862,5.706856089163927,0.0,0.0,0.0,4.854522060561884,0.0,0.0,0.0,0.0,0.0,0.0,0.0,0.0,0.0,0.0,0.0,0.0,0.0,0.0,
0.8159,4.430291146780334,4.430291146780334,5.71027937383498,0.0,0.0,0.0,4.856953889131883,0.0,0.0,0.0,0.0,0.0,0.0,0.0,0.0,0.0,0.0,0.0,0.0,0.0,0.0,
0.8307,4.432266372178085,4.432266372178085,5.71377274601001,0.0,0.0,0.0,4.859435163455394,0.0,0.0,0.0,0.0,0.0,0.0,0.0,0.0,0.0,0.0,0.0,0.0,0.0,0.0,
0.8456,4.434294682799092,4.434294682799092,5.7173609602161,0.0,0.0,0.0,4.8619834419380945,0.0,0.0,0.0,0.0,0.0,0.0,0.0,0.0,0.0,0.0,0.0,0.0,0.0,0.0,
0.8604,4.436349073538234,4.436349073538234,5.720996298961616,0.0,0.0,0.0,4.864564815346028,0.0,0.0,0.0,0.0,0.0,0.0,0.0,0.0,0.0,0.0,0.0,0.0,0.0,0.0,
0.8752,4.438443248631508,4.438443248631508,5.724703060249131,0.0,0.0,0.0,4.867196519170715,0.0,0.0,0.0,0.0,0.0,0.0,0.0,0.0,0.0,0.0,0.0,0.0,0.0,0.0,
0.8901,4.440591994792583,4.440591994792583,5.728507486818759,0.0,0.0,0.0,4.869897158801308,0.0,0.0,0.0,0.0,0.0,0.0,0.0,0.0,0.0,0.0,0.0,0.0,0.0,0.0,
0.9049,4.442766706432881,4.442766706432881,5.732358992157552,0.0,0.0,0.0,4.872630801674438,0.0,0.0,0.0,0.0,0.0,0.0,0.0,0.0,0.0,0.0,0.0,0.0,0.0,0.0,
0.9197,4.444981910051342,4.444981910051342,5.73628335423237,0.0,0.0,0.0,4.875415724778351,0.0,0.0,0.0,0.0,0.0,0.0,0.0,0.0,0.0,0.0,0.0,0.0,0.0,0.0,
0.9346,4.447253234052466,4.447253234052466,5.7403083351594875,0.0,0.0,0.0,4.87827160108814,0.0,0.0,0.0,0.0,0.0,0.0,0.0,0.0,0.0,0.0,0.0,0.0,0.0,0.0,
0.9494,4.449550444414327,4.449550444414327,5.744380422862337,0.0,0.0,0.0,4.8811604372303306,0.0,0.0,0.0,0.0,0.0,0.0,0.0,0.0,0.0,0.0,0.0,0.0,0.0,0.0,
0.9642,4.451888904936584,4.451888904936584,5.748526905853973,0.0,0.0,0.0,4.884101571909047,0.0,0.0,0.0,0.0,0.0,0.0,0.0,0.0,0.0,0.0,0.0,0.0,0.0,0.0,
0.9791,4.454285102146903,4.454285102146903,5.752777099089982,0.0,0.0,0.0,4.887115767794596,0.0,0.0,0.0,0.0,0.0,0.0,0.0,0.0,0.0,0.0,0.0,0.0,0.0,0.0,
0.9939,4.4567071436624826,4.4567071436624826,5.757074504313963,0.0,0.0,0.0,4.8901629305463095,0.0,0.0,0.0,0.0,0.0,0.0,0.0,0.0,0.0,0.0,0.0,0.0,0.0,0.0,
1.0088,4.459188039762296,4.459188039762296,5.761477763711293,0.0,0.0,0.0,4.893284614411962,0.0,0.0,0.0,0.0,0.0,0.0,0.0,0.0,0.0,0.0,0.0,0.0,0.0,0.0,
1.0236,4.461694773571247,4.461694773571247,5.765928350160465,0.0,0.0,0.0,4.896439299100986,0.0,0.0,0.0,0.0,0.0,0.0,0.0,0.0,0.0,0.0,0.0,0.0,0.0,0.0,
1.0384,4.464244141470194,4.464244141470194,5.770456145131647,0.0,0.0,0.0,4.899648142690679,0.0,0.0,0.0,0.0,0.0,0.0,0.0,0.0,0.0,0.0,0.0,0.0,0.0,0.0,
1.0533,4.466854100593194,4.466854100593194,5.775093133906326,0.0,0.0,0.0,4.902933778364238,0.0,0.0,0.0,0.0,0.0,0.0,0.0,0.0,0.0,0.0,0.0,0.0,0.0,0.0,
1.0681,4.469489921128416,4.469489921128416,5.779777692454578,0.0,0.0,0.0,4.90625251157047,0.0,0.0,0.0,0.0,0.0,0.0,0.0,0.0,0.0,0.0,0.0,0.0,0.0,0.0,
1.0829,4.472169282405025,4.472169282405025,5.784541305847603,0.0,0.0,0.0,4.909626623552551,0.0,0.0,0.0,0.0,0.0,0.0,0.0,0.0,0.0,0.0,0.0,0.0,0.0,0.0,
1.0978,4.474911049429175,4.474911049429175,5.789417613770818,0.0,0.0,0.0,4.913079904209723,0.0,0.0,0.0,0.0,0.0,0.0,0.0,0.0,0.0,0.0,0.0,0.0,0.0,0.0,
1.1126,4.477678743734463,4.477678743734463,5.794341822690669,0.0,0.0,0.0,4.916566436719865,0.0,0.0,0.0,0.0,0.0,0.0,0.0,0.0,0.0,0.0,0.0,0.0,0.0,0.0,
1.1274,4.480490946973762,4.480490946973762,5.799347060873245,0.0,0.0,0.0,4.920109651606923,0.0,0.0,0.0,0.0,0.0,0.0,0.0,0.0,0.0,0.0,0.0,0.0,0.0,0.0,
1.1423,4.483367453103197,4.483367453103197,5.804468665548805,0.0,0.0,0.0,4.9237345239184,0.0,0.0,0.0,0.0,0.0,0.0,0.0,0.0,0.0,0.0,0.0,0.0,0.0,0.0,
1.1571,4.486269996891826,4.486269996891826,5.8096385961151285,0.0,0.0,0.0,4.927392863299594,0.0,0.0,0.0,0.0,0.0,0.0,0.0,0.0,0.0,0.0,0.0,0.0,0.0,0.0,
1.1719,4.489218083041908,4.489218083041908,5.814891666446823,0.0,0.0,0.0,4.931109277510213,0.0,0.0,0.0,0.0,0.0,0.0,0.0,0.0,0.0,0.0,0.0,0.0,0.0,0.0,
1.1868,4.492232456991916,4.492232456991916,5.820264957504425,0.0,0.0,0.0,4.934909957162752,0.0,0.0,0.0,0.0,0.0,0.0,0.0,0.0,0.0,0.0,0.0,0.0,0.0,0.0,
1.2016,4.4952730261052345,4.4952730261052345,5.825687098782186,0.0,0.0,0.0,4.938744383664218,0.0,0.0,0.0,0.0,0.0,0.0,0.0,0.0,0.0,0.0,0.0,0.0,0.0,0.0,
1.2164,4.498360240295714,4.498360240295714,5.831194635182364,0.0,0.0,0.0,4.942638371924597,0.0,0.0,0.0,0.0,0.0,0.0,0.0,0.0,0.0,0.0,0.0,0.0,0.0,0.0,
1.2313,4.5015158205667465,4.5015158205667465,5.836826440833384,0.0,0.0,0.0,4.9466193606556255,0.0,0.0,0.0,0.0,0.0,0.0,0.0,0.0,0.0,0.0,0.0,0.0,0.0,0.0,
1.2461,4.50469780355259,4.50469780355259,5.8425077268933086,0.0,0.0,0.0,4.950634444666163,0.0,0.0,0.0,0.0,0.0,0.0,0.0,0.0,0.0,0.0,0.0,0.0,0.0,0.0,
1.2609,4.507927608071763,4.507927608071763,5.848276817921197,0.0,0.0,0.0,4.954710678021574,0.0,0.0,0.0,0.0,0.0,0.0,0.0,0.0,0.0,0.0,0.0,0.0,0.0,0.0,
1.2758,4.511227956431827,4.511227956431827,5.854174434132892,0.0,0.0,0.0,4.958876782332182,0.0,0.0,0.0,0.0,0.0,0.0,0.0,0.0,0.0,0.0,0.0,0.0,0.0,0.0,
1.2906,4.514554968365822,4.514554968365822,5.860122273959812,0.0,0.0,0.0,4.963077403563818,0.0,0.0,0.0,0.0,0.0,0.0,0.0,0.0,0.0,0.0,0.0,0.0,0.0,0.0,
1.3054,4.517931056925654,4.517931056925654,5.8661604936833776,0.0,0.0,0.0,4.967340869178229,0.0,0.0,0.0,0.0,0.0,0.0,0.0,0.0,0.0,0.0,0.0,0.0,0.0,0.0,
1.3203,4.521379973236298,4.521379973236298,5.872331716261557,0.0,0.0,0.0,4.971697220911384,0.0,0.0,0.0,0.0,0.0,0.0,0.0,0.0,0.0,0.0,0.0,0.0,0.0,0.0,
1.3351,4.524855870926832,4.524855870926832,5.878554026657139,0.0,0.0,0.0,4.9760885895036004,0.0,0.0,0.0,0.0,0.0,0.0,0.0,0.0,0.0,0.0,0.0,0.0,0.0,0.0,
1.3499,4.52838218436275,4.52838218436275,5.8848694686252525,0.0,0.0,0.0,4.980544612450251,0.0,0.0,0.0,0.0,0.0,0.0,0.0,0.0,0.0,0.0,0.0,0.0,0.0,0.0,
1.3648,4.531983722903405,4.531983722903405,5.89132262853663,0.0,0.0,0.0,4.985096691447813,0.0,0.0,0.0,0.0,0.0,0.0,0.0,0.0,0.0,0.0,0.0,0.0,0.0,0.0,
1.3796,4.53561262164137,4.53561262164137,5.897827870359266,0.0,0.0,0.0,4.989684371214001,0.0,0.0,0.0,0.0,0.0,0.0,0.0,0.0,0.0,0.0,0.0,0.0,0.0,0.0,
1.3945,4.539318412562325,4.539318412562325,5.904474117591052,0.0,0.0,0.0,4.994370314238568,0.0,0.0,0.0,0.0,0.0,0.0,0.0,0.0,0.0,0.0,0.0,0.0,0.0,0.0,
1.4093,4.543051852683947,4.543051852683947,5.9111731873484334,0.0,0.0,0.0,4.999092297572109,0.0,0.0,0.0,0.0,0.0,0.0,0.0,0.0,0.0,0.0,0.0,0.0,0.0,0.0,
1.4241,4.546838144721663,4.546838144721663,5.917970405483802,0.0,0.0,0.0,5.003882231642376,0.0,0.0,0.0,0.0,0.0,0.0,0.0,0.0,0.0,0.0,0.0,0.0,0.0,0.0,
1.439,4.550703933610439,4.550703933610439,5.92491377903337,0.0,0.0,0.0,5.00877388208475,0.0,0.0,0.0,0.0,0.0,0.0,0.0,0.0,0.0,0.0,0.0,0.0,0.0,0.0,
1.4538,4.55459786261577,4.55459786261577,5.931911208428675,0.0,0.0,0.0,5.013702311220071,0.0,0.0,0.0,0.0,0.0,0.0,0.0,0.0,0.0,0.0,0.0,0.0,0.0,0.0,
1.4686,4.558546237587926,4.558546237587926,5.939010075940143,0.0,0.0,0.0,5.0187008503719985,0.0,0.0,0.0,0.0,0.0,0.0,0.0,0.0,0.0,0.0,0.0,0.0,0.0,0.0,
1.4835,4.562576850625133,4.562576850625133,5.946260535970263,0.0,0.0,0.0,5.023804745740176,0.0,0.0,0.0,0.0,0.0,0.0,0.0,0.0,0.0,0.0,0.0,0.0,0.0,0.0,
1.4983,4.5666361690601605,4.5666361690601605,5.953566444189343,0.0,0.0,0.0,5.028946260769888,0.0,0.0,0.0,0.0,0.0,0.0,0.0,0.0,0.0,0.0,0.0,0.0,0.0,0.0,
1.5131,4.57075163659184,4.57075163659184,5.960977311165383,0.0,0.0,0.0,5.034160194783021,0.0,0.0,0.0,0.0,0.0,0.0,0.0,0.0,0.0,0.0,0.0,0.0,0.0,0.0,
1.528,4.5749522302444685,4.5749522302444685,5.9685455170033945,0.0,0.0,0.0,5.039483325830777,0.0,0.0,0.0,0.0,0.0,0.0,0.0,0.0,0.0,0.0,0.0,0.0,0.0,0.0,
1.5428,4.579182175090328,4.579182175090328,5.976170735763575,0.0,0.0,0.0,5.044845028648077,0.0,0.0,0.0,0.0,0.0,0.0,0.0,0.0,0.0,0.0,0.0,0.0,0.0,0.0,
1.5576,4.583470089876325,4.583470089876325,5.983904683458056,0.0,0.0,0.0,5.050281621070236,0.0,0.0,0.0,0.0,0.0,0.0,0.0,0.0,0.0,0.0,0.0,0.0,0.0,0.0,
1.5725,4.587846177048283,4.587846177048283,5.991802050029149,0.0,0.0,0.0,5.055831468041904,0.0,0.0,0.0,0.0,0.0,0.0,0.0,0.0,0.0,0.0,0.0,0.0,0.0,0.0,
1.5873,4.592252348630447,4.592252348630447,5.999758181628453,0.0,0.0,0.0,5.061420959629783,0.0,0.0,0.0,0.0,0.0,0.0,0.0,0.0,0.0,0.0,0.0,0.0,0.0,0.0,
1.6021,4.5967184383161115,4.5967184383161115,6.007827082582029,0.0,0.0,0.0,5.067087986404751,0.0,0.0,0.0,0.0,0.0,0.0,0.0,0.0,0.0,0.0,0.0,0.0,0.0,0.0,
1.617,4.601275917441894,4.601275917441894,6.016065843119437,0.0,0.0,0.0,5.072872559334408,0.0,0.0,0.0,0.0,0.0,0.0,0.0,0.0,0.0,0.0,0.0,0.0,0.0,0.0,
1.6318,4.605864309391387,4.605864309391387,6.024365324986824,0.0,0.0,0.0,5.078697981256532,0.0,0.0,0.0,0.0,0.0,0.0,0.0,0.0,0.0,0.0,0.0,0.0,0.0,0.0,
1.6466,4.610514705640224,4.610514705640224,6.0327819099284214,0.0,0.0,0.0,5.08460377373629,0.0,0.0,0.0,0.0,0.0,0.0,0.0,0.0,0.0,0.0,0.0,0.0,0.0,0.0,
1.6615,4.615259893130599,4.615259893130599,6.041375185805819,0.0,0.0,0.0,5.090631657355672,0.0,0.0,0.0,0.0,0.0,0.0,0.0,0.0,0.0,0.0,0.0,0.0,0.0,0.0,
1.6763,4.6200369258249925,4.6200369258249925,6.05003136243589,0.0,0.0,0.0,5.096701738028625,0.0,0.0,0.0,0.0,0.0,0.0,0.0,0.0,0.0,0.0,0.0,0.0,0.0,0.0,
1.6911,4.624878199024371,4.624878199024371,6.058809294893463,0.0,0.0,0.0,5.102855230980735,0.0,0.0,0.0,0.0,0.0,0.0,0.0,0.0,0.0,0.0,0.0,0.0,0.0,0.0,
1.706,4.629817865543293,4.629817865543293,6.067771173564538,0.0,0.0,0.0,5.109135634883708,0.0,0.0,0.0,0.0,0.0,0.0,0.0,0.0,0.0,0.0,0.0,0.0,0.0,0.0,
1.7208,4.634790423530358,4.634790423530358,6.07679837686704,0.0,0.0,0.0,5.115459741309252,0.0,0.0,0.0,0.0,0.0,0.0,0.0,0.0,0.0,0.0,0.0,0.0,0.0,0.0,
1.7356,4.639829621666069,4.639829621666069,6.085952336573734,0.0,0.0,0.0,5.12187052663529,0.0,0.0,0.0,0.0,0.0,0.0,0.0,0.0,0.0,0.0,0.0,0.0,0.0,0.0,
1.7505,4.644971032803998,4.644971032803998,6.095297958771788,0.0,0.0,0.0,5.128413341459928,0.0,0.0,0.0,0.0,0.0,0.0,0.0,0.0,0.0,0.0,0.0,0.0,0.0,0.0,
1.7653,4.650146506801098,4.650146506801098,6.104711598043193,0.0,0.0,0.0,5.135001537215129,0.0,0.0,0.0,0.0,0.0,0.0,0.0,0.0,0.0,0.0,0.0,0.0,0.0,0.0,
1.7802,4.6554268736995335,4.6554268736995335,6.114322326576913,0.0,0.0,0.0,5.1417253579919935,0.0,0.0,0.0,0.0,0.0,0.0,0.0,0.0,0.0,0.0,0.0,0.0,0.0,0.0,
1.795,4.660742161140211,4.660742161140211,6.124003031962763,0.0,0.0,0.0,5.148495784747729,0.0,0.0,0.0,0.0,0.0,0.0,0.0,0.0,0.0,0.0,0.0,0.0,0.0,0.0,
1.8098,4.666128495312858,4.666128495312858,6.133819694900179,0.0,0.0,0.0,5.155358895175298,0.0,0.0,0.0,0.0,0.0,0.0,0.0,0.0,0.0,0.0,0.0,0.0,0.0,0.0,
1.8247,4.671623949203209,4.671623949203209,6.1438420265852605,0.0,0.0,0.0,5.162363308330559,0.0,0.0,0.0,0.0,0.0,0.0,0.0,0.0,0.0,0.0,0.0,0.0,0.0,0.0,
1.8395,4.677155732971869,4.677155732971869,6.153937537911978,0.0,0.0,0.0,5.169416334618572,0.0,0.0,0.0,0.0,0.0,0.0,0.0,0.0,0.0,0.0,0.0,0.0,0.0,0.0,
1.8543,4.682761478329223,4.682761478329223,6.164175104346181,0.0,0.0,0.0,5.176566020334875,0.0,0.0,0.0,0.0,0.0,0.0,0.0,0.0,0.0,0.0,0.0,0.0,0.0,0.0,
1.8692,4.688480845049189,4.688480845049189,6.174627501919579,0.0,0.0,0.0,5.183863064005986,0.0,0.0,0.0,0.0,0.0,0.0,0.0,0.0,0.0,0.0,0.0,0.0,0.0,0.0,
1.884,4.694238114358589,4.694238114358589,6.185156631877719,0.0,0.0,0.0,5.191210953531632,0.0,0.0,0.0,0.0,0.0,0.0,0.0,0.0,0.0,0.0,0.0,0.0,0.0,0.0,
1.8988,4.700072489269619,4.700072489269619,6.195834402216589,0.0,0.0,0.0,5.198659793585276,0.0,0.0,0.0,0.0,0.0,0.0,0.0,0.0,0.0,0.0,0.0,0.0,0.0,0.0,
1.9137,4.706025288656958,4.706025288656958,6.206736805440965,0.0,0.0,0.0,5.2062624609182935,0.0,0.0,0.0,0.0,0.0,0.0,0.0,0.0,0.0,0.0,0.0,0.0,0.0,0.0,
1.9285,4.712017745019732,4.712017745019732,6.217719882365106,0.0,0.0,0.0,5.21391845746819,0.0,0.0,0.0,0.0,0.0,0.0,0.0,0.0,0.0,0.0,0.0,0.0,0.0,0.0,
1.9433,4.718090704059623,4.718090704059623,6.22885872312231,0.0,0.0,0.0,5.2216800437471855,0.0,0.0,0.0,0.0,0.0,0.0,0.0,0.0,0.0,0.0,0.0,0.0,0.0,0.0,
1.9582,4.724287222376038,4.724287222376038,6.24023270164983,0.0,0.0,0.0,5.229602382133969,0.0,0.0,0.0,0.0,0.0,0.0,0.0,0.0,0.0,0.0,0.0,0.0,0.0,0.0,
