energies(eV),real_xx,real_yy,real_zz,real_xy,real_yz,real_xz,real_ave,imag_xx,imag_yy,imag_zz,imag_xy,imag_yz,imag_xz,imag_ave,absorption_xx,absorption_yy,absorption_zz,absorption_xy,absorption_yz,absorption_xz,absorption_ave,band_gap
0.0,3.0548151900188225,2.936995824391068,3.126750169845489,0.0,0.0,0.0,3.0395203947517935,0.0,0.0,0.0,0.0,0.0,0.0,0.0,0.0,0.0,0.0,0.0,0.0,0.0,0.0,5.2331
0.0145,3.05481905926377,2.936999516235656,3.126754604621281,0.0,0.0,0.0,3.039524393373569,0.0,0.0,0.0,0.0,0.0,0.0,0.0,0.0,0.0,0.0,0.0,0.0,0.0,0.0,
0.029,3.0548306671214642,2.937010591896758,3.1267679091106833,0.0,0.0,0.0,3.039536389376302,0.0,0.0,0.0,0.0,0.0,0.0,0.0,0.0,0.0,0.0,0.0,0.0,0.0,0.0,
0.0435,3.054850013960488,2.9370290517563737,3.1267900837997904,0.0,0.0,0.0,3.039556383172217,0.0,0.0,0.0,0.0,0.0,0.0,0.0,0.0,0.0,0.0,0.0,0.0,0.0,0.0,
0.058,3.0548771003951987,2.9370548964512393,3.12682112949881,0.0,0.0,0.0,3.0395843754484155,0.0,0.0,0.0,0.0,0.0,0.0,0.0,0.0,0.0,0.0,0.0,0.0,0.0,0.0,
0.0725,3.054911927285767,2.937088126872876,3.1268610473421785,0.0,0.0,0.0,3.03962036716694,0.0,0.0,0.0,0.0,0.0,0.0,0.0,0.0,0.0,0.0,0.0,0.0,0.0,0.0,
0.0869,3.054954175648849,2.937128438749043,3.1269094719044412,0.0,0.0,0.0,3.039664028767445,0.0,0.0,0.0,0.0,0.0,0.0,0.0,0.0,0.0,0.0,0.0,0.0,0.0,0.0,
0.1014,3.055004433610754,2.9371763933594313,3.126967077520895,0.0,0.0,0.0,3.039715968163693,0.0,0.0,0.0,0.0,0.0,0.0,0.0,0.0,0.0,0.0,0.0,0.0,0.0,0.0,
0.1159,3.055062436073011,2.9372317378886637,3.1270335606160446,0.0,0.0,0.0,3.0397759115259064,0.0,0.0,0.0,0.0,0.0,0.0,0.0,0.0,0.0,0.0,0.0,0.0,0.0,0.0,
0.1304,3.055128184878441,2.937294474246894,3.127108923620558,0.0,0.0,0.0,3.0398438609152976,0.0,0.0,0.0,0.0,0.0,0.0,0.0,0.0,0.0,0.0,0.0,0.0,0.0,0.0,
0.1449,3.055201682116301,2.9373646045998143,3.127193169290307,0.0,0.0,0.0,3.039919818668808,0.0,0.0,0.0,0.0,0.0,0.0,0.0,0.0,0.0,0.0,0.0,0.0,0.0,0.0,
0.1594,3.055282930122538,2.9374421313688925,3.12728630070666,0.0,0.0,0.0,3.0400037873993635,0.0,0.0,0.0,0.0,0.0,0.0,0.0,0.0,0.0,0.0,0.0,0.0,0.0,0.0,
0.1739,3.0553719314799492,2.9375270572316485,3.1273883212768787,0.0,0.0,0.0,3.040095769996159,0.0,0.0,0.0,0.0,0.0,0.0,0.0,0.0,0.0,0.0,0.0,0.0,0.0,0.0,
0.1884,3.0554686890184852,2.937619385121919,3.127499234734414,0.0,0.0,0.0,3.040195769624939,0.0,0.0,0.0,0.0,0.0,0.0,0.0,0.0,0.0,0.0,0.0,0.0,0.0,0.0,
0.2029,3.0555732058154845,2.9377191182301954,3.127619045139433,0.0,0.0,0.0,3.040303789728371,0.0,0.0,0.0,0.0,0.0,0.0,0.0,0.0,0.0,0.0,0.0,0.0,0.0,0.0,
0.2174,3.055685485195975,2.9378262600039564,3.1277477568791694,0.0,0.0,0.0,3.0404198340263675,0.0,0.0,0.0,0.0,0.0,0.0,0.0,0.0,0.0,0.0,0.0,0.0,0.0,0.0,
0.2318,3.055804676229026,2.9379399987269914,3.1278843950702573,0.0,0.0,0.0,3.040543023342092,0.0,0.0,0.0,0.0,0.0,0.0,0.0,0.0,0.0,0.0,0.0,0.0,0.0,0.0,
0.2463,3.0559324381442536,2.938061918042793,3.1280308624782753,0.0,0.0,0.0,3.0406750728884404,0.0,0.0,0.0,0.0,0.0,0.0,0.0,0.0,0.0,0.0,0.0,0.0,0.0,0.0,
0.2608,3.05606797407858,2.9381912578823837,3.128186246312316,0.0,0.0,0.0,3.0408151594244264,0.0,0.0,0.0,0.0,0.0,0.0,0.0,0.0,0.0,0.0,0.0,0.0,0.0,0.0,
0.2753,3.056211288349474,2.9383280227234803,3.1283505522711135,0.0,0.0,0.0,3.0409632877813557,0.0,0.0,0.0,0.0,0.0,0.0,0.0,0.0,0.0,0.0,0.0,0.0,0.0,0.0,
0.2898,3.0563623855239515,2.9384722173029107,3.128523786383272,0.0,0.0,0.0,3.0411194630700447,0.0,0.0,0.0,0.0,0.0,0.0,0.0,0.0,0.0,0.0,0.0,0.0,0.0,0.0,
0.3043,3.056521270418905,2.9386238466171952,3.1287059550080487,0.0,0.0,0.0,3.0412836906813836,0.0,0.0,0.0,0.0,0.0,0.0,0.0,0.0,0.0,0.0,0.0,0.0,0.0,0.0,
0.3188,3.0566879481017124,2.938782915922995,3.128897064835995,0.0,0.0,0.0,3.0414559762869007,0.0,0.0,0.0,0.0,0.0,0.0,0.0,0.0,0.0,0.0,0.0,0.0,0.0,0.0,
0.3333,3.056862423890601,2.9389494307378357,3.1290971228897537,0.0,0.0,0.0,3.041636325839397,0.0,0.0,0.0,0.0,0.0,0.0,0.0,0.0,0.0,0.0,0.0,0.0,0.0,0.0,
0.3478,3.057044703355198,2.939123396840543,3.1293061365248294,0.0,0.0,0.0,3.0418247455735234,0.0,0.0,0.0,0.0,0.0,0.0,0.0,0.0,0.0,0.0,0.0,0.0,0.0,0.0,
0.3623,3.0572347923170704,2.9393048202719876,3.129524113430455,0.0,0.0,0.0,3.0420212420065043,0.0,0.0,0.0,0.0,0.0,0.0,0.0,0.0,0.0,0.0,0.0,0.0,0.0,0.0,
0.3767,3.057431305212798,2.939492379092326,3.1297494657293976,0.0,0.0,0.0,3.04222438334484,0.0,0.0,0.0,0.0,0.0,0.0,0.0,0.0,0.0,0.0,0.0,0.0,0.0,0.0,
0.3912,3.057636977678113,2.939688684813491,3.129985331624827,0.0,0.0,0.0,3.0424369980388106,0.0,0.0,0.0,0.0,0.0,0.0,0.0,0.0,0.0,0.0,0.0,0.0,0.0,0.0,
0.4057,3.0578504785764644,2.9398924675167524,3.1302301858083394,0.0,0.0,0.0,3.042657710633852,0.0,0.0,0.0,0.0,0.0,0.0,0.0,0.0,0.0,0.0,0.0,0.0,0.0,0.0,
0.4202,3.0580718147412034,2.940103734296091,3.130484037310645,0.0,0.0,0.0,3.0428865287826468,0.0,0.0,0.0,0.0,0.0,0.0,0.0,0.0,0.0,0.0,0.0,0.0,0.0,0.0,
0.4347,3.058300993260701,2.94032249251105,3.1307468955009092,0.0,0.0,0.0,3.0431234604242197,0.0,0.0,0.0,0.0,0.0,0.0,0.0,0.0,0.0,0.0,0.0,0.0,0.0,0.0,
0.4492,3.058538021478917,2.9405487497876,3.1310187700877115,0.0,0.0,0.0,3.0433685137847433,0.0,0.0,0.0,0.0,0.0,0.0,0.0,0.0,0.0,0.0,0.0,0.0,0.0,0.0,
0.4637,3.0587829069962114,2.940782514018965,3.1312996711202903,0.0,0.0,0.0,3.043621697378489,0.0,0.0,0.0,0.0,0.0,0.0,0.0,0.0,0.0,0.0,0.0,0.0,0.0,0.0,
0.4782,3.059035657670018,2.9410237933664565,3.1315896089895396,0.0,0.0,0.0,3.0438830200086713,0.0,0.0,0.0,0.0,0.0,0.0,0.0,0.0,0.0,0.0,0.0,0.0,0.0,0.0,
0.4927,3.0592962816156333,2.94127259626043,3.1318885944292854,0.0,0.0,0.0,3.044152490768449,0.0,0.0,0.0,0.0,0.0,0.0,0.0,0.0,0.0,0.0,0.0,0.0,0.0,0.0,
0.5072,3.059564787206952,2.9415289314011908,3.1321966385174838,0.0,0.0,0.0,3.0444301190418757,0.0,0.0,0.0,0.0,0.0,0.0,0.0,0.0,0.0,0.0,0.0,0.0,0.0,0.0,
0.5216,3.0598392498586486,2.941790962077217,3.1325115345962775,0.0,0.0,0.0,3.0447139155107146,0.0,0.0,0.0,0.0,0.0,0.0,0.0,0.0,0.0,0.0,0.0,0.0,0.0,0.0,
0.5361,3.060123490393684,2.942062336792593,3.1328376679236225,0.0,0.0,0.0,3.0450078317032996,0.0,0.0,0.0,0.0,0.0,0.0,0.0,0.0,0.0,0.0,0.0,0.0,0.0,0.0,
0.5506,3.0604156391922004,2.942341271418499,3.1331728951261217,0.0,0.0,0.0,3.0453099352456072,0.0,0.0,0.0,0.0,0.0,0.0,0.0,0.0,0.0,0.0,0.0,0.0,0.0,0.0,
0.5651,3.0607157056692182,2.9426277757430377,3.1335172286688837,0.0,0.0,0.0,3.045620236693713,0.0,0.0,0.0,0.0,0.0,0.0,0.0,0.0,0.0,0.0,0.0,0.0,0.0,0.0,
0.5796,3.061023699502686,2.942921859829406,3.133870681367872,0.0,0.0,0.0,3.045938746899988,0.0,0.0,0.0,0.0,0.0,0.0,0.0,0.0,0.0,0.0,0.0,0.0,0.0,0.0,
0.5941,3.0613396306344582,2.943223534016965,3.134233266391362,0.0,0.0,0.0,3.0462654770142614,0.0,0.0,0.0,0.0,0.0,0.0,0.0,0.0,0.0,0.0,0.0,0.0,0.0,0.0,
0.6086,3.061663509271206,2.9435328089224164,3.134604997261504,0.0,0.0,0.0,3.0466004384850423,0.0,0.0,0.0,0.0,0.0,0.0,0.0,0.0,0.0,0.0,0.0,0.0,0.0,0.0,
0.6231,3.0619953458855114,2.9438496954409885,3.134985887855821,0.0,0.0,0.0,3.0469436430607737,0.0,0.0,0.0,0.0,0.0,0.0,0.0,0.0,0.0,0.0,0.0,0.0,0.0,0.0,
0.6376,3.06233515121677,2.9441742047476334,3.1353759524088702,0.0,0.0,0.0,3.0472951027910913,0.0,0.0,0.0,0.0,0.0,0.0,0.0,0.0,0.0,0.0,0.0,0.0,0.0,0.0,
0.6521,3.06268293627236,2.9445063482983334,3.135775205513849,0.0,0.0,0.0,3.047654830028181,0.0,0.0,0.0,0.0,0.0,0.0,0.0,0.0,0.0,0.0,0.0,0.0,0.0,0.0,
0.6665,3.0630362313094066,2.9448437682444304,3.1361808136301583,0.0,0.0,0.0,3.0480202710613313,0.0,0.0,0.0,0.0,0.0,0.0,0.0,0.0,0.0,0.0,0.0,0.0,0.0,0.0,
0.681,3.0633999546826955,2.945191162925952,3.13659842543035,0.0,0.0,0.0,3.0483965143463325,0.0,0.0,0.0,0.0,0.0,0.0,0.0,0.0,0.0,0.0,0.0,0.0,0.0,0.0,
0.6955,3.063771692338453,2.9455462278325903,3.1370252716217757,0.0,0.0,0.0,3.048781063930939,0.0,0.0,0.0,0.0,0.0,0.0,0.0,0.0,0.0,0.0,0.0,0.0,0.0,0.0,
0.71,3.064151456364935,2.9459089755555263,3.1374613682470516,0.0,0.0,0.0,3.0491739333891714,0.0,0.0,0.0,0.0,0.0,0.0,0.0,0.0,0.0,0.0,0.0,0.0,0.0,0.0,
0.7245,3.0645392591240026,2.9462794189737074,3.1379067317164306,0.0,0.0,0.0,3.0495751366047137,0.0,0.0,0.0,0.0,0.0,0.0,0.0,0.0,0.0,0.0,0.0,0.0,0.0,0.0,
0.739,3.0649351132523543,2.9466575712553045,3.138361378809577,0.0,0.0,0.0,3.0499846877724117,0.0,0.0,0.0,0.0,0.0,0.0,0.0,0.0,0.0,0.0,0.0,0.0,0.0,0.0,
0.7535,3.065339031662759,2.947043445859226,3.138825326677649,0.0,0.0,0.0,3.050402601399878,0.0,0.0,0.0,0.0,0.0,0.0,0.0,0.0,0.0,0.0,0.0,0.0,0.0,0.0,
0.768,3.065751027545331,2.9474370565366064,3.139298592845217,0.0,0.0,0.0,3.050828892309051,0.0,0.0,0.0,0.0,0.0,0.0,0.0,0.0,0.0,0.0,0.0,0.0,0.0,0.0,
0.7825,3.0661711143688617,2.947838417332415,3.139781195212407,0.0,0.0,0.0,3.0512635756378947,0.0,0.0,0.0,0.0,0.0,0.0,0.0,0.0,0.0,0.0,0.0,0.0,0.0,0.0,
0.797,3.0665993058821575,2.9482475425870485,3.1402731520569573,0.0,0.0,0.0,3.0517066668420547,0.0,0.0,0.0,0.0,0.0,0.0,0.0,0.0,0.0,0.0,0.0,0.0,0.0,0.0,
0.8114,3.0670325792443784,2.9486615450622633,3.1407709924469174,0.0,0.0,0.0,3.052155038917853,0.0,0.0,0.0,0.0,0.0,0.0,0.0,0.0,0.0,0.0,0.0,0.0,0.0,0.0,
0.8259,3.067476966370967,2.9490861896419034,3.1412816497611282,0.0,0.0,0.0,3.052614935257999,0.0,0.0,0.0,0.0,0.0,0.0,0.0,0.0,0.0,0.0,0.0,0.0,0.0,0.0,
0.8404,3.0679295010259855,2.9495186433846374,3.1418017185383293,0.0,0.0,0.0,3.0530832876496508,0.0,0.0,0.0,0.0,0.0,0.0,0.0,0.0,0.0,0.0,0.0,0.0,0.0,0.0,
0.8549,3.068390198090308,2.9499589218272684,3.142331218586232,0.0,0.0,0.0,3.053560112834603,0.0,0.0,0.0,0.0,0.0,0.0,0.0,0.0,0.0,0.0,0.0,0.0,0.0,0.0,
0.8694,3.0688590727319958,2.9504070408106378,3.1428701701015065,0.0,0.0,0.0,3.05404542788138,0.0,0.0,0.0,0.0,0.0,0.0,0.0,0.0,0.0,0.0,0.0,0.0,0.0,0.0,
0.8839,3.0693361404077715,2.9508630164814287,3.1434185936721386,0.0,0.0,0.0,3.0545392501871134,0.0,0.0,0.0,0.0,0.0,0.0,0.0,0.0,0.0,0.0,0.0,0.0,0.0,0.0,
0.8984,3.06982141686463,2.9513268652940488,3.143976510279917,0.0,0.0,0.0,3.0550415974795317,0.0,0.0,0.0,0.0,0.0,0.0,0.0,0.0,0.0,0.0,0.0,0.0,0.0,0.0,
0.9129,3.070314918141419,2.951798604012537,3.144543941303008,0.0,0.0,0.0,3.055552487818988,0.0,0.0,0.0,0.0,0.0,0.0,0.0,0.0,0.0,0.0,0.0,0.0,0.0,0.0,
0.9274,3.0708166605704332,2.952278249712542,3.1451209085184755,0.0,0.0,0.0,3.0560719396004834,0.0,0.0,0.0,0.0,0.0,0.0,0.0,0.0,0.0,0.0,0.0,0.0,0.0,0.0,
0.9419,3.071326660779106,2.9527658197832958,3.145707434104875,0.0,0.0,0.0,3.056599971555759,0.0,0.0,0.0,0.0,0.0,0.0,0.0,0.0,0.0,0.0,0.0,0.0,0.0,0.0,
0.9563,3.07184133300628,2.9532578873661075,3.1462993967034847,0.0,0.0,0.0,3.057132872358624,0.0,0.0,0.0,0.0,0.0,0.0,0.0,0.0,0.0,0.0,0.0,0.0,0.0,0.0,
0.9708,3.072367842600238,2.9537613046510285,3.146905040873479,0.0,0.0,0.0,3.0576780627082485,0.0,0.0,0.0,0.0,0.0,0.0,0.0,0.0,0.0,0.0,0.0,0.0,0.0,0.0,
0.9853,3.072902661522155,2.9542727002490006,3.147520312223826,0.0,0.0,0.0,3.05823189133166,0.0,0.0,0.0,0.0,0.0,0.0,0.0,0.0,0.0,0.0,0.0,0.0,0.0,0.0,
0.9998,3.0734458075951507,2.9547920928222435,3.148145234563854,0.0,0.0,0.0,3.058794378327083,0.0,0.0,0.0,0.0,0.0,0.0,0.0,0.0,0.0,0.0,0.0,0.0,0.0,0.0,
1.0143,3.0739972989462836,2.9553195013571925,3.1487798321184037,0.0,0.0,0.0,3.059365544140627,0.0,0.0,0.0,0.0,0.0,0.0,0.0,0.0,0.0,0.0,0.0,0.0,0.0,0.0,
1.0288,3.074557154008388,2.9558549451667524,3.1494241295308405,0.0,0.0,0.0,3.0599454095686602,0.0,0.0,0.0,0.0,0.0,0.0,0.0,0.0,0.0,0.0,0.0,0.0,0.0,0.0,
1.0433,3.0751253915220036,2.956398443892626,3.1500781518660244,0.0,0.0,0.0,3.0605339957602182,0.0,0.0,0.0,0.0,0.0,0.0,0.0,0.0,0.0,0.0,0.0,0.0,0.0,0.0,
1.0578,3.07570203053725,2.9569500175075993,3.150741924613484,0.0,0.0,0.0,3.0611313242194442,0.0,0.0,0.0,0.0,0.0,0.0,0.0,0.0,0.0,0.0,0.0,0.0,0.0,0.0,
1.0723,3.0762870904159283,2.9575096863180113,3.1514154736904643,0.0,0.0,0.0,3.061737416808135,0.0,0.0,0.0,0.0,0.0,0.0,0.0,0.0,0.0,0.0,0.0,0.0,0.0,0.0,
1.0868,3.0768805908333885,2.9580774709661517,3.152098825445253,0.0,0.0,0.0,3.0623522957482643,0.0,0.0,0.0,0.0,0.0,0.0,0.0,0.0,0.0,0.0,0.0,0.0,0.0,0.0,
1.1013,3.0774825517806885,2.9586533924327707,3.152792006660416,0.0,0.0,0.0,3.062975983624625,0.0,0.0,0.0,0.0,0.0,0.0,0.0,0.0,0.0,0.0,0.0,0.0,0.0,0.0,
1.1157,3.0780887545339417,2.959233415917784,3.153490162202081,0.0,0.0,0.0,3.063604110884602,0.0,0.0,0.0,0.0,0.0,0.0,0.0,0.0,0.0,0.0,0.0,0.0,0.0,0.0,
1.1302,3.0787076390850143,2.9598256188427365,3.1542030161759445,0.0,0.0,0.0,3.064245424701232,0.0,0.0,0.0,0.0,0.0,0.0,0.0,0.0,0.0,0.0,0.0,0.0,0.0,0.0,
1.1447,3.0793350459085325,2.960426023431804,3.1549257824019326,0.0,0.0,0.0,3.064895617247423,0.0,0.0,0.0,0.0,0.0,0.0,0.0,0.0,0.0,0.0,0.0,0.0,0.0,0.0,
1.1592,3.0799709962772437,2.961034652043026,3.1556584894307367,0.0,0.0,0.0,3.065554712583669,0.0,0.0,0.0,0.0,0.0,0.0,0.0,0.0,0.0,0.0,0.0,0.0,0.0,0.0,
1.1737,3.0806155117903873,2.9616515273860924,3.156401166264684,0.0,0.0,0.0,3.0662227351470546,0.0,0.0,0.0,0.0,0.0,0.0,0.0,0.0,0.0,0.0,0.0,0.0,0.0,0.0,
1.1882,3.081268614375945,2.9622766725251077,3.157153842361411,0.0,0.0,0.0,3.066899709754155,0.0,0.0,0.0,0.0,0.0,0.0,0.0,0.0,0.0,0.0,0.0,0.0,0.0,0.0,
1.2027,3.081930326293042,2.962910110881464,3.157916547637689,0.0,0.0,0.0,3.067585661604065,0.0,0.0,0.0,0.0,0.0,0.0,0.0,0.0,0.0,0.0,0.0,0.0,0.0,0.0,
1.2172,3.082600670134233,2.963551866236728,3.158689312473095,0.0,0.0,0.0,3.0682806162813523,0.0,0.0,0.0,0.0,0.0,0.0,0.0,0.0,0.0,0.0,0.0,0.0,0.0,0.0,
1.2317,3.083279668827977,2.964201962735581,3.1594721677140662,0.0,0.0,0.0,3.068984599759208,0.0,0.0,0.0,0.0,0.0,0.0,0.0,0.0,0.0,0.0,0.0,0.0,0.0,0.0,
1.2462,3.083967345641076,2.9648604248888453,3.160265144677777,0.0,0.0,0.0,3.069697638402566,0.0,0.0,0.0,0.0,0.0,0.0,0.0,0.0,0.0,0.0,0.0,0.0,0.0,0.0,
1.2606,3.084658891717213,2.9655226498019154,3.1610627014815185,0.0,0.0,0.0,3.070414747666882,0.0,0.0,0.0,0.0,0.0,0.0,0.0,0.0,0.0,0.0,0.0,0.0,0.0,0.0,
1.2751,3.0853639356753857,2.9661978601491716,3.161875947387134,0.0,0.0,0.0,3.0711459144038975,0.0,0.0,0.0,0.0,0.0,0.0,0.0,0.0,0.0,0.0,0.0,0.0,0.0,0.0,
1.2896,3.0860777294397534,2.966881511733029,3.1626994116047897,0.0,0.0,0.0,3.071886217592524,0.0,0.0,0.0,0.0,0.0,0.0,0.0,0.0,0.0,0.0,0.0,0.0,0.0,0.0,
1.3041,3.0868002976534883,2.9675736305574745,3.1635331273725056,0.0,0.0,0.0,3.072635685194489,0.0,0.0,0.0,0.0,0.0,0.0,0.0,0.0,0.0,0.0,0.0,0.0,0.0,0.0,
1.3186,3.087531665311006,2.9682742430084974,3.164377128419967,0.0,0.0,0.0,3.0733943455798234,0.0,0.0,0.0,0.0,0.0,0.0,0.0,0.0,0.0,0.0,0.0,0.0,0.0,0.0,
1.3331,3.088271857760689,2.968983375857476,3.165231448973009,0.0,0.0,0.0,3.074162227530391,0.0,0.0,0.0,0.0,0.0,0.0,0.0,0.0,0.0,0.0,0.0,0.0,0.0,0.0,
1.3476,3.089020900707698,2.9697010562645856,3.166096123758131,0.0,0.0,0.0,3.074939360243471,0.0,0.0,0.0,0.0,0.0,0.0,0.0,0.0,0.0,0.0,0.0,0.0,0.0,0.0,
1.3621,3.089778820216759,2.970427311782287,3.166971188007039,0.0,0.0,0.0,3.075725773335362,0.0,0.0,0.0,0.0,0.0,0.0,0.0,0.0,0.0,0.0,0.0,0.0,0.0,0.0,
1.3766,3.090545642715039,2.971162170358877,3.167856677461391,0.0,0.0,0.0,3.076521496845102,0.0,0.0,0.0,0.0,0.0,0.0,0.0,0.0,0.0,0.0,0.0,0.0,0.0,0.0,
1.3911,3.0913213949950396,2.9719056603421006,3.168752628377508,0.0,0.0,0.0,3.077326561238216,0.0,0.0,0.0,0.0,0.0,0.0,0.0,0.0,0.0,0.0,0.0,0.0,0.0,0.0,
1.4055,3.0921006616944586,2.972652593517685,3.1696527901220644,0.0,0.0,0.0,3.078135348444736,0.0,0.0,0.0,0.0,0.0,0.0,0.0,0.0,0.0,0.0,0.0,0.0,0.0,0.0,
1.42,3.092894293334799,2.9734133729465224,3.1705697020259573,0.0,0.0,0.0,3.0789591227690933,0.0,0.0,0.0,0.0,0.0,0.0,0.0,0.0,0.0,0.0,0.0,0.0,0.0,0.0,
1.4345,3.0936969371627536,2.9741828710536438,3.171497187034974,0.0,0.0,0.0,3.079792331750457,0.0,0.0,0.0,0.0,0.0,0.0,0.0,0.0,0.0,0.0,0.0,0.0,0.0,0.0,
1.449,3.094508621459853,2.9749611178191615,3.172435283509884,0.0,0.0,0.0,3.0806350075962996,0.0,0.0,0.0,0.0,0.0,0.0,0.0,0.0,0.0,0.0,0.0,0.0,0.0,0.0,
1.4635,3.0953293748883155,2.97574814364165,3.1733840303512864,0.0,0.0,0.0,3.081487182960417,0.0,0.0,0.0,0.0,0.0,0.0,0.0,0.0,0.0,0.0,0.0,0.0,0.0,0.0,
1.478,3.0961592264942595,2.9765439793422335,3.174343467004912,0.0,0.0,0.0,3.082348890947135,0.0,0.0,0.0,0.0,0.0,0.0,0.0,0.0,0.0,0.0,0.0,0.0,0.0,0.0,
1.4925,3.096998205710987,2.9773486561685862,3.1753136334670287,0.0,0.0,0.0,3.083220165115534,0.0,0.0,0.0,0.0,0.0,0.0,0.0,0.0,0.0,0.0,0.0,0.0,0.0,0.0,
1.507,3.0978463423623603,2.978162205799225,3.176294570289915,0.0,0.0,0.0,3.0841010394838335,0.0,0.0,0.0,0.0,0.0,0.0,0.0,0.0,0.0,0.0,0.0,0.0,0.0,0.0,
1.5215,3.098703666666161,2.9789846603476455,3.177286318587518,0.0,0.0,0.0,3.084991548533775,0.0,0.0,0.0,0.0,0.0,0.0,0.0,0.0,0.0,0.0,0.0,0.0,0.0,0.0,
1.536,3.0995702092375375,2.9798160523667017,3.1782889200411235,0.0,0.0,0.0,3.0858917272151207,0.0,0.0,0.0,0.0,0.0,0.0,0.0,0.0,0.0,0.0,0.0,0.0,0.0,0.0,
1.5504,3.1004399294033416,2.9806505884544934,3.179295389863253,0.0,0.0,0.0,3.086795302573696,0.0,0.0,0.0,0.0,0.0,0.0,0.0,0.0,0.0,0.0,0.0,0.0,0.0,0.0,
1.5649,3.1013249378490757,2.981499892641362,3.1803197493871167,0.0,0.0,0.0,3.087714859959185,0.0,0.0,0.0,0.0,0.0,0.0,0.0,0.0,0.0,0.0,0.0,0.0,0.0,0.0,
1.5794,3.102219258606602,2.9823582344025654,3.1813550902721133,0.0,0.0,0.0,3.0886441944270935,0.0,0.0,0.0,0.0,0.0,0.0,0.0,0.0,0.0,0.0,0.0,0.0,0.0,0.0,
1.5939,3.1031229239134235,2.9832256480899924,3.18240145652401,0.0,0.0,0.0,3.0895833428424755,0.0,0.0,0.0,0.0,0.0,0.0,0.0,0.0,0.0,0.0,0.0,0.0,0.0,0.0,
1.6084,3.1040359664225243,2.9841021685176363,3.1834588927459713,0.0,0.0,0.0,3.090532342562044,0.0,0.0,0.0,0.0,0.0,0.0,0.0,0.0,0.0,0.0,0.0,0.0,0.0,0.0,
1.6229,3.104958419206218,2.9849878309664364,3.1845274441449574,0.0,0.0,0.0,3.091491231439204,0.0,0.0,0.0,0.0,0.0,0.0,0.0,0.0,0.0,0.0,0.0,0.0,0.0,0.0,
1.6374,3.105890315759974,2.98588267118913,3.1856071565381745,0.0,0.0,0.0,3.0924600478290927,0.0,0.0,0.0,0.0,0.0,0.0,0.0,0.0,0.0,0.0,0.0,0.0,0.0,0.0,
1.6519,3.106831690006409,2.986786725415313,3.186698076359684,0.0,0.0,0.0,3.093438830593802,0.0,0.0,0.0,0.0,0.0,0.0,0.0,0.0,0.0,0.0,0.0,0.0,0.0,0.0,
1.6664,3.1077825762992686,2.9877000303564496,3.1878002506670686,0.0,0.0,0.0,3.0944276191075955,0.0,0.0,0.0,0.0,0.0,0.0,0.0,0.0,0.0,0.0,0.0,0.0,0.0,0.0,
1.6809,3.108743009427494,2.988622623211075,3.1889137271483055,0.0,0.0,0.0,3.0954264532622915,0.0,0.0,0.0,0.0,0.0,0.0,0.0,0.0,0.0,0.0,0.0,0.0,0.0,0.0,
1.6953,3.1097063019647893,2.989548082624089,3.1900307577204563,0.0,0.0,0.0,3.0964283807697783,0.0,0.0,0.0,0.0,0.0,0.0,0.0,0.0,0.0,0.0,0.0,0.0,0.0,0.0,
1.7098,3.110685868439777,2.9904893001661104,3.1911669053834433,0.0,0.0,0.0,3.097447357996444,0.0,0.0,0.0,0.0,0.0,0.0,0.0,0.0,0.0,0.0,0.0,0.0,0.0,0.0,
1.7243,3.1116750885192674,2.9914399199240855,3.1923145017921004,0.0,0.0,0.0,3.0984765034118182,0.0,0.0,0.0,0.0,0.0,0.0,0.0,0.0,0.0,0.0,0.0,0.0,0.0,0.0,
1.7388,3.112673998772018,2.992399981094813,3.1934735972220643,0.0,0.0,0.0,3.0995158590296317,0.0,0.0,0.0,0.0,0.0,0.0,0.0,0.0,0.0,0.0,0.0,0.0,0.0,0.0,
1.7533,3.113682636223315,2.993369523389397,3.19464424261541,0.0,0.0,0.0,3.1005654674093734,0.0,0.0,0.0,0.0,0.0,0.0,0.0,0.0,0.0,0.0,0.0,0.0,0.0,0.0,
1.7678,3.114701038359569,2.994348587039025,3.1958264895881063,0.0,0.0,0.0,3.1016253716622337,0.0,0.0,0.0,0.0,0.0,0.0,0.0,0.0,0.0,0.0,0.0,0.0,0.0,0.0,
1.7823,3.115729243132795,2.995337212800707,3.1970203904378733,0.0,0.0,0.0,3.1026956154571246,0.0,0.0,0.0,0.0,0.0,0.0,0.0,0.0,0.0,0.0,0.0,0.0,0.0,0.0,
1.7968,3.1167672889653377,2.99633544196341,3.1982259981520236,0.0,0.0,0.0,3.1037762430269242,0.0,0.0,0.0,0.0,0.0,0.0,0.0,0.0,0.0,0.0,0.0,0.0,0.0,0.0,
1.8113,3.117815214754543,2.9973433163539926,3.1994433664155,0.0,0.0,0.0,3.1048672991746784,0.0,0.0,0.0,0.0,0.0,0.0,0.0,0.0,0.0,0.0,0.0,0.0,0.0,0.0,
1.8258,3.1188730598776084,2.9983608783434637,3.2006725496190067,0.0,0.0,0.0,3.1059688292800263,0.0,0.0,0.0,0.0,0.0,0.0,0.0,0.0,0.0,0.0,0.0,0.0,0.0,0.0,
1.8402,3.1199334658319806,2.999381052656598,3.201905003104017,0.0,0.0,0.0,3.107073173864199,0.0,0.0,0.0,0.0,0.0,0.0,0.0,0.0,0.0,0.0,0.0,0.0,0.0,0.0,
1.8547,3.121011200596435,3.000418051607897,3.2031578997845953,0.0,0.0,0.0,3.1081957173296426,0.0,0.0,0.0,0.0,0.0,0.0,0.0,0.0,0.0,0.0,0.0,0.0,0.0,0.0,
1.8692,3.122098975471139,3.0014648682937293,3.204422778503695,0.0,0.0,0.0,3.109328874089521,0.0,0.0,0.0,0.0,0.0,0.0,0.0,0.0,0.0,0.0,0.0,0.0,0.0,0.0,
1.8837,3.1231968317988112,3.002521547321771,3.205699696554915,0.0,0.0,0.0,3.1104726918918324,0.0,0.0,0.0,0.0,0.0,0.0,0.0,0.0,0.0,0.0,0.0,0.0,0.0,0.0,
