energies(eV),real_xx,real_yy,real_zz,real_xy,real_yz,real_xz,real_ave,imag_xx,imag_yy,imag_zz,imag_xy,imag_yz,imag_xz,imag_ave,absorption_xx,absorption_yy,absorption_zz,absorption_xy,absorption_yz,absorption_xz,absorption_ave,band_gap
0.0,2.524267708479462,2.524267708479462,2.4779495507663407,0.0,0.0,0.0,2.5088283225750883,0.0,0.0,0.0,0.0,0.0,0.0,0.0,0.0,0.0,0.0,0.0,0.0,0.0,0.0,5.745699999999999
0.015,2.5242701274797046,2.5242701274797046,2.4779517113253124,0.0,0.0,0.0,2.5088306554282407,0.0,0.0,0.0,0.0,0.0,0.0,0.0,0.0,0.0,0.0,0.0,0.0,0.0,0.0,
0.0301,2.524277449167742,2.524277449167742,2.4779582507724625,0.0,0.0,0.0,2.5088377163693156,0.0,0.0,0.0,0.0,0.0,0.0,0.0,0.0,0.0,0.0,0.0,0.0,0.0,0.0,
0.0451,2.524289576785195,2.524289576785195,2.4779690826690985,0.0,0.0,0.0,2.5088494120798295,0.0,0.0,0.0,0.0,0.0,0.0,0.0,0.0,0.0,0.0,0.0,0.0,0.0,0.0,
0.0602,2.524306672399777,2.524306672399777,2.477984351737481,0.0,0.0,0.0,2.5088658988456785,0.0,0.0,0.0,0.0,0.0,0.0,0.0,0.0,0.0,0.0,0.0,0.0,0.0,0.0,
0.0752,2.5243285100877153,2.5243285100877153,2.4780038561504902,0.0,0.0,0.0,2.508886958775307,0.0,0.0,0.0,0.0,0.0,0.0,0.0,0.0,0.0,0.0,0.0,0.0,0.0,0.0,
0.0903,2.5243553816775877,2.5243553816775877,2.4780278565017433,0.0,0.0,0.0,2.5089128732856394,0.0,0.0,0.0,0.0,0.0,0.0,0.0,0.0,0.0,0.0,0.0,0.0,0.0,0.0,
0.1053,2.524386932053289,2.524386932053289,2.4780560355538404,0.0,0.0,0.0,2.508943299886806,0.0,0.0,0.0,0.0,0.0,0.0,0.0,0.0,0.0,0.0,0.0,0.0,0.0,0.0,
0.1204,2.5244235828394004,2.5244235828394004,2.478088769800282,0.0,0.0,0.0,2.508978645159694,0.0,0.0,0.0,0.0,0.0,0.0,0.0,0.0,0.0,0.0,0.0,0.0,0.0,0.0,
0.1354,2.524464849685163,2.524464849685163,2.4781256265589677,0.0,0.0,0.0,2.509018441976431,0.0,0.0,0.0,0.0,0.0,0.0,0.0,0.0,0.0,0.0,0.0,0.0,0.0,0.0,
0.1505,2.5245112840619814,2.5245112840619814,2.478167098264501,0.0,0.0,0.0,2.509063222129488,0.0,0.0,0.0,0.0,0.0,0.0,0.0,0.0,0.0,0.0,0.0,0.0,0.0,0.0,
0.1655,2.524562272326623,2.524562272326623,2.478212636743214,0.0,0.0,0.0,2.50911239379882,0.0,0.0,0.0,0.0,0.0,0.0,0.0,0.0,0.0,0.0,0.0,0.0,0.0,0.0,
0.1806,2.524618495863817,2.524618495863817,2.4782628504246276,0.0,0.0,0.0,2.509166614050754,0.0,0.0,0.0,0.0,0.0,0.0,0.0,0.0,0.0,0.0,0.0,0.0,0.0,0.0,
0.1956,2.5246792116646546,2.5246792116646546,2.4783170755841084,0.0,0.0,0.0,2.5092251663044727,0.0,0.0,0.0,0.0,0.0,0.0,0.0,0.0,0.0,0.0,0.0,0.0,0.0,0.0,
0.2107,2.524745231109327,2.524745231109327,2.4783760367127186,0.0,0.0,0.0,2.509288832977124,0.0,0.0,0.0,0.0,0.0,0.0,0.0,0.0,0.0,0.0,0.0,0.0,0.0,0.0,
0.2257,2.5248156817345473,2.5248156817345473,2.4784389544628693,0.0,0.0,0.0,2.509356772643988,0.0,0.0,0.0,0.0,0.0,0.0,0.0,0.0,0.0,0.0,0.0,0.0,0.0,0.0,
0.2408,2.5248915050138976,2.5248915050138976,2.4785066694664906,0.0,0.0,0.0,2.509429893164762,0.0,0.0,0.0,0.0,0.0,0.0,0.0,0.0,0.0,0.0,0.0,0.0,0.0,0.0,
0.2558,2.524971698925471,2.524971698925471,2.4785782866684594,0.0,0.0,0.0,2.509507228173134,0.0,0.0,0.0,0.0,0.0,0.0,0.0,0.0,0.0,0.0,0.0,0.0,0.0,0.0,
0.2709,2.5250573351499055,2.5250573351499055,2.4786547629336964,0.0,0.0,0.0,2.5095898110778356,0.0,0.0,0.0,0.0,0.0,0.0,0.0,0.0,0.0,0.0,0.0,0.0,0.0,0.0,
0.2859,2.525147281986944,2.525147281986944,2.4787350874023932,0.0,0.0,0.0,2.5096765504587606,0.0,0.0,0.0,0.0,0.0,0.0,0.0,0.0,0.0,0.0,0.0,0.0,0.0,0.0,
0.301,2.5252427414537255,2.5252427414537255,2.4788203332773477,0.0,0.0,0.0,2.509768605394933,0.0,0.0,0.0,0.0,0.0,0.0,0.0,0.0,0.0,0.0,0.0,0.0,0.0,0.0,
0.316,2.5253424520362686,2.5253424520362686,2.4789093737842425,0.0,0.0,0.0,2.5098647592855934,0.0,0.0,0.0,0.0,0.0,0.0,0.0,0.0,0.0,0.0,0.0,0.0,0.0,0.0,
0.3311,2.5254477462336107,2.5254477462336107,2.4790033985814963,0.0,0.0,0.0,2.509966297016239,0.0,0.0,0.0,0.0,0.0,0.0,0.0,0.0,0.0,0.0,0.0,0.0,0.0,0.0,
0.3461,2.5255572325669613,2.5255572325669613,2.4791011648578034,0.0,0.0,0.0,2.510071876663909,0.0,0.0,0.0,0.0,0.0,0.0,0.0,0.0,0.0,0.0,0.0,0.0,0.0,0.0,
0.3612,2.5256723741785114,2.5256723741785114,2.4792039788578695,0.0,0.0,0.0,2.5101829090716308,0.0,0.0,0.0,0.0,0.0,0.0,0.0,0.0,0.0,0.0,0.0,0.0,0.0,0.0,
0.3762,2.5257916494579717,2.5257916494579717,2.4793104815980795,0.0,0.0,0.0,2.5102979268380077,0.0,0.0,0.0,0.0,0.0,0.0,0.0,0.0,0.0,0.0,0.0,0.0,0.0,0.0,
0.3913,2.525916652367961,2.525916652367961,2.479422096053022,0.0,0.0,0.0,2.510418466929648,0.0,0.0,0.0,0.0,0.0,0.0,0.0,0.0,0.0,0.0,0.0,0.0,0.0,0.0,
0.4063,2.5260457309841318,2.5260457309841318,2.4795373469187965,0.0,0.0,0.0,2.510542936295687,0.0,0.0,0.0,0.0,0.0,0.0,0.0,0.0,0.0,0.0,0.0,0.0,0.0,0.0,
0.4214,2.52618061028282,2.52618061028282,2.479657774056397,0.0,0.0,0.0,2.5106729982073457,0.0,0.0,0.0,0.0,0.0,0.0,0.0,0.0,0.0,0.0,0.0,0.0,0.0,0.0,
0.4364,2.5263195078272958,2.5263195078272958,2.4797817856807924,0.0,0.0,0.0,2.5108069337784613,0.0,0.0,0.0,0.0,0.0,0.0,0.0,0.0,0.0,0.0,0.0,0.0,0.0,0.0,
0.4515,2.5264642798170875,2.5264642798170875,2.479911038708985,0.0,0.0,0.0,2.510946532781053,0.0,0.0,0.0,0.0,0.0,0.0,0.0,0.0,0.0,0.0,0.0,0.0,0.0,0.0,
0.4665,2.526613013088717,2.526613013088717,2.480043824701071,0.0,0.0,0.0,2.511089950292835,0.0,0.0,0.0,0.0,0.0,0.0,0.0,0.0,0.0,0.0,0.0,0.0,0.0,0.0,
0.4816,2.5267676952906095,2.5267676952906095,2.480181917812759,0.0,0.0,0.0,2.5112391027979926,0.0,0.0,0.0,0.0,0.0,0.0,0.0,0.0,0.0,0.0,0.0,0.0,0.0,0.0,
0.4966,2.526926282302225,2.526926282302225,2.480323492762569,0.0,0.0,0.0,2.5113920191223396,0.0,0.0,0.0,0.0,0.0,0.0,0.0,0.0,0.0,0.0,0.0,0.0,0.0,0.0,
0.5117,2.5270908934628578,2.5270908934628578,2.480470441140806,0.0,0.0,0.0,2.5115507426888404,0.0,0.0,0.0,0.0,0.0,0.0,0.0,0.0,0.0,0.0,0.0,0.0,0.0,0.0,
0.5267,2.5272593534485024,2.5272593534485024,2.4806208206247,0.0,0.0,0.0,2.511713175840568,0.0,0.0,0.0,0.0,0.0,0.0,0.0,0.0,0.0,0.0,0.0,0.0,0.0,0.0,
0.5418,2.5274339135477275,2.5274339135477275,2.480776640448282,0.0,0.0,0.0,2.5118814891812455,0.0,0.0,0.0,0.0,0.0,0.0,0.0,0.0,0.0,0.0,0.0,0.0,0.0,0.0,
0.5568,2.527612266970392,2.527612266970392,2.480935841034645,0.0,0.0,0.0,2.512053458325143,0.0,0.0,0.0,0.0,0.0,0.0,0.0,0.0,0.0,0.0,0.0,0.0,0.0,0.0,
0.5719,2.527796797229268,2.527796797229268,2.4811005494839993,0.0,0.0,0.0,2.5122313813141783,0.0,0.0,0.0,0.0,0.0,0.0,0.0,0.0,0.0,0.0,0.0,0.0,0.0,0.0,
0.5869,2.527985065789186,2.527985065789186,2.4812685887393586,0.0,0.0,0.0,2.512412906772577,0.0,0.0,0.0,0.0,0.0,0.0,0.0,0.0,0.0,0.0,0.0,0.0,0.0,0.0,
0.602,2.5281795886786202,2.5281795886786202,2.4814422040029216,0.0,0.0,0.0,2.5126004604533874,0.0,0.0,0.0,0.0,0.0,0.0,0.0,0.0,0.0,0.0,0.0,0.0,0.0,0.0,
0.617,2.528377795321971,2.528377795321971,2.481619100498361,0.0,0.0,0.0,2.5127915637141007,0.0,0.0,0.0,0.0,0.0,0.0,0.0,0.0,0.0,0.0,0.0,0.0,0.0,0.0,
0.632,2.52858096345524,2.52858096345524,2.481800418148365,0.0,0.0,0.0,2.5129874483529484,0.0,0.0,0.0,0.0,0.0,0.0,0.0,0.0,0.0,0.0,0.0,0.0,0.0,0.0,
0.6471,2.5287905035000864,2.5287905035000864,2.4819874150973704,0.0,0.0,0.0,2.5131894740325147,0.0,0.0,0.0,0.0,0.0,0.0,0.0,0.0,0.0,0.0,0.0,0.0,0.0,0.0,
0.6621,2.529003646450585,2.529003646450585,2.4821776197086485,0.0,0.0,0.0,2.5133949708699395,0.0,0.0,0.0,0.0,0.0,0.0,0.0,0.0,0.0,0.0,0.0,0.0,0.0,0.0,
0.6772,2.529223240788599,2.529223240788599,2.4823735733626036,0.0,0.0,0.0,2.513606684979934,0.0,0.0,0.0,0.0,0.0,0.0,0.0,0.0,0.0,0.0,0.0,0.0,0.0,0.0,
0.6922,2.529446384657323,2.529446384657323,2.482572686046952,0.0,0.0,0.0,2.513821818453866,0.0,0.0,0.0,0.0,0.0,0.0,0.0,0.0,0.0,0.0,0.0,0.0,0.0,0.0,
0.7073,2.529676060206914,2.529676060206914,2.482777618175989,0.0,0.0,0.0,2.514043246196606,0.0,0.0,0.0,0.0,0.0,0.0,0.0,0.0,0.0,0.0,0.0,0.0,0.0,0.0,
0.7223,2.529909232375825,2.529909232375825,2.48298566107555,0.0,0.0,0.0,2.5142680419424,0.0,0.0,0.0,0.0,0.0,0.0,0.0,0.0,0.0,0.0,0.0,0.0,0.0,0.0,
0.7374,2.5301490173504417,2.5301490173504417,2.483199594491132,0.0,0.0,0.0,2.5144992097306718,0.0,0.0,0.0,0.0,0.0,0.0,0.0,0.0,0.0,0.0,0.0,0.0,0.0,0.0,
0.7524,2.5303922464937143,2.5303922464937143,2.4834165907866783,0.0,0.0,0.0,2.514733694591369,0.0,0.0,0.0,0.0,0.0,0.0,0.0,0.0,0.0,0.0,0.0,0.0,0.0,0.0,
0.7675,2.5306421704135262,2.5306421704135262,2.4836395493501238,0.0,0.0,0.0,2.5149746300590587,0.0,0.0,0.0,0.0,0.0,0.0,0.0,0.0,0.0,0.0,0.0,0.0,0.0,0.0,
0.7825,2.530895486509327,2.530895486509327,2.483865523269703,0.0,0.0,0.0,2.515218832096119,0.0,0.0,0.0,0.0,0.0,0.0,0.0,0.0,0.0,0.0,0.0,0.0,0.0,0.0,
0.7976,2.531155580213359,2.531155580213359,2.4840975319011753,0.0,0.0,0.0,2.515469564109298,0.0,0.0,0.0,0.0,0.0,0.0,0.0,0.0,0.0,0.0,0.0,0.0,0.0,0.0,
0.8126,2.531419014556266,2.531419014556266,2.4843325087292945,0.0,0.0,0.0,2.5157235126139423,0.0,0.0,0.0,0.0,0.0,0.0,0.0,0.0,0.0,0.0,0.0,0.0,0.0,0.0,
0.8277,2.5316893102152047,2.5316893102152047,2.4845735934171467,0.0,0.0,0.0,2.5159840712825186,0.0,0.0,0.0,0.0,0.0,0.0,0.0,0.0,0.0,0.0,0.0,0.0,0.0,0.0,
0.8427,2.531962895429233,2.531962895429233,2.4848175995042583,0.0,0.0,0.0,2.516247796787575,0.0,0.0,0.0,0.0,0.0,0.0,0.0,0.0,0.0,0.0,0.0,0.0,0.0,0.0,
0.8578,2.5322434265587974,2.5322434265587974,2.4850677873148928,0.0,0.0,0.0,2.516518213477496,0.0,0.0,0.0,0.0,0.0,0.0,0.0,0.0,0.0,0.0,0.0,0.0,0.0,0.0,
0.8728,2.532527196610927,2.532527196610927,2.4853208500873936,0.0,0.0,0.0,2.5167917477697492,0.0,0.0,0.0,0.0,0.0,0.0,0.0,0.0,0.0,0.0,0.0,0.0,0.0,0.0,
0.8879,2.5328179980858696,2.5328179980858696,2.48558016917554,0.0,0.0,0.0,2.5170720551157597,0.0,0.0,0.0,0.0,0.0,0.0,0.0,0.0,0.0,0.0,0.0,0.0,0.0,0.0,
0.9029,2.5331119883003494,2.5331119883003494,2.4858423171462256,0.0,0.0,0.0,2.517355431248975,0.0,0.0,0.0,0.0,0.0,0.0,0.0,0.0,0.0,0.0,0.0,0.0,0.0,0.0,
0.918,2.5334130963691113,2.5334130963691113,2.48611079676566,0.0,0.0,0.0,2.517645663167961,0.0,0.0,0.0,0.0,0.0,0.0,0.0,0.0,0.0,0.0,0.0,0.0,0.0,0.0,
0.933,2.533717343442232,2.533717343442232,2.4863820595445763,0.0,0.0,0.0,2.5179389154763467,0.0,0.0,0.0,0.0,0.0,0.0,0.0,0.0,0.0,0.0,0.0,0.0,0.0,0.0,
0.9481,2.534028795742185,2.534028795742185,2.4866597300593076,0.0,0.0,0.0,2.518239107181226,0.0,0.0,0.0,0.0,0.0,0.0,0.0,0.0,0.0,0.0,0.0,0.0,0.0,0.0,
0.9631,2.5343433377578526,2.5343433377578526,2.4869401383651746,0.0,0.0,0.0,2.5185422712936263,0.0,0.0,0.0,0.0,0.0,0.0,0.0,0.0,0.0,0.0,0.0,0.0,0.0,0.0,
0.9782,2.534665173331258,2.534665173331258,2.487227031261128,0.0,0.0,0.0,2.5188524593078814,0.0,0.0,0.0,0.0,0.0,0.0,0.0,0.0,0.0,0.0,0.0,0.0,0.0,0.0,
0.9932,2.534990049777126,2.534990049777126,2.487516616933087,0.0,0.0,0.0,2.5191655721624464,0.0,0.0,0.0,0.0,0.0,0.0,0.0,0.0,0.0,0.0,0.0,0.0,0.0,0.0,
1.0083,2.5353223090877712,2.5353223090877712,2.4878127648302852,0.0,0.0,0.0,2.5194857943352758,0.0,0.0,0.0,0.0,0.0,0.0,0.0,0.0,0.0,0.0,0.0,0.0,0.0,0.0,
1.0233,2.535657560872064,2.535657560872064,2.4881115608402897,0.0,0.0,0.0,2.519808894194806,0.0,0.0,0.0,0.0,0.0,0.0,0.0,0.0,0.0,0.0,0.0,0.0,0.0,0.0,
1.0384,2.536000285822486,2.536000285822486,2.4884169975054604,0.0,0.0,0.0,2.520139189716811,0.0,0.0,0.0,0.0,0.0,0.0,0.0,0.0,0.0,0.0,0.0,0.0,0.0,0.0,
1.0534,2.536345955291548,2.536345955291548,2.4887250379710584,0.0,0.0,0.0,2.520472316184718,0.0,0.0,0.0,0.0,0.0,0.0,0.0,0.0,0.0,0.0,0.0,0.0,0.0,0.0,
1.0685,2.5366991892411304,2.5366991892411304,2.4890397983308326,0.0,0.0,0.0,2.5208127256043644,0.0,0.0,0.0,0.0,0.0,0.0,0.0,0.0,0.0,0.0,0.0,0.0,0.0,0.0,
1.0835,2.5370553201977053,2.5370553201977053,2.489357118528501,0.0,0.0,0.0,2.521155919641304,0.0,0.0,0.0,0.0,0.0,0.0,0.0,0.0,0.0,0.0,0.0,0.0,0.0,0.0,
1.0986,2.5374191079813286,2.5374191079813286,2.4896812386830627,0.0,0.0,0.0,2.5215064848819067,0.0,0.0,0.0,0.0,0.0,0.0,0.0,0.0,0.0,0.0,0.0,0.0,0.0,0.0,
1.1136,2.53778574570348,2.53778574570348,2.4900078750620755,0.0,0.0,0.0,2.521859788823012,0.0,0.0,0.0,0.0,0.0,0.0,0.0,0.0,0.0,0.0,0.0,0.0,0.0,0.0,
1.1287,2.538160133651056,2.538160133651056,2.490341392299361,0.0,0.0,0.0,2.522220553200491,0.0,0.0,0.0,0.0,0.0,0.0,0.0,0.0,0.0,0.0,0.0,0.0,0.0,0.0,
1.1437,2.5385373249118905,2.5385373249118905,2.490677382496151,0.0,0.0,0.0,2.522584010773311,0.0,0.0,0.0,0.0,0.0,0.0,0.0,0.0,0.0,0.0,0.0,0.0,0.0,0.0,
1.1588,2.538922360868561,2.538922360868561,2.491020335306665,0.0,0.0,0.0,2.5229550190145957,0.0,0.0,0.0,0.0,0.0,0.0,0.0,0.0,0.0,0.0,0.0,0.0,0.0,0.0,
1.1738,2.5393101539567535,2.5393101539567535,2.4913657181597424,0.0,0.0,0.0,2.52332867535775,0.0,0.0,0.0,0.0,0.0,0.0,0.0,0.0,0.0,0.0,0.0,0.0,0.0,0.0,
1.1889,2.5397058873039073,2.5397058873039073,2.4917181462517712,0.0,0.0,0.0,2.523709973619862,0.0,0.0,0.0,0.0,0.0,0.0,0.0,0.0,0.0,0.0,0.0,0.0,0.0,0.0,
1.2039,2.540104332044944,2.540104332044944,2.492072961817215,0.0,0.0,0.0,2.5240938753023676,0.0,0.0,0.0,0.0,0.0,0.0,0.0,0.0,0.0,0.0,0.0,0.0,0.0,0.0,
1.2189,2.5405081040042607,2.5405081040042607,2.4924324934073656,0.0,0.0,0.0,2.524482900471962,0.0,0.0,0.0,0.0,0.0,0.0,0.0,0.0,0.0,0.0,0.0,0.0,0.0,0.0,
1.234,2.5409199615002995,2.5409199615002995,2.4927991957003535,0.0,0.0,0.0,2.524879706233651,0.0,0.0,0.0,0.0,0.0,0.0,0.0,0.0,0.0,0.0,0.0,0.0,0.0,0.0,
1.249,2.5413344626927428,2.5413344626927428,2.4931682223346154,0.0,0.0,0.0,2.5252790492400337,0.0,0.0,0.0,0.0,0.0,0.0,0.0,0.0,0.0,0.0,0.0,0.0,0.0,0.0,
1.2641,2.541757147809192,2.541757147809192,2.4935445045413536,0.0,0.0,0.0,2.5256862667199127,0.0,0.0,0.0,0.0,0.0,0.0,0.0,0.0,0.0,0.0,0.0,0.0,0.0,0.0,
1.2791,2.542182431998033,2.542182431998033,2.493923069389231,0.0,0.0,0.0,2.526095977795099,0.0,0.0,0.0,0.0,0.0,0.0,0.0,0.0,0.0,0.0,0.0,0.0,0.0,0.0,
1.2942,2.542615999667716,2.542615999667716,2.4943089756071934,0.0,0.0,0.0,2.5265136583142085,0.0,0.0,0.0,0.0,0.0,0.0,0.0,0.0,0.0,0.0,0.0,0.0,0.0,0.0,
1.3092,2.5430521222339566,2.5430521222339566,2.494697123114555,0.0,0.0,0.0,2.5269337891941563,0.0,0.0,0.0,0.0,0.0,0.0,0.0,0.0,0.0,0.0,0.0,0.0,0.0,0.0,
1.3243,2.5434966290307734,2.5434966290307734,2.4950926987351787,0.0,0.0,0.0,2.5273619855989087,0.0,0.0,0.0,0.0,0.0,0.0,0.0,0.0,0.0,0.0,0.0,0.0,0.0,0.0,
1.3393,2.543943646998228,2.543943646998228,2.495490474642428,0.0,0.0,0.0,2.5277925895462947,0.0,0.0,0.0,0.0,0.0,0.0,0.0,0.0,0.0,0.0,0.0,0.0,0.0,0.0,
1.3544,2.544399151162788,2.544399151162788,2.4958957663697454,0.0,0.0,0.0,2.5282313562317738,0.0,0.0,0.0,0.0,0.0,0.0,0.0,0.0,0.0,0.0,0.0,0.0,0.0,0.0,
1.3694,2.5448571232240926,2.5448571232240926,2.4963032177307234,0.0,0.0,0.0,2.528672488059636,0.0,0.0,0.0,0.0,0.0,0.0,0.0,0.0,0.0,0.0,0.0,0.0,0.0,0.0,
1.3845,2.545323684690418,2.545323684690418,2.4967182736006404,0.0,0.0,0.0,2.5291218809938254,0.0,0.0,0.0,0.0,0.0,0.0,0.0,0.0,0.0,0.0,0.0,0.0,0.0,0.0,
1.3995,2.545792671233957,2.545792671233957,2.4971354488020374,0.0,0.0,0.0,2.5295735970899837,0.0,0.0,0.0,0.0,0.0,0.0,0.0,0.0,0.0,0.0,0.0,0.0,0.0,0.0,
1.4146,2.546270351657043,2.546270351657043,2.4975603182023027,0.0,0.0,0.0,2.5300336738387963,0.0,0.0,0.0,0.0,0.0,0.0,0.0,0.0,0.0,0.0,0.0,0.0,0.0,0.0,
1.4296,2.5467504147949125,2.5467504147949125,2.497987266983902,0.0,0.0,0.0,2.5304960321912424,0.0,0.0,0.0,0.0,0.0,0.0,0.0,0.0,0.0,0.0,0.0,0.0,0.0,0.0,
1.4447,2.547239277579358,2.547239277579358,2.498422000674764,0.0,0.0,0.0,2.5309668519444934,0.0,0.0,0.0,0.0,0.0,0.0,0.0,0.0,0.0,0.0,0.0,0.0,0.0,0.0,
1.4597,2.547730481176217,2.547730481176217,2.498858774150291,0.0,0.0,0.0,2.531439912167575,0.0,0.0,0.0,0.0,0.0,0.0,0.0,0.0,0.0,0.0,0.0,0.0,0.0,0.0,
1.4748,2.5482305915058485,2.5482305915058485,2.499303424285917,0.0,0.0,0.0,2.5319215357658713,0.0,0.0,0.0,0.0,0.0,0.0,0.0,0.0,0.0,0.0,0.0,0.0,0.0,0.0,
1.4898,2.5487330012089338,2.5487330012089338,2.4997500749646377,0.0,0.0,0.0,2.5324053591275018,0.0,0.0,0.0,0.0,0.0,0.0,0.0,0.0,0.0,0.0,0.0,0.0,0.0,0.0,
1.5049,2.549244426077463,2.549244426077463,2.5002046951151704,0.0,0.0,0.0,2.5328978490900322,0.0,0.0,0.0,0.0,0.0,0.0,0.0,0.0,0.0,0.0,0.0,0.0,0.0,0.0,
1.5199,2.5497581093475583,2.5497581093475583,2.500661276924269,0.0,0.0,0.0,2.5333924985397953,0.0,0.0,0.0,0.0,0.0,0.0,0.0,0.0,0.0,0.0,0.0,0.0,0.0,0.0,
1.535,2.5502809175904084,2.5502809175904084,2.5011259220987485,0.0,0.0,0.0,2.5338959190931885,0.0,0.0,0.0,0.0,0.0,0.0,0.0,0.0,0.0,0.0,0.0,0.0,0.0,0.0,
1.55,2.5508059437339607,2.5508059437339607,2.501592490406394,0.0,0.0,0.0,2.5344014592914386,0.0,0.0,0.0,0.0,0.0,0.0,0.0,0.0,0.0,0.0,0.0,0.0,0.0,0.0,
1.5651,2.551340206061091,2.551340206061091,2.5020672170764033,0.0,0.0,0.0,2.5349158763995283,0.0,0.0,0.0,0.0,0.0,0.0,0.0,0.0,0.0,0.0,0.0,0.0,0.0,0.0,
1.5801,2.551876646263482,2.551876646263482,2.5025438287156785,0.0,0.0,0.0,2.5354323737475473,0.0,0.0,0.0,0.0,0.0,0.0,0.0,0.0,0.0,0.0,0.0,0.0,0.0,0.0,
1.5952,2.5524224352934963,2.5524224352934963,2.503028694839806,0.0,0.0,0.0,2.535957855142266,0.0,0.0,0.0,0.0,0.0,0.0,0.0,0.0,0.0,0.0,0.0,0.0,0.0,0.0,
1.6102,2.5529703626534355,2.5529703626534355,2.5035154081334037,0.0,0.0,0.0,2.536485377813425,0.0,0.0,0.0,0.0,0.0,0.0,0.0,0.0,0.0,0.0,0.0,0.0,0.0,0.0,
1.6253,2.5535277529487788,2.5535277529487788,2.5040104731825235,0.0,0.0,0.0,2.5370219930266935,0.0,0.0,0.0,0.0,0.0,0.0,0.0,0.0,0.0,0.0,0.0,0.0,0.0,0.0,
1.6403,2.5540872425139667,2.5540872425139667,2.50450734796832,0.0,0.0,0.0,2.537560610998751,0.0,0.0,0.0,0.0,0.0,0.0,0.0,0.0,0.0,0.0,0.0,0.0,0.0,0.0,
1.6554,2.554656310617484,2.554656310617484,2.5050126729517643,0.0,0.0,0.0,2.5381084313955777,0.0,0.0,0.0,0.0,0.0,0.0,0.0,0.0,0.0,0.0,0.0,0.0,0.0,0.0,
1.6704,2.5552274394214134,2.5552274394214134,2.505519770609178,0.0,0.0,0.0,2.5386582164840017,0.0,0.0,0.0,0.0,0.0,0.0,0.0,0.0,0.0,0.0,0.0,0.0,0.0,0.0,
1.6855,2.5558082638940594,2.5558082638940594,2.506035418101767,0.0,0.0,0.0,2.5392173152966286,0.0,0.0,0.0,0.0,0.0,0.0,0.0,0.0,0.0,0.0,0.0,0.0,0.0,0.0,
1.7005,2.5563911109943094,2.5563911109943094,2.5065528015791223,0.0,0.0,0.0,2.539778341189247,0.0,0.0,0.0,0.0,0.0,0.0,0.0,0.0,0.0,0.0,0.0,0.0,0.0,0.0,
1.7156,2.556983772454256,2.556983772454256,2.507078835749088,0.0,0.0,0.0,2.5403487935525333,0.0,0.0,0.0,0.0,0.0,0.0,0.0,0.0,0.0,0.0,0.0,0.0,0.0,0.0,
1.7306,2.557578418971876,2.557578418971876,2.507606569591803,0.0,0.0,0.0,2.5409211358451853,0.0,0.0,0.0,0.0,0.0,0.0,0.0,0.0,0.0,0.0,0.0,0.0,0.0,0.0,
1.7457,2.558183000135002,2.558183000135002,2.5081430562297085,0.0,0.0,0.0,2.5415030188332373,0.0,0.0,0.0,0.0,0.0,0.0,0.0,0.0,0.0,0.0,0.0,0.0,0.0,0.0,
1.7607,2.558789529295477,2.558789529295477,2.5086812066094835,0.0,0.0,0.0,2.5420867550668125,0.0,0.0,0.0,0.0,0.0,0.0,0.0,0.0,0.0,0.0,0.0,0.0,0.0,0.0,
1.7758,2.5594061150172234,2.5594061150172234,2.509228213158032,0.0,0.0,0.0,2.542680147730826,0.0,0.0,0.0,0.0,0.0,0.0,0.0,0.0,0.0,0.0,0.0,0.0,0.0,0.0,
1.7908,2.5600246121927746,2.5600246121927746,2.5097768479029905,0.0,0.0,0.0,2.543275357429513,0.0,0.0,0.0,0.0,0.0,0.0,0.0,0.0,0.0,0.0,0.0,0.0,0.0,0.0,
1.8059,2.560653289511476,2.560653289511476,2.510334443487947,0.0,0.0,0.0,2.5438803408369663,0.0,0.0,0.0,0.0,0.0,0.0,0.0,0.0,0.0,0.0,0.0,0.0,0.0,0.0,
1.8209,2.561283842264893,2.561283842264893,2.5108936321138193,0.0,0.0,0.0,2.5444871055478684,0.0,0.0,0.0,0.0,0.0,0.0,0.0,0.0,0.0,0.0,0.0,0.0,0.0,0.0,
1.8359,2.5619204361654133,2.5619204361654133,2.5114581066352106,0.0,0.0,0.0,2.545099659655346,0.0,0.0,0.0,0.0,0.0,0.0,0.0,0.0,0.0,0.0,0.0,0.0,0.0,0.0,
1.851,2.5625673985765967,2.5625673985765967,2.512031701318178,0.0,0.0,0.0,2.5457221661571237,0.0,0.0,0.0,0.0,0.0,0.0,0.0,0.0,0.0,0.0,0.0,0.0,0.0,0.0,
1.866,2.563216183453059,2.563216183453059,2.5126068371078434,0.0,0.0,0.0,2.546346401337987,0.0,0.0,0.0,0.0,0.0,0.0,0.0,0.0,0.0,0.0,0.0,0.0,0.0,0.0,
1.8811,2.5638754647497124,2.5638754647497124,2.513191201093335,0.0,0.0,0.0,2.5469807101975865,0.0,0.0,0.0,0.0,0.0,0.0,0.0,0.0,0.0,0.0,0.0,0.0,0.0,0.0,
1.8961,2.564536533839253,2.564536533839253,2.5137770720263304,0.0,0.0,0.0,2.547616713234946,0.0,0.0,0.0,0.0,0.0,0.0,0.0,0.0,0.0,0.0,0.0,0.0,0.0,0.0,
1.9112,2.565208229059732,2.565208229059732,2.514372280586012,0.0,0.0,0.0,2.548262912901825,0.0,0.0,0.0,0.0,0.0,0.0,0.0,0.0,0.0,0.0,0.0,0.0,0.0,0.0,
1.9262,2.565881677955735,2.565881677955735,2.5149689623425537,0.0,0.0,0.0,2.5489107727513414,0.0,0.0,0.0,0.0,0.0,0.0,0.0,0.0,0.0,0.0,0.0,0.0,0.0,0.0,
1.9413,2.566565884535901,2.566565884535901,2.515575092583326,0.0,0.0,0.0,2.549568953885043,0.0,0.0,0.0,0.0,0.0,0.0,0.0,0.0,0.0,0.0,0.0,0.0,0.0,0.0,
1.9563,2.567251811239173,2.567251811239173,2.5161826626848853,0.0,0.0,0.0,2.550228761721077,0.0,0.0,0.0,0.0,0.0,0.0,0.0,0.0,0.0,0.0,0.0,0.0,0.0,0.0,
