energies(eV),real_xx,real_yy,real_zz,real_xy,real_yz,real_xz,real_ave,imag_xx,imag_yy,imag_zz,imag_xy,imag_yz,imag_xz,imag_ave,absorption_xx,absorption_yy,absorption_zz,absorption_xy,absorption_yz,absorption_xz,absorption_ave,band_gap
0.0,3.898752709244935,3.474297981522692,3.659333897616799,0.0,0.0,-0.16333049741787936,3.677461529461475,0.0,0.0,0.0,0.0,0.0,0.0,0.0,0.0,0.0,0.0,0.0,0.0,0.0,0.0,4.0793
0.0178,3.8987640462355113,3.474306734222647,3.659343999076436,0.0,0.0,-0.16333149577883807,3.6774715931781983,0.0,0.0,0.0,0.0,0.0,0.0,0.0,0.0,0.0,0.0,0.0,0.0,729.1191372508788,0.0,
0.0355,3.898797803569833,3.474332796496196,3.659374077479645,0.0,0.0,-0.1633344685208338,3.6775015591818914,0.0,0.0,0.0,0.0,0.0,0.0,0.0,0.0,0.0,0.0,0.0,0.0,1454.1553326904766,0.0,
0.0533,3.8988543650078764,3.474376464605908,3.6594244748230524,0.0,0.0,-0.1633394494235043,3.6775517681456122,0.0,0.0,0.0,0.0,0.0,0.0,0.0,0.0,0.0,0.0,0.0,0.0,2183.3143945836136,0.0,
0.071,3.8989330988667277,3.4744372508321506,3.6594946283631926,0.0,0.0,-0.16334638283474875,3.6776216593540236,0.0,0.0,0.0,0.0,0.0,0.0,0.0,0.0,0.0,0.0,0.0,0.0,2908.416735748945,0.0,
0.0888,3.899034900209644,3.474515846162763,3.6595853357593016,0.0,0.0,-0.16335534753984074,3.677712027377236,0.0,0.0,0.0,0.0,0.0,0.0,0.0,0.0,0.0,0.0,0.0,0.0,3637.668916858628,0.0,
0.1066,3.8991593949239003,3.474611961709685,3.6596962638488124,0.0,0.0,-0.16336631054824946,3.677822540160799,0.0,0.0,0.0,0.0,0.0,0.0,0.0,0.0,0.0,0.0,0.0,0.0,4366.987819821642,0.0,
0.1243,3.8993057011910124,3.4747249166029994,3.6598266271228757,0.0,0.0,-0.16337919415245084,3.677952414972296,0.0,0.0,0.0,0.0,0.0,0.0,0.0,0.0,0.0,0.0,0.0,0.0,5092.288834257934,0.0,
0.1421,3.8994754822592346,3.474855994864269,3.659977907844206,0.0,0.0,-0.1633941447509285,3.67810312832257,0.0,0.0,0.0,0.0,0.0,0.0,0.0,0.0,0.0,0.0,0.0,0.0,5821.780780752429,0.0,
0.1598,3.8996668420133136,3.4750037325205363,3.6601484168059963,0.0,0.0,-0.16341099529995112,3.6782729971132824,0.0,0.0,0.0,0.0,0.0,0.0,0.0,0.0,0.0,0.0,0.0,0.0,6547.28035668216,0.0,
0.1776,3.899881955891172,3.475169808996505,3.6603400927469223,0.0,0.0,-0.16342993727554028,3.678463952544867,0.0,0.0,0.0,0.0,0.0,0.0,0.0,0.0,0.0,0.0,0.0,0.0,7276.998641281208,0.0,
0.1954,3.9001198214158403,3.4753534502218137,3.660552042805181,0.0,0.0,-0.16345088230481375,3.6786751048142783,0.0,0.0,0.0,0.0,0.0,0.0,0.0,0.0,0.0,0.0,0.0,0.0,8006.850495024938,0.0,
0.2131,3.9003789271093616,3.4755534891549003,3.660782920585955,0.0,0.0,-0.16347369719203078,3.6789051122834056,0.0,0.0,0.0,0.0,0.0,0.0,0.0,0.0,0.0,0.0,0.0,0.0,8732.747791017999,0.0,
0.2309,3.9006622185931947,3.4757721997829436,3.661035351265597,0.0,0.0,-0.16349864118847643,3.6791565898805785,0.0,0.0,0.0,0.0,0.0,0.0,0.0,0.0,0.0,0.0,0.0,0.0,9462.906132607757,0.0,
0.2486,3.900966532115083,3.4760071394327743,3.661306516239252,0.0,0.0,-0.1635254355961375,3.6794267292623695,0.0,0.0,0.0,0.0,0.0,0.0,0.0,0.0,0.0,0.0,0.0,0.0,10189.134779366506,0.0,
0.2664,3.9012953272637816,3.476260978854465,3.6615994987907965,0.0,0.0,-0.16355438488790464,3.6797186016363477,0.0,0.0,0.0,0.0,0.0,0.0,0.0,0.0,0.0,0.0,0.0,0.0,10919.653103820006,0.0,
0.2842,3.9016469715358197,3.476532457527921,3.661912844839491,0.0,0.0,-0.16358534517122433,3.6800307579677436,0.0,0.0,0.0,0.0,0.0,0.0,0.0,0.0,0.0,0.0,0.0,0.0,11650.372096146448,0.0,
0.3019,3.902019321260315,3.476819920306851,3.6622446447861687,0.0,0.0,-0.1636181275537858,3.6803612954511116,0.0,0.0,0.0,0.0,0.0,0.0,0.0,0.0,0.0,0.0,0.0,0.0,12377.198258473898,0.0,
0.3197,3.902416609552884,3.477126635061407,3.6625986714213714,0.0,0.0,-0.16365310455454216,3.6807139720118873,0.0,0.0,0.0,0.0,0.0,0.0,0.0,0.0,0.0,0.0,0.0,0.0,13108.35776023683,0.0,
0.3374,3.902834399664177,3.477449176325255,3.6629709718328054,0.0,0.0,-0.16368988538232798,3.681084849274079,0.0,0.0,0.0,0.0,0.0,0.0,0.0,0.0,0.0,0.0,0.0,0.0,13835.648686966138,0.0,
0.3552,3.903277441355874,3.477791210781004,3.663365779377842,0.0,0.0,-0.16372888799451846,3.68147814383824,0.0,0.0,0.0,0.0,0.0,0.0,0.0,0.0,0.0,0.0,0.0,0.0,14567.302494971422,0.0,
0.3729,3.9037407869792293,3.4781489185486567,3.663778685856081,0.0,0.0,-0.1637696766253941,3.6818894637946555,0.0,0.0,0.0,0.0,0.0,0.0,0.0,0.0,0.0,0.0,0.0,0.0,15295.111752857487,0.0,
0.3907,3.9042297042682694,3.4785263661381913,3.6642143864096375,0.0,0.0,-0.16381271477796785,3.682323485605366,0.0,0.0,0.0,0.0,0.0,0.0,0.0,0.0,0.0,0.0,0.0,0.0,16027.313813201901,0.0,
0.4085,3.90474167401864,3.4789216084441588,3.664670636982287,0.0,0.0,-0.16385778044845567,3.6827779731483616,0.0,0.0,0.0,0.0,0.0,0.0,0.0,0.0,0.0,0.0,0.0,0.0,16759.81112911167,0.0,
0.4262,3.9052736613397956,3.479332302281728,3.665144733856667,0.0,0.0,-0.16390460626503192,3.68325023249273,0.0,0.0,0.0,0.0,0.0,0.0,0.0,0.0,0.0,0.0,0.0,0.0,17488.499550235454,0.0,
0.444,3.905831714468034,3.479763116618928,3.665642068087115,0.0,0.0,-0.1639537243405951,3.6837456330580256,0.0,0.0,0.0,0.0,0.0,0.0,0.0,0.0,0.0,0.0,0.0,0.0,18221.62643017986,0.0,
0.4617,3.9064096015780208,3.480209240243347,3.666157086922557,0.0,0.0,-0.1640045859026139,3.684258642914642,0.0,0.0,0.0,0.0,0.0,0.0,0.0,0.0,0.0,0.0,0.0,0.0,18950.96789695088,0.0,
0.4795,3.9070138928448688,3.480675744986609,3.666695646845645,0.0,0.0,-0.16405776892978247,3.6847950948923742,0.0,0.0,0.0,0.0,0.0,0.0,0.0,0.0,0.0,0.0,0.0,0.0,19684.778733054434,0.0,
0.4973,3.907641430710534,3.481160192941201,3.6672549349631627,0.0,0.0,-0.16411299521293163,3.685352186204966,0.0,0.0,0.0,0.0,0.0,0.0,0.0,0.0,0.0,0.0,0.0,0.0,20418.953048779727,0.0,
0.515,3.908288537617014,3.481659744822117,3.6678316747639457,0.0,0.0,-0.16416994082414677,3.6859266524010255,0.0,0.0,0.0,0.0,0.0,0.0,0.0,0.0,0.0,0.0,0.0,0.0,21149.376825226613,0.0,
0.5328,3.9089625709027063,3.482180080019033,3.668432424763308,0.0,0.0,-0.1642292528889756,3.686525025228349,0.0,0.0,0.0,0.0,0.0,0.0,0.0,0.0,0.0,0.0,0.0,0.0,21884.31715719616,0.0,
0.5505,3.9096560038946415,3.482715387832671,3.6690504778770157,0.0,0.0,-0.1642902687580673,3.6871406232014423,0.0,0.0,0.0,0.0,0.0,0.0,0.0,0.0,0.0,0.0,0.0,0.0,22615.52993377338,0.0,
0.5683,3.9103767207826463,3.483271754278305,3.6696928625636747,0.0,0.0,-0.16435368181823057,3.6877804458748753,0.0,0.0,0.0,0.0,0.0,0.0,0.0,0.0,0.0,0.0,0.0,0.0,23351.291225527166,0.0,
0.5861,3.911120920332553,3.4838462445839564,3.670356192220747,0.0,0.0,-0.1644191572180321,3.688441119045752,0.0,0.0,0.0,0.0,0.0,0.0,0.0,0.0,0.0,0.0,0.0,0.0,24087.484912653807,0.0,
0.6038,3.911884276065494,3.4844355185885734,3.6710366118143676,0.0,0.0,-0.16448631396205518,3.6891188021561447,0.0,0.0,0.0,0.0,0.0,0.0,0.0,0.0,0.0,0.0,0.0,0.0,24819.985205032066,0.0,
0.6216,3.912675467436181,3.485046276071321,3.6717418592840945,0.0,0.0,-0.1645559152351335,3.6898212009305325,0.0,0.0,0.0,0.0,0.0,0.0,0.0,0.0,0.0,0.0,0.0,0.0,25557.08282044178,0.0,
0.6393,3.913485659951242,3.4856716969286463,3.6724640613139363,0.0,0.0,-0.1646271834562283,3.690540472731275,0.0,0.0,0.0,0.0,0.0,0.0,0.0,0.0,0.0,0.0,0.0,0.0,26290.509572568244,0.0,
0.6571,3.914324065803463,3.4863188920758463,3.673211431200614,0.0,0.0,-0.16470092854379542,3.6912847963599744,0.0,0.0,0.0,0.0,0.0,0.0,0.0,0.0,0.0,0.0,0.0,0.0,27028.56671911094,0.0,
0.6749,3.9151862336325522,3.4869844249513604,3.6739800027245066,0.0,0.0,-0.16477675847606404,3.69205022043614,0.0,0.0,0.0,0.0,0.0,0.0,0.0,0.0,0.0,0.0,0.0,0.0,27767.126003815938,0.0,
0.6926,3.916067180628636,3.487664448856019,3.67476533553643,0.0,0.0,-0.16485423458582324,3.692832321673695,0.0,0.0,0.0,0.0,0.0,0.0,0.0,0.0,0.0,0.0,0.0,0.0,28502.047940574183,0.0,
0.7104,3.916976923837968,3.4883666958184256,3.675576361235748,0.0,0.0,-0.16493423735754648,3.6936399936307143,0.0,0.0,0.0,0.0,0.0,0.0,0.0,0.0,0.0,0.0,0.0,0.0,29241.650797492257,0.0,
0.7281,3.9179053056017548,3.489083324593318,3.676404026191042,0.0,0.0,-0.16501587303464302,3.6944642187953716,0.0,0.0,0.0,0.0,0.0,0.0,0.0,0.0,0.0,0.0,0.0,0.0,29977.63843075987,0.0,
0.7459,3.918862882599199,3.489822483631975,3.6772577437048377,0.0,0.0,-0.16510006938636337,3.69531436997867,0.0,0.0,0.0,0.0,0.0,0.0,0.0,0.0,0.0,0.0,0.0,0.0,30718.34123296374,0.0,
0.7637,3.91984454573201,3.490580228768011,3.6781329609641933,0.0,0.0,-0.16518637659928492,3.6961859118214044,0.0,0.0,0.0,0.0,0.0,0.0,0.0,0.0,0.0,0.0,0.0,0.0,31459.616882287042,0.0,
0.7814,3.9208446472524567,3.491352200183952,3.679024644409574,0.0,0.0,-0.16527429763488688,3.6970738306153277,0.0,0.0,0.0,0.0,0.0,0.0,0.0,0.0,0.0,0.0,0.0,0.0,32197.31024601631,0.0,
0.7992,3.9218745598250164,3.4921471759825535,3.6799429358959825,0.0,0.0,-0.16536483171636288,3.6979882239011843,0.0,0.0,0.0,0.0,0.0,0.0,0.0,0.0,0.0,0.0,0.0,0.0,32939.7711233838,0.0,
0.8169,3.922922784822634,3.492956280151198,3.6808775851251814,0.0,0.0,-0.1654569674737885,3.698918883366338,0.0,0.0,0.0,0.0,0.0,0.0,0.0,0.0,0.0,0.0,0.0,0.0,33678.67147770304,0.0,
0.8347,3.924001242486526,3.4937887133106678,3.6818392229730805,0.0,0.0,-0.16555175204732936,3.6998763929234246,0.0,0.0,0.0,0.0,0.0,0.0,0.0,0.0,0.0,0.0,0.0,0.0,34422.37484087678,0.0,
0.8525,3.9251041571657406,3.494640016951763,3.68282270194919,0.0,0.0,-0.1656486771149407,3.700855625355565,0.0,0.0,0.0,0.0,0.0,0.0,0.0,0.0,0.0,0.0,0.0,0.0,35166.72286988374,0.0,
0.8702,3.9262252063238563,3.4955053106026406,3.6838223862404322,0.0,0.0,-0.165747186469287,3.7018509677223097,0.0,0.0,0.0,0.0,0.0,0.0,0.0,0.0,0.0,0.0,0.0,0.0,35907.54280506575,0.0,
0.888,3.9273771389285015,3.496394434316003,3.684849647018038,0.0,0.0,-0.1658483997159604,3.702873740087514,0.0,0.0,0.0,0.0,0.0,0.0,0.0,0.0,0.0,0.0,0.0,0.0,36653.22001916823,0.0,
0.9057,3.9285470950235606,3.497297461717366,3.6858930186001158,0.0,0.0,-0.1659511862342789,3.703912525113681,0.0,0.0,0.0,0.0,0.0,0.0,0.0,0.0,0.0,0.0,0.0,0.0,37395.39058605334,0.0,
0.9235,3.9297483801937108,3.498224662320237,3.6869643695151435,0.0,0.0,-0.1660567142626335,3.7049791373430305,0.0,0.0,0.0,0.0,0.0,0.0,0.0,0.0,0.0,0.0,0.0,0.0,38142.45524628909,0.0,
0.9413,3.93097454216978,3.4991710555734,3.688057948356076,0.0,0.0,-0.16616441615490887,3.706067848699752,0.0,0.0,0.0,0.0,0.0,0.0,0.0,0.0,0.0,0.0,0.0,0.0,38890.23764958571,0.0,
0.959,3.9322185724771845,3.5001312318145983,3.689167506811666,0.0,0.0,-0.16627367563630574,3.707172437034483,0.0,0.0,0.0,0.0,0.0,0.0,0.0,0.0,0.0,0.0,0.0,0.0,39634.545395269495,0.0,
0.9768,3.9334946198545677,3.5011161110747313,3.6903056670172094,0.0,0.0,-0.16638573454984457,3.7083054659821695,0.0,0.0,0.0,0.0,0.0,0.0,0.0,0.0,0.0,0.0,0.0,0.0,40383.803542001435,0.0,
0.9945,3.934788439981248,3.502114698959829,3.6914597267110407,0.0,0.0,-0.1664993411804466,3.709454288550706,0.0,0.0,0.0,0.0,0.0,0.0,0.0,0.0,0.0,0.0,0.0,0.0,41129.60820823279,0.0,
1.0123,3.936114748405339,3.5031383527968485,3.692642814795048,0.0,0.0,-0.16661578680635242,3.7106319719990783,0.0,0.0,0.0,0.0,0.0,0.0,0.0,0.0,0.0,0.0,0.0,0.0,41880.40148602022,0.0,
1.0301,3.9374664048672376,3.504181561287226,3.6938485654977895,0.0,0.0,-0.16673444354022202,3.7118321772174174,0.0,0.0,0.0,0.0,0.0,0.0,0.0,0.0,0.0,0.0,0.0,0.0,42631.98699728855,0.0,
1.0478,3.9388357024424967,3.505238375991456,3.695070106502012,0.0,0.0,-0.16685463403639525,3.713048061645322,0.0,0.0,0.0,0.0,0.0,0.0,0.0,0.0,0.0,0.0,0.0,0.0,43380.15064838501,0.0,
1.0656,3.9402382160368616,3.5063208172169404,3.696321335284604,0.0,0.0,-0.16697772444941436,3.714293456179469,0.0,0.0,0.0,0.0,0.0,0.0,0.0,0.0,0.0,0.0,0.0,0.0,44133.361375064036,0.0,
1.0833,3.941658291119849,3.5074168027208192,3.6975882891969842,0.0,0.0,-0.1671023399124545,3.7155544610125504,0.0,0.0,0.0,0.0,0.0,0.0,0.0,0.0,0.0,0.0,0.0,0.0,44883.1711965077,0.0,
1.1011,3.9431120808148132,3.508538798886201,3.6988853830278323,0.0,0.0,-0.16722989690765763,3.7168454209096153,0.0,0.0,0.0,0.0,0.0,0.0,0.0,0.0,0.0,0.0,0.0,0.0,45638.06778146631,0.0,
1.1188,3.944583358935743,3.5096742825179463,3.7001981429837474,0.0,0.0,-0.16735897071017816,3.718151928145812,0.0,0.0,0.0,0.0,0.0,0.0,0.0,0.0,0.0,0.0,0.0,0.0,46389.58434079065,0.0,
1.1366,3.9460888617407797,3.5108361698621393,3.701541505714602,0.0,0.0,-0.16749102851251005,3.719488845772507,0.0,0.0,0.0,0.0,0.0,0.0,0.0,0.0,0.0,0.0,0.0,0.0,47146.22796604272,0.0,
1.1544,3.947620464215016,3.5120181900480953,3.702908225495699,0.0,0.0,-0.16762535636137468,3.7208489599196035,0.0,0.0,0.0,0.0,0.0,0.0,0.0,0.0,0.0,0.0,0.0,0.0,47903.77077677668,0.0,
1.1721,3.9491694580013625,3.5132136222439114,3.7042905346601827,0.0,0.0,-0.16776118953242955,3.7222245383018193,0.0,0.0,0.0,0.0,0.0,0.0,0.0,0.0,0.0,0.0,0.0,0.0,48657.96478639729,0.0,
1.1899,3.950753464578842,3.5144360655976263,3.705704162363243,0.0,0.0,-0.16790007210732463,3.723631230846571,0.0,0.0,0.0,0.0,0.0,0.0,0.0,0.0,0.0,0.0,0.0,0.0,49417.3475572382,0.0,
1.2076,3.9523548063564538,3.5156718774190208,3.7071333364222654,0.0,0.0,-0.16804045295443196,3.7250533400659136,0.0,0.0,0.0,0.0,0.0,0.0,0.0,0.0,0.0,0.0,0.0,0.0,50173.40225259813,0.0,
1.2254,3.9539917011838526,3.516935116923449,3.7085943201129754,0.0,0.0,-0.16818392789049605,3.7265070460734258,0.0,0.0,0.0,0.0,0.0,0.0,0.0,0.0,0.0,0.0,0.0,0.0,50934.68761122528,0.0,
1.2432,3.955655303030437,3.5182189571732367,3.7100792229487944,0.0,0.0,-0.16832972008218222,3.727984494384156,0.0,0.0,0.0,0.0,0.0,0.0,0.0,0.0,0.0,0.0,0.0,0.0,51696.950710117046,0.0,
1.2609,3.9573361690528324,3.519516110899193,3.711579620044081,0.0,0.0,-0.16847700087372675,3.729477299998702,0.0,0.0,0.0,0.0,0.0,0.0,0.0,0.0,0.0,0.0,0.0,0.0,52455.91676450588,0.0,
1.2787,3.959053423236164,3.52084133635434,3.7131125865667522,0.0,0.0,-0.16862744458368648,3.731002448719085,0.0,0.0,0.0,0.0,0.0,0.0,0.0,0.0,0.0,0.0,0.0,0.0,53220.177648634926,0.0,
1.2964,3.960787903323598,3.5221798457664573,3.7146610212119353,0.0,0.0,-0.16877937106703042,3.732542923433997,0.0,0.0,0.0,0.0,0.0,0.0,0.0,0.0,0.0,0.0,0.0,0.0,53981.16211043801,0.0,
1.3142,3.962559344317206,3.523546868763772,3.71624254685549,0.0,0.0,-0.1689345075019418,3.734116253312156,0.0,0.0,0.0,0.0,0.0,0.0,0.0,0.0,0.0,0.0,0.0,0.0,54747.484997566615,0.0,
1.332,3.964358162817898,3.5249350097826806,3.7178486131666304,0.0,0.0,-0.16909201288176245,3.7357139285890697,0.0,0.0,0.0,0.0,0.0,0.0,0.0,0.0,0.0,0.0,0.0,0.0,55514.86617436608,0.0,
1.3497,3.9661741637484034,3.526336401468554,3.7194701216474697,0.0,0.0,-0.16925099322638387,3.7373268956214756,0.0,0.0,0.0,0.0,0.0,0.0,0.0,0.0,0.0,0.0,0.0,0.0,56279.00184343331,0.0,
1.3675,3.9680280113522763,3.527766990340419,3.7211255285201763,0.0,0.0,-0.1694132559818875,3.738973510070957,0.0,0.0,0.0,0.0,0.0,0.0,0.0,0.0,0.0,0.0,0.0,0.0,57048.542720938894,0.0,
1.3852,3.9698990220155688,3.529210815281398,3.722796369404259,0.0,0.0,-0.16957698913647362,3.740635402233742,0.0,0.0,0.0,0.0,0.0,0.0,0.0,0.0,0.0,0.0,0.0,0.0,57814.858661774604,0.0,
1.403,3.971808487156618,3.53068430668049,3.7245016632461705,0.0,0.0,-0.16974405422509098,3.7423314856944265,0.0,0.0,0.0,0.0,0.0,0.0,0.0,0.0,0.0,0.0,0.0,0.0,58586.62520015732,0.0,
1.4208,3.9737460679904157,3.532179486494408,3.7262321832299676,0.0,0.0,-0.16991354465292463,3.744052579238264,0.0,0.0,0.0,0.0,0.0,0.0,0.0,0.0,0.0,0.0,0.0,0.0,59359.53276332429,0.0,
1.4385,3.9757007976942895,3.533687892258429,3.7279781391950984,0.0,0.0,-0.1700844995960737,3.745788943049272,0.0,0.0,0.0,0.0,0.0,0.0,0.0,0.0,0.0,0.0,0.0,0.0,60129.246268171286,0.0,
1.4563,3.977694922387695,3.5352266909570487,3.729759407117689,0.0,0.0,-0.1702588627846747,3.7475603401541444,0.0,0.0,0.0,0.0,0.0,0.0,0.0,0.0,0.0,0.0,0.0,0.0,60904.47992532036,0.0,
1.474,3.9797061967378227,3.5367787169937266,3.731556122129988,0.0,0.0,-0.1704346872278005,3.7493470119538457,0.0,0.0,0.0,0.0,0.0,0.0,0.0,0.0,0.0,0.0,0.0,0.0,61676.54009858677,0.0,
1.4918,3.9817575118242243,3.538361635000254,3.7333887394931,0.0,0.0,-0.17061397208386406,3.7511692954391926,0.0,0.0,0.0,0.0,0.0,0.0,0.0,0.0,0.0,0.0,0.0,0.0,62454.16771341602,0.0,
1.5096,3.9838377536807132,3.5399668692127726,3.7352473375951836,0.0,0.0,-0.1707957436275158,3.75301732016289,0.0,0.0,0.0,0.0,0.0,0.0,0.0,0.0,0.0,0.0,0.0,0.0,63233.021475966,0.0,
1.5273,3.985935162336855,3.5415853455521926,3.73712141478054,0.0,0.0,-0.17097897253855232,3.754880640889862,0.0,0.0,0.0,0.0,0.0,0.0,0.0,0.0,0.0,0.0,0.0,0.0,64008.73268036108,0.0,
1.5451,3.9880736115724305,3.543235486955722,3.7390323094382087,0.0,0.0,-0.1711657422676925,3.7567804693221203,0.0,0.0,0.0,0.0,0.0,0.0,0.0,0.0,0.0,0.0,0.0,0.0,64790.08381814543,0.0,
1.5628,3.990229250030163,3.544898889115539,3.740958715072371,0.0,0.0,-0.17135396745996556,3.7586956180726907,0.0,0.0,0.0,0.0,0.0,0.0,0.0,0.0,0.0,0.0,0.0,0.0,65568.31303257187,0.0,
1.5806,3.9924266159946775,3.5465944877856397,3.7429225675944457,0.0,0.0,-0.17154578844998022,3.7606478904582548,0.0,0.0,0.0,0.0,0.0,0.0,0.0,0.0,0.0,0.0,0.0,0.0,66352.23148368682,0.0,
1.5984,3.9946537986175557,3.5483130927497215,3.74491323049,0.0,0.0,-0.17174016270529477,3.7626267072857593,0.0,0.0,0.0,0.0,0.0,0.0,0.0,0.0,0.0,0.0,0.0,0.0,67137.46380763182,0.0,
1.6161,3.9968982213443085,3.5500450002126387,3.7469194688516976,0.0,0.0,-0.17193599061662776,3.7646208968028816,0.0,0.0,0.0,0.0,0.0,0.0,0.0,0.0,0.0,0.0,0.0,0.0,67919.60526896619,0.0,
1.6339,3.999185435910635,3.5518099281254902,3.7489641304449712,0.0,0.0,-0.17213549908737466,3.7666531648270323,0.0,0.0,0.0,0.0,0.0,0.0,0.0,0.0,0.0,0.0,0.0,0.0,68707.51157270475,0.0,
1.6516,4.001489936374771,3.5535881958854776,3.7510244219672746,0.0,0.0,-0.1723364607260553,3.7687008514091747,0.0,0.0,0.0,0.0,0.0,0.0,0.0,0.0,0.0,0.0,0.0,0.0,69492.34776884074,0.0,
1.6694,4.003837960432896,3.5554000509481765,3.7531238087724903,0.0,0.0,-0.17254116089844074,3.7707872733845207,0.0,0.0,0.0,0.0,0.0,0.0,0.0,0.0,0.0,0.0,0.0,0.0,70283.00024653095,0.0,
1.6872,4.0062167766031065,3.5572356703034096,3.7552509173980604,0.0,0.0,-0.17274848644693927,3.772901121434859,0.0,0.0,0.0,0.0,0.0,0.0,0.0,0.0,0.0,0.0,0.0,0.0,71075.05715222392,0.0,
1.7049,4.008612966113542,3.5590847006076274,3.7573937558431756,0.0,0.0,-0.17295726553219395,3.775030474188115,0.0,0.0,0.0,0.0,0.0,0.0,0.0,0.0,0.0,0.0,0.0,0.0,71864.07523832192,0.0,
1.7227,4.011053813857236,3.5609681977898915,3.7595767329144114,0.0,0.0,-0.17316987255512575,3.777199581520513,0.0,0.0,0.0,0.0,0.0,0.0,0.0,0.0,0.0,0.0,0.0,0.0,72658.98851483333,0.0,
1.7404,4.013512106140581,3.5628651637248874,3.7617755189337623,0.0,0.0,-0.1733839341111942,3.779384262933077,0.0,0.0,0.0,0.0,0.0,0.0,0.0,0.0,0.0,0.0,0.0,0.0,73450.88391008737,0.0,
1.7582,4.016015837356868,3.5647972021971173,3.7640151623660327,0.0,0.0,-0.17360188477240995,3.781609400640006,0.0,0.0,0.0,0.0,0.0,0.0,0.0,0.0,0.0,0.0,0.0,0.0,74248.7282012229,0.0,
1.776,4.018551429425351,3.5667538373175076,3.7662835286538487,0.0,0.0,-0.1738225387883939,3.7838629317989025,0.0,0.0,0.0,0.0,0.0,0.0,0.0,0.0,0.0,0.0,0.0,0.0,75048.07054844341,0.0,
1.7937,4.021104593342789,3.568724044478995,3.7685678425921902,0.0,0.0,-0.17404464999173277,3.7861321601379916,0.0,0.0,0.0,0.0,0.0,0.0,0.0,0.0,0.0,0.0,0.0,0.0,75844.42662713771,0.0,
1.8115,4.0237044077185775,3.5707302648347032,3.7708941308519823,0.0,0.0,-0.17427074465742903,3.7884429344684207,0.0,0.0,0.0,0.0,0.0,0.0,0.0,0.0,0.0,0.0,0.0,0.0,76646.8140165487,0.0,
1.8292,4.026321892931181,3.5727501375320534,3.7732364730183674,0.0,0.0,-0.17449829906901881,3.790769501160534,0.0,0.0,0.0,0.0,0.0,0.0,0.0,0.0,0.0,0.0,0.0,0.0,77446.23632591628,0.0,
1.847,4.028986862913161,3.5748066717612756,3.7756215596957183,0.0,0.0,-0.17472990151963916,3.793138364790052,0.0,0.0,0.0,0.0,0.0,0.0,0.0,0.0,0.0,0.0,0.0,0.0,78251.74605770054,0.0,
1.8647,4.031669614585246,3.576876948276067,3.77802281816369,0.0,0.0,-0.17496296692319377,3.7955231270083343,0.0,0.0,0.0,0.0,0.0,0.0,0.0,0.0,0.0,0.0,0.0,0.0,79054.31201753527,0.0,
1.8825,4.034400708215555,3.5789845529266255,3.780467613332958,0.0,0.0,-0.1752001463700312,3.7979509581583795,0.0,0.0,0.0,0.0,0.0,0.0,0.0,0.0,0.0,0.0,0.0,0.0,79863.02251486201,0.0,
1.9003,4.037165332459832,3.581118058564719,3.782942700339659,0.0,0.0,-0.1754401488879309,3.8004086971214033,0.0,0.0,0.0,0.0,0.0,0.0,0.0,0.0,0.0,0.0,0.0,0.0,80673.36778470337,0.0,
1.918,4.039947928161176,3.583265460543717,3.785434159053418,0.0,0.0,-0.175681620424081,3.802882515919437,0.0,0.0,0.0,0.0,0.0,0.0,0.0,0.0,0.0,0.0,0.0,0.0,81480.8015249149,0.0,
