energies(eV),real_xx,real_yy,real_zz,real_xy,real_yz,real_xz,real_ave,imag_xx,imag_yy,imag_zz,imag_xy,imag_yz,imag_xz,imag_ave,absorption_xx,absorption_yy,absorption_zz,absorption_xy,absorption_yz,absorption_xz,absorption_ave,band_gap
0.0,4.878350819045679,4.878350819045679,4.669848930559331,0.0,0.0,0.0,4.808850189550229,0.0,0.0,0.0,0.0,0.0,0.0,0.0,0.0,0.0,0.0,0.0,0.0,0.0,0.0,3.2913000000000006
0.0173,4.878374591652139,4.878374591652139,4.669869913786059,0.0,0.0,0.0,4.808873032363445,0.0,0.0,0.0,0.0,0.0,0.0,0.0,0.0,0.0,0.0,0.0,0.0,0.0,0.0,
0.0346,4.8784459123248745,4.8784459123248745,4.669932865859415,0.0,0.0,0.0,4.808941563503055,0.0,0.0,0.0,0.0,0.0,0.0,0.0,0.0,0.0,0.0,0.0,0.0,0.0,0.0,
0.0519,4.878564789624974,4.878564789624974,4.670037793959722,0.0,0.0,0.0,4.80905579106989,0.0,0.0,0.0,0.0,0.0,0.0,0.0,0.0,0.0,0.0,0.0,0.0,0.0,0.0,
0.0692,4.87873123782441,4.87873123782441,4.670184710056988,0.0,0.0,0.0,4.809215728568603,0.0,0.0,0.0,0.0,0.0,0.0,0.0,0.0,0.0,0.0,0.0,0.0,0.0,0.0,
0.0865,4.878945276911168,4.878945276911168,4.670373630915172,0.0,0.0,0.0,4.809421394912502,0.0,0.0,0.0,0.0,0.0,0.0,0.0,0.0,0.0,0.0,0.0,0.0,0.0,0.0,
0.1038,4.879206932596756,4.879206932596756,4.670604578098104,0.0,0.0,0.0,4.809672814430539,0.0,0.0,0.0,0.0,0.0,0.0,0.0,0.0,0.0,0.0,0.0,0.0,0.0,0.0,
0.1211,4.879516236325516,4.879516236325516,4.670877577977082,0.0,0.0,0.0,4.809970016876038,0.0,0.0,0.0,0.0,0.0,0.0,0.0,0.0,0.0,0.0,0.0,0.0,0.0,0.0,
0.1384,4.879873225286254,4.879873225286254,4.671192661740358,0.0,0.0,0.0,4.810313037437622,0.0,0.0,0.0,0.0,0.0,0.0,0.0,0.0,0.0,0.0,0.0,0.0,0.0,0.0,
0.1557,4.880277942425845,4.880277942425845,4.671549865403962,0.0,0.0,0.0,4.810701916751884,0.0,0.0,0.0,0.0,0.0,0.0,0.0,0.0,0.0,0.0,0.0,0.0,0.0,0.0,
0.1731,4.880733191022442,4.880733191022442,4.671951660932338,0.0,0.0,0.0,4.811139347659074,0.0,0.0,0.0,0.0,0.0,0.0,0.0,0.0,0.0,0.0,0.0,0.0,0.0,0.0,
0.1904,4.881233793125907,4.881233793125907,4.672393475932653,0.0,0.0,0.0,4.811620354061489,0.0,0.0,0.0,0.0,0.0,0.0,0.0,0.0,0.0,0.0,0.0,0.0,0.0,0.0,
0.2077,4.881782287331925,4.881782287331925,4.672877548292277,0.0,0.0,0.0,4.812147374318709,0.0,0.0,0.0,0.0,0.0,0.0,0.0,0.0,0.0,0.0,0.0,0.0,0.0,0.0,
0.225,4.882378739833149,4.882378739833149,4.673403933512497,0.0,0.0,0.0,4.812720471059598,0.0,0.0,0.0,0.0,0.0,0.0,0.0,0.0,0.0,0.0,0.0,0.0,0.0,0.0,
0.2423,4.883023222681018,4.883023222681018,4.673972692004087,0.0,0.0,0.0,4.813339712455375,0.0,0.0,0.0,0.0,0.0,0.0,0.0,0.0,0.0,0.0,0.0,0.0,0.0,0.0,
0.2596,4.883715813812614,4.883715813812614,4.674583889108767,0.0,0.0,0.0,4.8140051722446655,0.0,0.0,0.0,0.0,0.0,0.0,0.0,0.0,0.0,0.0,0.0,0.0,0.0,0.0,
0.2769,4.884456597079419,4.884456597079419,4.675237595122718,0.0,0.0,0.0,4.814716929760519,0.0,0.0,0.0,0.0,0.0,0.0,0.0,0.0,0.0,0.0,0.0,0.0,0.0,0.0,
0.2942,4.885245662278578,4.885245662278578,4.675933885321635,0.0,0.0,0.0,4.815475069959597,0.0,0.0,0.0,0.0,0.0,0.0,0.0,0.0,0.0,0.0,0.0,0.0,0.0,0.0,
0.3115,4.886083105186335,4.886083105186335,4.676672839987906,0.0,0.0,0.0,4.8162796834535255,0.0,0.0,0.0,0.0,0.0,0.0,0.0,0.0,0.0,0.0,0.0,0.0,0.0,0.0,
0.3288,4.886969027593791,4.886969027593791,4.67745454443949,0.0,0.0,0.0,4.817130866542358,0.0,0.0,0.0,0.0,0.0,0.0,0.0,0.0,0.0,0.0,0.0,0.0,0.0,0.0,
0.3461,4.887903537344904,4.887903537344904,4.678279089060537,0.0,0.0,0.0,4.818028721250115,0.0,0.0,0.0,0.0,0.0,0.0,0.0,0.0,0.0,0.0,0.0,0.0,0.0,0.0,
0.3634,4.8888867483770895,4.8888867483770895,4.679146569334403,0.0,0.0,0.0,4.818973355362861,0.0,0.0,0.0,0.0,0.0,0.0,0.0,0.0,0.0,0.0,0.0,0.0,0.0,0.0,
0.3807,4.889918780763943,4.889918780763943,4.68005708587792,0.0,0.0,0.0,4.819964882468602,0.0,0.0,0.0,0.0,0.0,0.0,0.0,0.0,0.0,0.0,0.0,0.0,0.0,0.0,
0.398,4.89099976076057,4.89099976076057,4.681010744478242,0.0,0.0,0.0,4.821003421999794,0.0,0.0,0.0,0.0,0.0,0.0,0.0,0.0,0.0,0.0,0.0,0.0,0.0,0.0,
0.4153,4.892129820851266,4.892129820851266,4.6820076561312725,0.0,0.0,0.0,4.822089099277934,0.0,0.0,0.0,0.0,0.0,0.0,0.0,0.0,0.0,0.0,0.0,0.0,0.0,0.0,
0.4326,4.893309099799719,4.893309099799719,4.68304793708217,0.0,0.0,0.0,4.823222045560536,0.0,0.0,0.0,0.0,0.0,0.0,0.0,0.0,0.0,0.0,0.0,0.0,0.0,0.0,
0.4499,4.894537742701938,4.894537742701938,4.684131708868167,0.0,0.0,0.0,4.8244023980906805,0.0,0.0,0.0,0.0,0.0,0.0,0.0,0.0,0.0,0.0,0.0,0.0,0.0,0.0,
0.4672,4.89581590104142,4.89581590104142,4.685259098363078,0.0,0.0,0.0,4.82563030014864,0.0,0.0,0.0,0.0,0.0,0.0,0.0,0.0,0.0,0.0,0.0,0.0,0.0,0.0,
0.4845,4.897143732747157,4.897143732747157,4.686430237824265,0.0,0.0,0.0,4.826905901106193,0.0,0.0,0.0,0.0,0.0,0.0,0.0,0.0,0.0,0.0,0.0,0.0,0.0,0.0,
0.5019,4.898529510863732,4.898529510863732,4.687652416071345,0.0,0.0,0.0,4.828237145932936,0.0,0.0,0.0,0.0,0.0,0.0,0.0,0.0,0.0,0.0,0.0,0.0,0.0,0.0,
0.5192,4.899957478755754,4.899957478755754,4.688911728958313,0.0,0.0,0.0,4.82960889548994,0.0,0.0,0.0,0.0,0.0,0.0,0.0,0.0,0.0,0.0,0.0,0.0,0.0,0.0,
0.5365,4.901435634141092,4.901435634141092,4.690215222260777,0.0,0.0,0.0,4.831028830180987,0.0,0.0,0.0,0.0,0.0,0.0,0.0,0.0,0.0,0.0,0.0,0.0,0.0,0.0,
0.5538,4.902964161404116,4.902964161404116,4.691563050314233,0.0,0.0,0.0,4.832497124374155,0.0,0.0,0.0,0.0,0.0,0.0,0.0,0.0,0.0,0.0,0.0,0.0,0.0,0.0,
0.5711,4.904543251706211,4.904543251706211,4.692955373105084,0.0,0.0,0.0,4.834013958839169,0.0,0.0,0.0,0.0,0.0,0.0,0.0,0.0,0.0,0.0,0.0,0.0,0.0,0.0,
0.5884,4.906173103060667,4.906173103060667,4.694392356331073,0.0,0.0,0.0,4.835579520817468,0.0,0.0,0.0,0.0,0.0,0.0,0.0,0.0,0.0,0.0,0.0,0.0,0.0,0.0,
0.6057,4.907853920410574,4.907853920410574,4.695874171464051,0.0,0.0,0.0,4.837194004095067,0.0,0.0,0.0,0.0,0.0,0.0,0.0,0.0,0.0,0.0,0.0,0.0,0.0,0.0,
0.623,4.909585915709689,4.909585915709689,4.697400995815155,0.0,0.0,0.0,4.838857609078178,0.0,0.0,0.0,0.0,0.0,0.0,0.0,0.0,0.0,0.0,0.0,0.0,0.0,0.0,
0.6403,4.911369308006575,4.911369308006575,4.698973012602622,0.0,0.0,0.0,4.840570542871924,0.0,0.0,0.0,0.0,0.0,0.0,0.0,0.0,0.0,0.0,0.0,0.0,0.0,0.0,
0.6576,4.91320432353187,4.91320432353187,4.7005904110221435,0.0,0.0,0.0,4.842333019361962,0.0,0.0,0.0,0.0,0.0,0.0,0.0,0.0,0.0,0.0,0.0,0.0,0.0,0.0,
0.6749,4.915091195788909,4.915091195788909,4.702253386319738,0.0,0.0,0.0,4.844145259299185,0.0,0.0,0.0,0.0,0.0,0.0,0.0,0.0,0.0,0.0,0.0,0.0,0.0,0.0,
0.6922,4.917030165647696,4.917030165647696,4.703962139867496,0.0,0.0,0.0,4.846007490387629,0.0,0.0,0.0,0.0,0.0,0.0,0.0,0.0,0.0,0.0,0.0,0.0,0.0,0.0,
0.7095,4.919021481442198,4.919021481442198,4.705716879242018,0.0,0.0,0.0,4.847919947375471,0.0,0.0,0.0,0.0,0.0,0.0,0.0,0.0,0.0,0.0,0.0,0.0,0.0,0.0,
0.7268,4.921065399071588,4.921065399071588,4.707517818305645,0.0,0.0,0.0,4.849882872149607,0.0,0.0,0.0,0.0,0.0,0.0,0.0,0.0,0.0,0.0,0.0,0.0,0.0,0.0,
0.7441,4.923162182104457,4.923162182104457,4.709365177290488,0.0,0.0,0.0,4.851896513833134,0.0,0.0,0.0,0.0,0.0,0.0,0.0,0.0,0.0,0.0,0.0,0.0,0.0,0.0,
0.7614,4.925312101887472,4.925312101887472,4.711259182885813,0.0,0.0,0.0,4.853961128886919,0.0,0.0,0.0,0.0,0.0,0.0,0.0,0.0,0.0,0.0,0.0,0.0,0.0,0.0,
0.7787,4.927515437657198,4.927515437657198,4.713200068327902,0.0,0.0,0.0,4.856076981214099,0.0,0.0,0.0,0.0,0.0,0.0,0.0,0.0,0.0,0.0,0.0,0.0,0.0,0.0,
0.796,4.929772476656339,4.929772476656339,4.715188073493513,0.0,0.0,0.0,4.858244342268731,0.0,0.0,0.0,0.0,0.0,0.0,0.0,0.0,0.0,0.0,0.0,0.0,0.0,0.0,
0.8133,4.932083514253723,4.932083514253723,4.7172234449963435,0.0,0.0,0.0,4.86046349116793,0.0,0.0,0.0,0.0,0.0,0.0,0.0,0.0,0.0,0.0,0.0,0.0,0.0,0.0,
0.8306,4.934448854068494,4.934448854068494,4.719306436286775,0.0,0.0,0.0,4.862734714807921,0.0,0.0,0.0,0.0,0.0,0.0,0.0,0.0,0.0,0.0,0.0,0.0,0.0,0.0,
0.848,4.936882955647884,4.936882955647884,4.721449764629447,0.0,0.0,0.0,4.865071891975071,0.0,0.0,0.0,0.0,0.0,0.0,0.0,0.0,0.0,0.0,0.0,0.0,0.0,0.0,
0.8653,4.939358162892967,4.939358162892967,4.723629062813513,0.0,0.0,0.0,4.8674484628664825,0.0,0.0,0.0,0.0,0.0,0.0,0.0,0.0,0.0,0.0,0.0,0.0,0.0,0.0,
0.8826,4.941888635949301,4.941888635949301,4.725856784813912,0.0,0.0,0.0,4.8698780189041715,0.0,0.0,0.0,0.0,0.0,0.0,0.0,0.0,0.0,0.0,0.0,0.0,0.0,0.0,
0.8999,4.944474712817334,4.944474712817334,4.728133212536954,0.0,0.0,0.0,4.87236087939054,0.0,0.0,0.0,0.0,0.0,0.0,0.0,0.0,0.0,0.0,0.0,0.0,0.0,0.0,
0.9172,4.947116740435777,4.947116740435777,4.730458635277936,0.0,0.0,0.0,4.87489737204983,0.0,0.0,0.0,0.0,0.0,0.0,0.0,0.0,0.0,0.0,0.0,0.0,0.0,0.0,
0.9345,4.949815074833423,4.949815074833423,4.732833349842593,0.0,0.0,0.0,4.8774878331698135,0.0,0.0,0.0,0.0,0.0,0.0,0.0,0.0,0.0,0.0,0.0,0.0,0.0,0.0,
0.9518,4.952570081285544,4.952570081285544,4.7352576606726835,0.0,0.0,0.0,4.880132607747924,0.0,0.0,0.0,0.0,0.0,0.0,0.0,0.0,0.0,0.0,0.0,0.0,0.0,0.0,
0.9691,4.955382134475962,4.955382134475962,4.7377318799756685,0.0,0.0,0.0,4.882832049642531,0.0,0.0,0.0,0.0,0.0,0.0,0.0,0.0,0.0,0.0,0.0,0.0,0.0,0.0,
0.9864,4.95825161866412,4.95825161866412,4.740256327858599,0.0,0.0,0.0,4.885586521728946,0.0,0.0,0.0,0.0,0.0,0.0,0.0,0.0,0.0,0.0,0.0,0.0,0.0,0.0,
1.0037,4.961178927857897,4.961178927857897,4.742831332466519,0.0,0.0,0.0,4.888396396060771,0.0,0.0,0.0,0.0,0.0,0.0,0.0,0.0,0.0,0.0,0.0,0.0,0.0,0.0,
1.021,4.9641644659919955,4.9641644659919955,4.745457230125132,0.0,0.0,0.0,4.891262054036375,0.0,0.0,0.0,0.0,0.0,0.0,0.0,0.0,0.0,0.0,0.0,0.0,0.0,0.0,
1.0383,4.9672086471122965,4.9672086471122965,4.748134365488365,0.0,0.0,0.0,4.894183886570986,0.0,0.0,0.0,0.0,0.0,0.0,0.0,0.0,0.0,0.0,0.0,0.0,0.0,0.0,
1.0556,4.970311895566174,4.970311895566174,4.750863091690491,0.0,0.0,0.0,4.897162294274279,0.0,0.0,0.0,0.0,0.0,0.0,0.0,0.0,0.0,0.0,0.0,0.0,0.0,0.0,
1.0729,4.973474646199314,4.973474646199314,4.753643770503492,0.0,0.0,0.0,4.90019768763404,0.0,0.0,0.0,0.0,0.0,0.0,0.0,0.0,0.0,0.0,0.0,0.0,0.0,0.0,
1.0902,4.976697344558657,4.976697344558657,4.756476772499276,0.0,0.0,0.0,4.90329048720553,0.0,0.0,0.0,0.0,0.0,0.0,0.0,0.0,0.0,0.0,0.0,0.0,0.0,0.0,
1.1075,4.979980447102303,4.979980447102303,4.759362477217188,0.0,0.0,0.0,4.906441123807265,0.0,0.0,0.0,0.0,0.0,0.0,0.0,0.0,0.0,0.0,0.0,0.0,0.0,0.0,
1.1248,4.98332442141629,4.98332442141629,4.762301273337174,0.0,0.0,0.0,4.909650038723251,0.0,0.0,0.0,0.0,0.0,0.0,0.0,0.0,0.0,0.0,0.0,0.0,0.0,0.0,
1.1421,4.986729746438353,4.986729746438353,4.76529355885835,0.0,0.0,0.0,4.912917683911686,0.0,0.0,0.0,0.0,0.0,0.0,0.0,0.0,0.0,0.0,0.0,0.0,0.0,0.0,
1.1594,4.990196912689319,4.990196912689319,4.768339741283469,0.0,0.0,0.0,4.916244522220702,0.0,0.0,0.0,0.0,0.0,0.0,0.0,0.0,0.0,0.0,0.0,0.0,0.0,0.0,
1.1768,4.993747006521897,4.993747006521897,4.771458318464431,0.0,0.0,0.0,4.919650777169408,0.0,0.0,0.0,0.0,0.0,0.0,0.0,0.0,0.0,0.0,0.0,0.0,0.0,0.0,
1.1941,4.9973397391877485,4.9973397391877485,4.774613873863068,0.0,0.0,0.0,4.923097784079522,0.0,0.0,0.0,0.0,0.0,0.0,0.0,0.0,0.0,0.0,0.0,0.0,0.0,0.0,
1.2114,5.000995859653112,5.000995859653112,4.777824610188842,0.0,0.0,0.0,4.926605443165022,0.0,0.0,0.0,0.0,0.0,0.0,0.0,0.0,0.0,0.0,0.0,0.0,0.0,0.0,
1.2287,5.004715907314125,5.004715907314125,4.781090974987448,0.0,0.0,0.0,4.930174263205233,0.0,0.0,0.0,0.0,0.0,0.0,0.0,0.0,0.0,0.0,0.0,0.0,0.0,0.0,
1.246,5.008500434428129,5.008500434428129,4.7844134263263225,0.0,0.0,0.0,4.93380476506086,0.0,0.0,0.0,0.0,0.0,0.0,0.0,0.0,0.0,0.0,0.0,0.0,0.0,0.0,
1.2633,5.012350006395043,5.012350006395043,4.787792433018446,0.0,0.0,0.0,4.937497481936178,0.0,0.0,0.0,0.0,0.0,0.0,0.0,0.0,0.0,0.0,0.0,0.0,0.0,0.0,
1.2806,5.0162652020483485,5.0162652020483485,4.791228474853729,0.0,0.0,0.0,4.941252959650142,0.0,0.0,0.0,0.0,0.0,0.0,0.0,0.0,0.0,0.0,0.0,0.0,0.0,0.0,
1.2979,5.020246613955618,5.020246613955618,4.7947220428377655,0.0,0.0,0.0,4.945071756916334,0.0,0.0,0.0,0.0,0.0,0.0,0.0,0.0,0.0,0.0,0.0,0.0,0.0,0.0,
1.3152,5.024294848729443,5.024294848729443,4.798273639438806,0.0,0.0,0.0,4.948954445632564,0.0,0.0,0.0,0.0,0.0,0.0,0.0,0.0,0.0,0.0,0.0,0.0,0.0,0.0,
1.3325,5.02841052734875,5.02841052734875,4.801883778842851,0.0,0.0,0.0,4.952901611180117,0.0,0.0,0.0,0.0,0.0,0.0,0.0,0.0,0.0,0.0,0.0,0.0,0.0,0.0,
1.3498,5.032594285491012,5.032594285491012,4.805552987217112,0.0,0.0,0.0,4.956913852733045,0.0,0.0,0.0,0.0,0.0,0.0,0.0,0.0,0.0,0.0,0.0,0.0,0.0,0.0,
1.3671,5.036846773875839,5.036846773875839,4.8092818029826425,0.0,0.0,0.0,4.960991783578106,0.0,0.0,0.0,0.0,0.0,0.0,0.0,0.0,0.0,0.0,0.0,0.0,0.0,0.0,
1.3844,5.041168658620596,5.041168658620596,4.813070777096046,0.0,0.0,0.0,4.965136031445746,0.0,0.0,0.0,0.0,0.0,0.0,0.0,0.0,0.0,0.0,0.0,0.0,0.0,0.0,
1.4017,5.045560621607646,5.045560621607646,4.816920473340452,0.0,0.0,0.0,4.969347238851914,0.0,0.0,0.0,0.0,0.0,0.0,0.0,0.0,0.0,0.0,0.0,0.0,0.0,0.0,
1.419,5.050023360865046,5.050023360865046,4.820831468626778,0.0,0.0,0.0,4.97362606345229,0.0,0.0,0.0,0.0,0.0,0.0,0.0,0.0,0.0,0.0,0.0,0.0,0.0,0.0,
1.4363,5.054557590959864,5.054557590959864,4.824804353305135,0.0,0.0,0.0,4.977973178408288,0.0,0.0,0.0,0.0,0.0,0.0,0.0,0.0,0.0,0.0,0.0,0.0,0.0,0.0,
1.4536,5.059164043405567,5.059164043405567,4.828839731486833,0.0,0.0,0.0,4.982389272765989,0.0,0.0,0.0,0.0,0.0,0.0,0.0,0.0,0.0,0.0,0.0,0.0,0.0,0.0,
1.4709,5.063843467083657,5.063843467083657,4.83293822137765,0.0,0.0,0.0,4.986875051848322,0.0,0.0,0.0,0.0,0.0,0.0,0.0,0.0,0.0,0.0,0.0,0.0,0.0,0.0,
1.4882,5.06859662867999,5.06859662867999,4.837100455622444,0.0,0.0,0.0,4.991431237660808,0.0,0.0,0.0,0.0,0.0,0.0,0.0,0.0,0.0,0.0,0.0,0.0,0.0,0.0,
1.5056,5.073452437009124,5.073452437009124,4.841351701486049,0.0,0.0,0.0,4.996085525168099,0.0,0.0,0.0,0.0,0.0,0.0,0.0,0.0,0.0,0.0,0.0,0.0,0.0,0.0,
1.5229,5.07835588577999,5.07835588577999,4.845643759919725,0.0,0.0,0.0,5.0007851771599015,0.0,0.0,0.0,0.0,0.0,0.0,0.0,0.0,0.0,0.0,0.0,0.0,0.0,0.0,
1.5402,5.083335488767453,5.083335488767453,4.850001554873618,0.0,0.0,0.0,5.005557510802841,0.0,0.0,0.0,0.0,0.0,0.0,0.0,0.0,0.0,0.0,0.0,0.0,0.0,0.0,
1.5575,5.08839208867458,5.08839208867458,4.854425780537802,0.0,0.0,0.0,5.010403319295654,0.0,0.0,0.0,0.0,0.0,0.0,0.0,0.0,0.0,0.0,0.0,0.0,0.0,0.0,
1.5748,5.093526548439699,5.093526548439699,4.858917147457862,0.0,0.0,0.0,5.015323414779086,0.0,0.0,0.0,0.0,0.0,0.0,0.0,0.0,0.0,0.0,0.0,0.0,0.0,0.0,
1.5921,5.098739751775978,5.098739751775978,4.863476382959733,0.0,0.0,0.0,5.02031862883723,0.0,0.0,0.0,0.0,0.0,0.0,0.0,0.0,0.0,0.0,0.0,0.0,0.0,0.0,
1.6094,5.10403260373117,5.10403260373117,4.868104231589506,0.0,0.0,0.0,5.025389813017282,0.0,0.0,0.0,0.0,0.0,0.0,0.0,0.0,0.0,0.0,0.0,0.0,0.0,0.0,
1.6267,5.109406031267522,5.109406031267522,4.872801455569633,0.0,0.0,0.0,5.030537839368225,0.0,0.0,0.0,0.0,0.0,0.0,0.0,0.0,0.0,0.0,0.0,0.0,0.0,0.0,
1.644,5.1148609838637755,5.1148609838637755,4.87756883527139,0.0,0.0,0.0,5.035763600999647,0.0,0.0,0.0,0.0,0.0,0.0,0.0,0.0,0.0,0.0,0.0,0.0,0.0,0.0,
1.6613,5.120398434139385,5.120398434139385,4.88240716970496,0.0,0.0,0.0,5.041068012661243,0.0,0.0,0.0,0.0,0.0,0.0,0.0,0.0,0.0,0.0,0.0,0.0,0.0,0.0,
1.6786,5.126019378502436,5.126019378502436,4.887317277027494,0.0,0.0,0.0,5.046452011344122,0.0,0.0,0.0,0.0,0.0,0.0,0.0,0.0,0.0,0.0,0.0,0.0,0.0,0.0,
1.6959,5.131724837822127,5.131724837822127,4.8922999950703625,0.0,0.0,0.0,5.051916556904872,0.0,0.0,0.0,0.0,0.0,0.0,0.0,0.0,0.0,0.0,0.0,0.0,0.0,0.0,
1.7132,5.137515858126968,5.137515858126968,4.897356181885701,0.0,0.0,0.0,5.057462632713213,0.0,0.0,0.0,0.0,0.0,0.0,0.0,0.0,0.0,0.0,0.0,0.0,0.0,0.0,
1.7305,5.143393511329954,5.143393511329954,4.902486716314202,0.0,0.0,0.0,5.063091246324704,0.0,0.0,0.0,0.0,0.0,0.0,0.0,0.0,0.0,0.0,0.0,0.0,0.0,0.0,
1.7478,5.149358895981667,5.149358895981667,4.907692498573992,0.0,0.0,0.0,5.068803430179108,0.0,0.0,0.0,0.0,0.0,0.0,0.0,0.0,0.0,0.0,0.0,0.0,0.0,0.0,
1.7651,5.155413138053047,5.155413138053047,4.912974450872447,0.0,0.0,0.0,5.07460024232618,0.0,0.0,0.0,0.0,0.0,0.0,0.0,0.0,0.0,0.0,0.0,0.0,0.0,0.0,
1.7824,5.161557391748913,5.161557391748913,4.918333518041257,0.0,0.0,0.0,5.080482767179694,0.0,0.0,0.0,0.0,0.0,0.0,0.0,0.0,0.0,0.0,0.0,0.0,0.0,0.0,
1.7997,5.167792840353727,5.167792840353727,4.923770668196742,0.0,0.0,0.0,5.086452116301399,0.0,0.0,0.0,0.0,0.0,0.0,0.0,0.0,0.0,0.0,0.0,0.0,0.0,0.0,
1.817,5.174120697111325,5.174120697111325,4.929286893425429,0.0,0.0,0.0,5.092509429216027,0.0,0.0,0.0,0.0,0.0,0.0,0.0,0.0,0.0,0.0,0.0,0.0,0.0,0.0,
1.8343,5.180542206139848,5.180542206139848,4.934883210497127,0.0,0.0,0.0,5.098655874258942,0.0,0.0,0.0,0.0,0.0,0.0,0.0,0.0,0.0,0.0,0.0,0.0,0.0,0.0,
1.8517,5.187096589123914,5.187096589123914,4.940593717153144,0.0,0.0,0.0,5.104928965133657,0.0,0.0,0.0,0.0,0.0,0.0,0.0,0.0,0.0,0.0,0.0,0.0,0.0,0.0,
1.869,5.193709823499916,5.193709823499916,4.9463538490061625,0.0,0.0,0.0,5.111257832001999,0.0,0.0,0.0,0.0,0.0,0.0,0.0,0.0,0.0,0.0,0.0,0.0,0.0,0.0,
1.8863,5.200420645329305,5.200420645329305,4.952197285086799,0.0,0.0,0.0,5.1176795252484695,0.0,0.0,0.0,0.0,0.0,0.0,0.0,0.0,0.0,0.0,0.0,0.0,0.0,0.0,
1.9036,5.20723043235614,5.20723043235614,4.958125148779672,0.0,0.0,0.0,5.124195337830651,0.0,0.0,0.0,0.0,0.0,0.0,0.0,0.0,0.0,0.0,0.0,0.0,0.0,0.0,
1.9209,5.214140598377188,5.214140598377188,4.964138592177021,0.0,0.0,0.0,5.1308065963104665,0.0,0.0,0.0,0.0,0.0,0.0,0.0,0.0,0.0,0.0,0.0,0.0,0.0,0.0,
1.9382,5.2211525944104435,5.2211525944104435,4.9702387969844315,0.0,0.0,0.0,5.137514661935106,0.0,0.0,0.0,0.0,0.0,0.0,0.0,0.0,0.0,0.0,0.0,0.0,0.0,0.0,
1.9555,5.228267909913097,5.228267909913097,4.976426975464351,0.0,0.0,0.0,5.144320931763515,0.0,0.0,0.0,0.0,0.0,0.0,0.0,0.0,0.0,0.0,0.0,0.0,0.0,0.0,
1.9728,5.235488074052637,5.235488074052637,4.9827043714197465,0.0,0.0,0.0,5.151226839841674,0.0,0.0,0.0,0.0,0.0,0.0,0.0,0.0,0.0,0.0,0.0,0.0,0.0,0.0,
1.9901,5.242814657032922,5.242814657032922,4.9890722612192,0.0,0.0,0.0,5.158233858428349,0.0,0.0,0.0,0.0,0.0,0.0,0.0,0.0,0.0,0.0,0.0,0.0,0.0,0.0,
2.0074,5.250249271478672,5.250249271478672,4.995531954866626,0.0,0.0,0.0,5.165343499274656,0.0,0.0,0.0,0.0,0.0,0.0,0.0,0.0,0.0,0.0,0.0,0.0,0.0,0.0,
2.0247,5.257793573881477,5.257793573881477,5.00208479711703,0.0,0.0,0.0,5.172557314959994,0.0,0.0,0.0,0.0,0.0,0.0,0.0,0.0,0.0,0.0,0.0,0.0,0.0,0.0,
2.042,5.26544926611042,5.26544926611042,5.00873216864123,0.0,0.0,0.0,5.179876900287357,0.0,0.0,0.0,0.0,0.0,0.0,0.0,0.0,0.0,0.0,0.0,0.0,0.0,0.0,
2.0593,5.273218096991063,5.273218096991063,5.015475487242183,0.0,0.0,0.0,5.187303893741436,0.0,0.0,0.0,0.0,0.0,0.0,0.0,0.0,0.0,0.0,0.0,0.0,0.0,0.0,
2.0766,5.281101863956626,5.281101863956626,5.0223162091253934,0.0,0.0,0.0,5.194839979012882,0.0,0.0,0.0,0.0,0.0,0.0,0.0,0.0,0.0,0.0,0.0,0.0,0.0,0.0,
2.0939,5.289102414775231,5.289102414775231,5.0292558302269335,0.0,0.0,0.0,5.202486886592465,0.0,0.0,0.0,0.0,0.0,0.0,0.0,0.0,0.0,0.0,0.0,0.0,0.0,0.0,
2.1112,5.297221649357548,5.297221649357548,5.03629588760151,0.0,0.0,0.0,5.210246395438868,0.0,0.0,0.0,0.0,0.0,0.0,0.0,0.0,0.0,0.0,0.0,0.0,0.0,0.0,
2.1285,5.305461521649762,5.305461521649762,5.043437960874576,0.0,0.0,0.0,5.218120334724699,0.0,0.0,0.0,0.0,0.0,0.0,0.0,0.0,0.0,0.0,0.0,0.0,0.0,0.0,
2.1458,5.313824041616287,5.313824041616287,5.050683673762094,0.0,0.0,0.0,5.226110585664889,0.0,0.0,0.0,0.0,0.0,0.0,0.0,0.0,0.0,0.0,0.0,0.0,0.0,0.0,
2.1631,5.322311277317875,5.322311277317875,5.058034695661063,0.0,0.0,0.0,5.234219083432271,0.0,0.0,0.0,0.0,0.0,0.0,0.0,0.0,0.0,0.0,0.0,0.0,0.0,0.0,
2.1805,5.3309755224068285,5.3309755224068285,5.0655361679367426,0.0,0.0,0.0,5.242495737583467,0.0,0.0,0.0,0.0,0.0,0.0,0.0,0.0,0.0,0.0,0.0,0.0,0.0,0.0,
2.1978,5.3397193895088035,5.3397193895088035,5.073103641270123,0.0,0.0,0.0,5.250847473429244,0.0,0.0,0.0,0.0,0.0,0.0,0.0,0.0,0.0,0.0,0.0,0.0,0.0,0.0,
2.2151,5.348594560670956,5.348594560670956,5.080781733613477,0.0,0.0,0.0,5.259323618318462,0.0,0.0,0.0,0.0,0.0,0.0,0.0,0.0,0.0,0.0,0.0,0.0,0.0,0.0,
2.2324,5.357603359629961,5.357603359629961,5.088572314885415,0.0,0.0,0.0,5.267926344715112,0.0,0.0,0.0,0.0,0.0,0.0,0.0,0.0,0.0,0.0,0.0,0.0,0.0,0.0,
2.2497,5.366748180266507,5.366748180266507,5.096477309876725,0.0,0.0,0.0,5.27665789013658,0.0,0.0,0.0,0.0,0.0,0.0,0.0,0.0,0.0,0.0,0.0,0.0,0.0,0.0,
2.267,5.376031489390035,5.376031489390035,5.104498700367574,0.0,0.0,0.0,5.285520559715882,0.0,0.0,0.0,0.0,0.0,0.0,0.0,0.0,0.0,0.0,0.0,0.0,0.0,0.0,
2.2843,5.385455829667757,5.385455829667757,5.112638527351658,0.0,0.0,0.0,5.294516728895724,0.0,0.0,0.0,0.0,0.0,0.0,0.0,0.0,0.0,0.0,0.0,0.0,0.0,0.0,
