energies(eV),real_xx,real_yy,real_zz,real_xy,real_yz,real_xz,real_ave,imag_xx,imag_yy,imag_zz,imag_xy,imag_yz,imag_xz,imag_ave,absorption_xx,absorption_yy,absorption_zz,absorption_xy,absorption_yz,absorption_xz,absorption_ave,band_gap
0.0,2.7488617211506785,2.7526379431675956,2.785187774960849,0.0,0.0,0.0,2.7622291464263746,0.0,0.0,0.0,0.0,0.0,0.0,0.0,0.0,0.0,0.0,0.0,0.0,0.0,0.0,8.2421
0.0227,2.748866108625324,2.7526423539510767,2.7851921975405216,0.0,0.0,0.0,2.7622335533723077,0.0,0.0,0.0,0.0,0.0,0.0,0.0,0.0,0.0,0.0,0.0,0.0,0.0,0.0,
0.0453,2.7488791940015034,2.752655508845012,2.7852053876130367,0.0,0.0,0.0,2.762246696819851,0.0,0.0,0.0,0.0,0.0,0.0,0.0,0.0,0.0,0.0,0.0,0.0,0.0,0.0,
0.068,2.748901093620109,2.752677524810001,2.7852274624432214,0.0,0.0,0.0,2.762268693624444,0.0,0.0,0.0,0.0,0.0,0.0,0.0,0.0,0.0,0.0,0.0,0.0,0.0,0.0,
0.0906,2.748931615429288,2.752708208776596,2.7852582284312923,0.0,0.0,0.0,2.762299350879059,0.0,0.0,0.0,0.0,0.0,0.0,0.0,0.0,0.0,0.0,0.0,0.0,0.0,0.0,
0.1133,2.748971030795839,2.752747833557158,2.7852979590989326,0.0,0.0,0.0,2.762338941150643,0.0,0.0,0.0,0.0,0.0,0.0,0.0,0.0,0.0,0.0,0.0,0.0,0.0,0.0,
0.1359,2.749018994061344,2.7527960516616776,2.7853463060021397,0.0,0.0,0.0,2.7623871172417203,0.0,0.0,0.0,0.0,0.0,0.0,0.0,0.0,0.0,0.0,0.0,0.0,0.0,0.0,
0.1586,2.7490759316635573,2.7528532917997053,2.7854036989642736,0.0,0.0,0.0,2.7624443074758456,0.0,0.0,0.0,0.0,0.0,0.0,0.0,0.0,0.0,0.0,0.0,0.0,0.0,0.0,
0.1813,2.749141653068939,2.752919362432502,2.785469945897751,0.0,0.0,0.0,2.762510320466397,0.0,0.0,0.0,0.0,0.0,0.0,0.0,0.0,0.0,0.0,0.0,0.0,0.0,0.0,
0.2039,2.7492158134936417,2.7529939169522315,2.7855446992278914,0.0,0.0,0.0,2.762584809891255,0.0,0.0,0.0,0.0,0.0,0.0,0.0,0.0,0.0,0.0,0.0,0.0,0.0,0.0,
0.2266,2.7492990722940958,2.753077618228507,2.7856286235435186,0.0,0.0,0.0,2.76266843802204,0.0,0.0,0.0,0.0,0.0,0.0,0.0,0.0,0.0,0.0,0.0,0.0,0.0,0.0,
0.2492,2.7493906993241177,2.753169732245196,2.785720982818739,0.0,0.0,0.0,2.762760471462684,0.0,0.0,0.0,0.0,0.0,0.0,0.0,0.0,0.0,0.0,0.0,0.0,0.0,0.0,
0.2719,2.749491509236732,2.753271077996608,2.7858225981686155,0.0,0.0,0.0,2.762861728467319,0.0,0.0,0.0,0.0,0.0,0.0,0.0,0.0,0.0,0.0,0.0,0.0,0.0,0.0,
0.2945,2.7496006179718897,2.7533807667361856,2.785932578417132,0.0,0.0,0.0,2.7629713210417357,0.0,0.0,0.0,0.0,0.0,0.0,0.0,0.0,0.0,0.0,0.0,0.0,0.0,0.0,
0.3172,2.7497189956146126,2.7534997737195317,2.7860519013404073,0.0,0.0,0.0,2.7630902235581836,0.0,0.0,0.0,0.0,0.0,0.0,0.0,0.0,0.0,0.0,0.0,0.0,0.0,0.0,
0.3398,2.749845604046591,2.753627055324066,2.7861795204685755,0.0,0.0,0.0,2.7632173932797444,0.0,0.0,0.0,0.0,0.0,0.0,0.0,0.0,0.0,0.0,0.0,0.0,0.0,0.0,
0.3625,2.7499815689463376,2.7537637432294435,2.786316570399423,0.0,0.0,0.0,2.7633539608584012,0.0,0.0,0.0,0.0,0.0,0.0,0.0,0.0,0.0,0.0,0.0,0.0,0.0,0.0,
0.3852,2.750126355145409,2.7539092994390733,2.7864625116198725,0.0,0.0,0.0,2.7634993887347847,0.0,0.0,0.0,0.0,0.0,0.0,0.0,0.0,0.0,0.0,0.0,0.0,0.0,0.0,
0.4078,2.7502792725696183,2.754063030226283,2.786616648477381,0.0,0.0,0.0,2.7636529837577606,0.0,0.0,0.0,0.0,0.0,0.0,0.0,0.0,0.0,0.0,0.0,0.0,0.0,0.0,
0.4305,2.7504416808194505,2.7542263024425697,2.786780351333646,0.0,0.0,0.0,2.7638161115318893,0.0,0.0,0.0,0.0,0.0,0.0,0.0,0.0,0.0,0.0,0.0,0.0,0.0,0.0,
0.4531,2.7506121556623055,2.754397684299128,2.7869521845180194,0.0,0.0,0.0,2.763987341493151,0.0,0.0,0.0,0.0,0.0,0.0,0.0,0.0,0.0,0.0,0.0,0.0,0.0,0.0,
0.4758,2.750792212809994,2.754578699593731,2.7871336757292524,0.0,0.0,0.0,2.764168196044326,0.0,0.0,0.0,0.0,0.0,0.0,0.0,0.0,0.0,0.0,0.0,0.0,0.0,0.0,
0.4984,2.750980273266319,2.7547677609503465,2.7873232333008353,0.0,0.0,0.0,2.7643570891725004,0.0,0.0,0.0,0.0,0.0,0.0,0.0,0.0,0.0,0.0,0.0,0.0,0.0,0.0,
0.5211,2.75117800910739,2.754966549368101,2.787522542520281,0.0,0.0,0.0,2.764555700331924,0.0,0.0,0.0,0.0,0.0,0.0,0.0,0.0,0.0,0.0,0.0,0.0,0.0,0.0,
0.5438,2.751384615942748,2.75517425620083,2.7877307924871606,0.0,0.0,0.0,2.76476322154358,0.0,0.0,0.0,0.0,0.0,0.0,0.0,0.0,0.0,0.0,0.0,0.0,0.0,0.0,
0.5664,2.751599133607465,2.75538991619634,2.787947015296982,0.0,0.0,0.0,2.764978688366929,0.0,0.0,0.0,0.0,0.0,0.0,0.0,0.0,0.0,0.0,0.0,0.0,0.0,0.0,
0.5891,2.751823469429443,2.755615446866562,2.7881731333245643,0.0,0.0,0.0,2.76520401654019,0.0,0.0,0.0,0.0,0.0,0.0,0.0,0.0,0.0,0.0,0.0,0.0,0.0,0.0,
0.6117,2.7520556561427036,2.75584887049579,2.7884071635571956,0.0,0.0,0.0,2.76543723006523,0.0,0.0,0.0,0.0,0.0,0.0,0.0,0.0,0.0,0.0,0.0,0.0,0.0,0.0,
0.6344,2.752297758188063,2.7560922625522197,2.7886511867034725,0.0,0.0,0.0,2.7656804024812516,0.0,0.0,0.0,0.0,0.0,0.0,0.0,0.0,0.0,0.0,0.0,0.0,0.0,0.0,
0.657,2.752547652516511,2.7563434887049976,2.7889030627402,0.0,0.0,0.0,2.7659314013205694,0.0,0.0,0.0,0.0,0.0,0.0,0.0,0.0,0.0,0.0,0.0,0.0,0.0,0.0,
0.6797,2.7528075610278435,2.7566047827275644,2.7891650310540816,0.0,0.0,0.0,2.76619245826983,0.0,0.0,0.0,0.0,0.0,0.0,0.0,0.0,0.0,0.0,0.0,0.0,0.0,0.0,
0.7023,2.7530752045403615,2.7568738533213475,2.7894347942634896,0.0,0.0,0.0,2.7664612840417333,0.0,0.0,0.0,0.0,0.0,0.0,0.0,0.0,0.0,0.0,0.0,0.0,0.0,0.0,
0.725,2.7533529627858684,2.7571530929411807,2.789714750804424,0.0,0.0,0.0,2.7667402688438245,0.0,0.0,0.0,0.0,0.0,0.0,0.0,0.0,0.0,0.0,0.0,0.0,0.0,0.0,
0.7477,2.7536396828280303,2.7574413425396145,2.790003738458014,0.0,0.0,0.0,2.7670282546085527,0.0,0.0,0.0,0.0,0.0,0.0,0.0,0.0,0.0,0.0,0.0,0.0,0.0,0.0,
0.7703,2.753934054368906,2.7577372848627055,2.7903004364216963,0.0,0.0,0.0,2.767323925217769,0.0,0.0,0.0,0.0,0.0,0.0,0.0,0.0,0.0,0.0,0.0,0.0,0.0,0.0,
0.793,2.754238694822158,2.758043551328638,2.7906074826370255,0.0,0.0,0.0,2.7676299095959407,0.0,0.0,0.0,0.0,0.0,0.0,0.0,0.0,0.0,0.0,0.0,0.0,0.0,0.0,
0.8156,2.754550932798229,2.7583574563281603,2.790922184456693,0.0,0.0,0.0,2.7679435245276944,0.0,0.0,0.0,0.0,0.0,0.0,0.0,0.0,0.0,0.0,0.0,0.0,0.0,0.0,
0.8383,2.7548735445949637,2.7586817910219095,2.7912473399185895,0.0,0.0,0.0,2.768267558511821,0.0,0.0,0.0,0.0,0.0,0.0,0.0,0.0,0.0,0.0,0.0,0.0,0.0,0.0,
0.8609,2.7552037012577317,2.7590137113885413,2.7915800975913765,0.0,0.0,0.0,2.7685991700792165,0.0,0.0,0.0,0.0,0.0,0.0,0.0,0.0,0.0,0.0,0.0,0.0,0.0,0.0,
0.8836,2.755544338437469,2.7593561688040147,2.791923416075861,0.0,0.0,0.0,2.768941307772448,0.0,0.0,0.0,0.0,0.0,0.0,0.0,0.0,0.0,0.0,0.0,0.0,0.0,0.0,
0.9063,2.755894029510395,2.7597077290687246,2.7922758573210595,0.0,0.0,0.0,2.7692925386333926,0.0,0.0,0.0,0.0,0.0,0.0,0.0,0.0,0.0,0.0,0.0,0.0,0.0,0.0,
0.9289,2.756251188881402,2.760066798153432,2.7926358230904538,0.0,0.0,0.0,2.7696512700417624,0.0,0.0,0.0,0.0,0.0,0.0,0.0,0.0,0.0,0.0,0.0,0.0,0.0,0.0,
0.9516,2.7566189923484172,2.760436568883324,2.793006513943258,0.0,0.0,0.0,2.7700206917249997,0.0,0.0,0.0,0.0,0.0,0.0,0.0,0.0,0.0,0.0,0.0,0.0,0.0,0.0,
0.9742,2.7569942147553093,2.7608137988993096,2.7933846792080264,0.0,0.0,0.0,2.7703975642875487,0.0,0.0,0.0,0.0,0.0,0.0,0.0,0.0,0.0,0.0,0.0,0.0,0.0,0.0,
0.9969,2.7573801925486463,2.761201842548408,2.7937736812960248,0.0,0.0,0.0,2.770785238797693,0.0,0.0,0.0,0.0,0.0,0.0,0.0,0.0,0.0,0.0,0.0,0.0,0.0,0.0,
1.0195,2.757773541244068,2.7615972972814955,2.7941701089971267,0.0,0.0,0.0,2.771180315840897,0.0,0.0,0.0,0.0,0.0,0.0,0.0,0.0,0.0,0.0,0.0,0.0,0.0,0.0,
1.0422,2.7581777585045573,2.7620036795399847,2.7945774871395375,0.0,0.0,0.0,2.7715863083946934,0.0,0.0,0.0,0.0,0.0,0.0,0.0,0.0,0.0,0.0,0.0,0.0,0.0,0.0,
1.0648,2.758589299951744,2.7624174260141725,2.7949922434114196,0.0,0.0,0.0,2.771999656459112,0.0,0.0,0.0,0.0,0.0,0.0,0.0,0.0,0.0,0.0,0.0,0.0,0.0,0.0,
1.0875,2.7590118250616067,2.7628422158414936,2.7954180656515373,0.0,0.0,0.0,2.772424035518213,0.0,0.0,0.0,0.0,0.0,0.0,0.0,0.0,0.0,0.0,0.0,0.0,0.0,0.0,
1.1102,2.7594435510481743,2.763276256741249,2.795853156909911,0.0,0.0,0.0,2.7728576548997785,0.0,0.0,0.0,0.0,0.0,0.0,0.0,0.0,0.0,0.0,0.0,0.0,0.0,0.0,
1.1328,2.7598825335853627,2.7637175940126752,2.796295557494805,0.0,0.0,0.0,2.7732985616976147,0.0,0.0,0.0,0.0,0.0,0.0,0.0,0.0,0.0,0.0,0.0,0.0,0.0,0.0,
1.1555,2.7603326762311617,2.764170152210738,2.796749201118676,0.0,0.0,0.0,2.773750676520192,0.0,0.0,0.0,0.0,0.0,0.0,0.0,0.0,0.0,0.0,0.0,0.0,0.0,0.0,
1.1781,2.7607900320331527,2.76462996326195,2.797210109888057,0.0,0.0,0.0,2.7742100350610532,0.0,0.0,0.0,0.0,0.0,0.0,0.0,0.0,0.0,0.0,0.0,0.0,0.0,0.0,
1.2008,2.7612586679828133,2.765101116051551,2.797682382138239,0.0,0.0,0.0,2.7746807220575342,0.0,0.0,0.0,0.0,0.0,0.0,0.0,0.0,0.0,0.0,0.0,0.0,0.0,0.0,
1.2234,2.761734475029397,2.765579479522579,2.7981618766805,0.0,0.0,0.0,2.7751586104108257,0.0,0.0,0.0,0.0,0.0,0.0,0.0,0.0,0.0,0.0,0.0,0.0,0.0,0.0,
1.2461,2.762221684297968,2.7660693075966174,2.798652857169576,0.0,0.0,0.0,2.7756479496880537,0.0,0.0,0.0,0.0,0.0,0.0,0.0,0.0,0.0,0.0,0.0,0.0,0.0,0.0,
1.2688,2.762718231888381,2.76656852535204,2.799153243432076,0.0,0.0,0.0,2.7761466668908326,0.0,0.0,0.0,0.0,0.0,0.0,0.0,0.0,0.0,0.0,0.0,0.0,0.0,0.0,
1.2914,2.763221889958616,2.7670748930250815,2.799660790163072,0.0,0.0,0.0,2.7766525243822566,0.0,0.0,0.0,0.0,0.0,0.0,0.0,0.0,0.0,0.0,0.0,0.0,0.0,0.0,
1.3141,2.7637371373962107,2.7675929136666118,2.8001800105526833,0.0,0.0,0.0,2.777170020538502,0.0,0.0,0.0,0.0,0.0,0.0,0.0,0.0,0.0,0.0,0.0,0.0,0.0,0.0,
1.3367,2.76425945661878,2.7681180454480208,2.8007063519024333,0.0,0.0,0.0,2.777694617989745,0.0,0.0,0.0,0.0,0.0,0.0,0.0,0.0,0.0,0.0,0.0,0.0,0.0,0.0,
1.3594,2.7647934925322692,2.7686549583573714,2.8012444945969612,0.0,0.0,0.0,2.7782309818288673,0.0,0.0,0.0,0.0,0.0,0.0,0.0,0.0,0.0,0.0,0.0,0.0,0.0,0.0,
1.382,2.7653345628932007,2.7691989449981516,2.801789720092559,0.0,0.0,0.0,2.7787744093279705,0.0,0.0,0.0,0.0,0.0,0.0,0.0,0.0,0.0,0.0,0.0,0.0,0.0,0.0,
1.4047,2.7658874794340322,2.76975484311064,2.802346876772355,0.0,0.0,0.0,2.779329733105676,0.0,0.0,0.0,0.0,0.0,0.0,0.0,0.0,0.0,0.0,0.0,0.0,0.0,0.0,
1.4274,2.7664498929043537,2.7703202908605604,2.8029135970241517,0.0,0.0,0.0,2.7798945935963553,0.0,0.0,0.0,0.0,0.0,0.0,0.0,0.0,0.0,0.0,0.0,0.0,0.0,0.0,
1.45,2.767019287340603,2.7708927587767542,2.8034873453469613,0.0,0.0,0.0,2.780466463821439,0.0,0.0,0.0,0.0,0.0,0.0,0.0,0.0,0.0,0.0,0.0,0.0,0.0,0.0,
1.4727,2.7676007264858535,2.771477338013173,2.8040732238855073,0.0,0.0,0.0,2.781050429461511,0.0,0.0,0.0,0.0,0.0,0.0,0.0,0.0,0.0,0.0,0.0,0.0,0.0,0.0,
1.4953,2.768189112691773,2.7720689034702164,2.8046660957475886,0.0,0.0,0.0,2.781641370636526,0.0,0.0,0.0,0.0,0.0,0.0,0.0,0.0,0.0,0.0,0.0,0.0,0.0,0.0,
1.518,2.7687896786891475,2.7726727162337275,2.805271233226364,0.0,0.0,0.0,2.7822445427164126,0.0,0.0,0.0,0.0,0.0,0.0,0.0,0.0,0.0,0.0,0.0,0.0,0.0,0.0,
1.5406,2.7693971592314273,2.773283482674196,2.805883330662156,0.0,0.0,0.0,2.7828546575225928,0.0,0.0,0.0,0.0,0.0,0.0,0.0,0.0,0.0,0.0,0.0,0.0,0.0,0.0,
1.5633,2.7700169569584734,2.773906634738575,2.8065078314130183,0.0,0.0,0.0,2.783477141036689,0.0,0.0,0.0,0.0,0.0,0.0,0.0,0.0,0.0,0.0,0.0,0.0,0.0,0.0,
1.5859,2.770643638115343,2.7745367093494844,2.807139260146344,0.0,0.0,0.0,2.7841065358703907,0.0,0.0,0.0,0.0,0.0,0.0,0.0,0.0,0.0,0.0,0.0,0.0,0.0,0.0,
1.6086,2.7712827762057106,2.775179310277972,2.8077832322347733,0.0,0.0,0.0,2.784748439572818,0.0,0.0,0.0,0.0,0.0,0.0,0.0,0.0,0.0,0.0,0.0,0.0,0.0,0.0,
1.6313,2.7719316478759395,2.7758316995167345,2.8084370033138297,0.0,0.0,0.0,2.7854001169021685,0.0,0.0,0.0,0.0,0.0,0.0,0.0,0.0,0.0,0.0,0.0,0.0,0.0,0.0,
1.6539,2.772587358925051,2.7764909672521063,2.809097657017455,0.0,0.0,0.0,2.786058661064871,0.0,0.0,0.0,0.0,0.0,0.0,0.0,0.0,0.0,0.0,0.0,0.0,0.0,0.0,
1.6766,2.773255741207792,2.777162977063666,2.8097710687868505,0.0,0.0,0.0,2.7867299290194363,0.0,0.0,0.0,0.0,0.0,0.0,0.0,0.0,0.0,0.0,0.0,0.0,0.0,0.0,
1.6992,2.773930935312423,2.7778418378317324,2.8104513347416598,0.0,0.0,0.0,2.7874080359619384,0.0,0.0,0.0,0.0,0.0,0.0,0.0,0.0,0.0,0.0,0.0,0.0,0.0,0.0,
1.7219,2.7746189464951767,2.778533587519488,2.811144504861831,0.0,0.0,0.0,2.7880990129588317,0.0,0.0,0.0,0.0,0.0,0.0,0.0,0.0,0.0,0.0,0.0,0.0,0.0,0.0,
1.7445,2.77531374338982,2.7792321620838645,2.811844502165828,0.0,0.0,0.0,2.788796802546504,0.0,0.0,0.0,0.0,0.0,0.0,0.0,0.0,0.0,0.0,0.0,0.0,0.0,0.0,
1.7672,2.7760215057300517,2.779943774956903,2.8125575522425508,0.0,0.0,0.0,2.789507610976502,0.0,0.0,0.0,0.0,0.0,0.0,0.0,0.0,0.0,0.0,0.0,0.0,0.0,0.0,
1.7899,2.776739212694049,2.78066538899817,2.8132806112317352,0.0,0.0,0.0,2.7902284043079852,0.0,0.0,0.0,0.0,0.0,0.0,0.0,0.0,0.0,0.0,0.0,0.0,0.0,0.0,
1.8125,2.7774636689264938,2.781393791543059,2.8140104596048303,0.0,0.0,0.0,2.790955973358128,0.0,0.0,0.0,0.0,0.0,0.0,0.0,0.0,0.0,0.0,0.0,0.0,0.0,0.0,
1.8352,2.778201318168554,2.7821354615373703,2.814753588645219,0.0,0.0,0.0,2.791696789450381,0.0,0.0,0.0,0.0,0.0,0.0,0.0,0.0,0.0,0.0,0.0,0.0,0.0,0.0,
1.8578,2.7789456942578643,2.782883897678176,2.815503483732257,0.0,0.0,0.0,2.7924443585560987,0.0,0.0,0.0,0.0,0.0,0.0,0.0,0.0,0.0,0.0,0.0,0.0,0.0,0.0,
1.8805,2.7797034182628404,2.7836457572545346,2.8162668145925105,0.0,0.0,0.0,2.793205330036629,0.0,0.0,0.0,0.0,0.0,0.0,0.0,0.0,0.0,0.0,0.0,0.0,0.0,0.0,
1.9031,2.7804678481993683,2.7844143621396684,2.8170368896574134,0.0,0.0,0.0,2.79397303333215,0.0,0.0,0.0,0.0,0.0,0.0,0.0,0.0,0.0,0.0,0.0,0.0,0.0,0.0,
1.9258,2.7812457836675777,2.785196549180856,2.8178205582946068,0.0,0.0,0.0,2.79475429704768,0.0,0.0,0.0,0.0,0.0,0.0,0.0,0.0,0.0,0.0,0.0,0.0,0.0,0.0,
1.9484,2.7820304056761938,2.78598546223189,2.8186109508085684,0.0,0.0,0.0,2.7955422729055512,0.0,0.0,0.0,0.0,0.0,0.0,0.0,0.0,0.0,0.0,0.0,0.0,0.0,0.0,
1.9711,2.7828286935997912,2.786788118951751,2.8194150974438656,0.0,0.0,0.0,2.7963439699984693,0.0,0.0,0.0,0.0,0.0,0.0,0.0,0.0,0.0,0.0,0.0,0.0,0.0,0.0,
1.9938,2.7836372346103393,2.7876010879716215,2.8202295597771627,0.0,0.0,0.0,2.7971559607863745,0.0,0.0,0.0,0.0,0.0,0.0,0.0,0.0,0.0,0.0,0.0,0.0,0.0,0.0,
2.0164,2.7844524359597127,2.7884207569653325,2.8210507183593103,0.0,0.0,0.0,2.7979746370947853,0.0,0.0,0.0,0.0,0.0,0.0,0.0,0.0,0.0,0.0,0.0,0.0,0.0,0.0,
2.0391,2.785281549300846,2.789254417448388,2.8218858773547417,0.0,0.0,0.0,2.798807281367992,0.0,0.0,0.0,0.0,0.0,0.0,0.0,0.0,0.0,0.0,0.0,0.0,0.0,0.0,
2.0617,2.786117307493818,2.790094762547143,2.822727716148027,0.0,0.0,0.0,2.799646595396329,0.0,0.0,0.0,0.0,0.0,0.0,0.0,0.0,0.0,0.0,0.0,0.0,0.0,0.0,
2.0844,2.786967145246125,2.7909492678975507,2.8235837230423613,0.0,0.0,0.0,2.8005000453953457,0.0,0.0,0.0,0.0,0.0,0.0,0.0,0.0,0.0,0.0,0.0,0.0,0.0,0.0,
2.107,2.7878236139638015,2.7918104441211575,2.8244463948726644,0.0,0.0,0.0,2.8013601509858748,0.0,0.0,0.0,0.0,0.0,0.0,0.0,0.0,0.0,0.0,0.0,0.0,0.0,0.0,
2.1297,2.788694332791131,2.792685952368685,2.8253234054553653,0.0,0.0,0.0,2.8022345635383936,0.0,0.0,0.0,0.0,0.0,0.0,0.0,0.0,0.0,0.0,0.0,0.0,0.0,0.0,
2.1524,2.7895755755873357,2.793572046157872,2.8262110011102584,0.0,0.0,0.0,2.803119540951822,0.0,0.0,0.0,0.0,0.0,0.0,0.0,0.0,0.0,0.0,0.0,0.0,0.0,0.0,
2.175,2.790463431562234,2.7944647932787534,2.827105242428244,0.0,0.0,0.0,2.804011155756411,0.0,0.0,0.0,0.0,0.0,0.0,0.0,0.0,0.0,0.0,0.0,0.0,0.0,0.0,
2.1977,2.791365799405018,2.7953721360686976,2.8280140843712713,0.0,0.0,0.0,2.8049173399483287,0.0,0.0,0.0,0.0,0.0,0.0,0.0,0.0,0.0,0.0,0.0,0.0,0.0,0.0,
2.2203,2.7922747706528845,2.7962861225999203,2.8289295611986116,0.0,0.0,0.0,2.8058301514838053,0.0,0.0,0.0,0.0,0.0,0.0,0.0,0.0,0.0,0.0,0.0,0.0,0.0,0.0,
2.243,2.7931984320730043,2.7972148843976465,2.829859817005923,0.0,0.0,0.0,2.8067577111588577,0.0,0.0,0.0,0.0,0.0,0.0,0.0,0.0,0.0,0.0,0.0,0.0,0.0,0.0,
2.2656,2.7941286888164067,2.798150282054289,2.8307966985981574,0.0,0.0,0.0,2.8076918898229515,0.0,0.0,0.0,0.0,0.0,0.0,0.0,0.0,0.0,0.0,0.0,0.0,0.0,0.0,
2.2883,2.7950738172599277,2.79910063782817,2.8317485407275695,0.0,0.0,0.0,2.8086409986052225,0.0,0.0,0.0,0.0,0.0,0.0,0.0,0.0,0.0,0.0,0.0,0.0,0.0,0.0,
2.3109,2.7960255346659384,2.800057623316203,2.832707001250734,0.0,0.0,0.0,2.8095967197442917,0.0,0.0,0.0,0.0,0.0,0.0,0.0,0.0,0.0,0.0,0.0,0.0,0.0,0.0,
2.3336,2.796992308597316,2.801029753100095,2.8336806071438394,0.0,0.0,0.0,2.8105675562804167,0.0,0.0,0.0,0.0,0.0,0.0,0.0,0.0,0.0,0.0,0.0,0.0,0.0,0.0,
2.3563,2.7979699978879458,2.8020128632515373,2.8346651872688335,0.0,0.0,0.0,2.811549349469439,0.0,0.0,0.0,0.0,0.0,0.0,0.0,0.0,0.0,0.0,0.0,0.0,0.0,0.0,
2.3789,2.7989542698909573,2.8030025972233323,2.8356563779661363,0.0,0.0,0.0,2.812537748360142,0.0,0.0,0.0,0.0,0.0,0.0,0.0,0.0,0.0,0.0,0.0,0.0,0.0,0.0,
2.4016,2.799953882218956,2.804007761381204,2.8366629978017937,0.0,0.0,0.0,2.8135415471339846,0.0,0.0,0.0,0.0,0.0,0.0,0.0,0.0,0.0,0.0,0.0,0.0,0.0,0.0,
2.4242,2.800960075340284,2.8050195476996262,2.8376762252269963,0.0,0.0,0.0,2.8145519494223024,0.0,0.0,0.0,0.0,0.0,0.0,0.0,0.0,0.0,0.0,0.0,0.0,0.0,0.0,
2.4469,2.801981802198507,2.806046959049309,2.8387050751524256,0.0,0.0,0.0,2.8155779454667473,0.0,0.0,0.0,0.0,0.0,0.0,0.0,0.0,0.0,0.0,0.0,0.0,0.0,0.0,
2.4695,2.8030101097659283,2.8070809927526756,2.8397405315055915,0.0,0.0,0.0,2.8166105446747323,0.0,0.0,0.0,0.0,0.0,0.0,0.0,0.0,0.0,0.0,0.0,0.0,0.0,0.0,
2.4922,2.8040541480578343,2.8081308499415965,2.8407918072723426,0.0,0.0,0.0,2.8176589350905914,0.0,0.0,0.0,0.0,0.0,0.0,0.0,0.0,0.0,0.0,0.0,0.0,0.0,0.0,
2.5149,2.805109442478927,2.809192031283257,2.841854396052869,0.0,0.0,0.0,2.818718623271684,0.0,0.0,0.0,0.0,0.0,0.0,0.0,0.0,0.0,0.0,0.0,0.0,0.0,0.0,
2.5375,2.806171321007158,2.8102598388274047,2.8429235930143966,0.0,0.0,0.0,2.8197849176163197,0.0,0.0,0.0,0.0,0.0,0.0,0.0,0.0,0.0,0.0,0.0,0.0,0.0,0.0,
2.5602,2.807249232858961,2.811343774722755,2.844008911830199,0.0,0.0,0.0,2.8208673064706384,0.0,0.0,0.0,0.0,0.0,0.0,0.0,0.0,0.0,0.0,0.0,0.0,0.0,0.0,
2.5828,2.8083337334852105,2.812434341812078,2.845100842380102,0.0,0.0,0.0,2.8219563058924635,0.0,0.0,0.0,0.0,0.0,0.0,0.0,0.0,0.0,0.0,0.0,0.0,0.0,0.0,
2.6055,2.809434473746255,2.8135412451182598,2.846209100957588,0.0,0.0,0.0,2.823061606607368,0.0,0.0,0.0,0.0,0.0,0.0,0.0,0.0,0.0,0.0,0.0,0.0,0.0,0.0,
2.6281,2.8105418094182157,2.814654786598682,2.8473239767762224,0.0,0.0,0.0,2.8241735242643737,0.0,0.0,0.0,0.0,0.0,0.0,0.0,0.0,0.0,0.0,0.0,0.0,0.0,0.0,
2.6508,2.8116655949238765,2.8157848760860693,2.848455390656646,0.0,0.0,0.0,2.825301953888864,0.0,0.0,0.0,0.0,0.0,0.0,0.0,0.0,0.0,0.0,0.0,0.0,0.0,0.0,
2.6735,2.8128010119151208,2.816926668428758,2.8495984906730625,0.0,0.0,0.0,2.826442057005647,0.0,0.0,0.0,0.0,0.0,0.0,0.0,0.0,0.0,0.0,0.0,0.0,0.0,0.0,
2.6961,2.8139430380694304,2.8180751132518167,2.850748219957837,0.0,0.0,0.0,2.8275887904263612,0.0,0.0,0.0,0.0,0.0,0.0,0.0,0.0,0.0,0.0,0.0,0.0,0.0,0.0,
2.7188,2.815101837096829,2.8192404315810875,2.851914810044629,0.0,0.0,0.0,2.8287523595741817,0.0,0.0,0.0,0.0,0.0,0.0,0.0,0.0,0.0,0.0,0.0,0.0,0.0,0.0,
2.7414,2.816267257039113,2.8204124145376355,2.853088039982217,0.0,0.0,0.0,2.829922570519655,0.0,0.0,0.0,0.0,0.0,0.0,0.0,0.0,0.0,0.0,0.0,0.0,0.0,0.0,
2.7641,2.8174496702040948,2.821601493037801,2.8542783508363243,0.0,0.0,0.0,2.831109838026073,0.0,0.0,0.0,0.0,0.0,0.0,0.0,0.0,0.0,0.0,0.0,0.0,0.0,0.0,
2.7867,2.818638718162436,2.8227972504602485,2.855475314233623,0.0,0.0,0.0,2.8323037609521027,0.0,0.0,0.0,0.0,0.0,0.0,0.0,0.0,0.0,0.0,0.0,0.0,0.0,0.0,
2.8094,2.819844983931204,2.8240103297423436,2.8566895828704912,0.0,0.0,0.0,2.8335149655146794,0.0,0.0,0.0,0.0,0.0,0.0,0.0,0.0,0.0,0.0,0.0,0.0,0.0,0.0,
2.832,2.821057900548107,2.825230104440124,2.857910518902138,0.0,0.0,0.0,2.8347328412967894,0.0,0.0,0.0,0.0,0.0,0.0,0.0,0.0,0.0,0.0,0.0,0.0,0.0,0.0,
2.8547,2.8222882639092637,2.826467431701379,2.8591489888120614,0.0,0.0,0.0,2.835968228140901,0.0,0.0,0.0,0.0,0.0,0.0,0.0,0.0,0.0,0.0,0.0,0.0,0.0,0.0,
2.8774,2.8235307968955476,2.8277170047983184,2.8603996797231015,0.0,0.0,0.0,2.8372158271389893,0.0,0.0,0.0,0.0,0.0,0.0,0.0,0.0,0.0,0.0,0.0,0.0,0.0,0.0,
2.9,2.824780009029712,2.828973302311894,2.8616570644894397,0.0,0.0,0.0,2.838470125277015,0.0,0.0,0.0,0.0,0.0,0.0,0.0,0.0,0.0,0.0,0.0,0.0,0.0,0.0,
2.9227,2.826047019965716,2.830247507184402,2.862932334689602,0.0,0.0,0.0,2.8397422872799063,0.0,0.0,0.0,0.0,0.0,0.0,0.0,0.0,0.0,0.0,0.0,0.0,0.0,0.0,
2.9453,2.827320731780218,2.831528458700774,2.8642143192277763,0.0,0.0,0.0,2.841021169902923,0.0,0.0,0.0,0.0,0.0,0.0,0.0,0.0,0.0,0.0,0.0,0.0,0.0,0.0,
