energies(eV),real_xx,real_yy,real_zz,real_xy,real_yz,real_xz,real_ave,imag_xx,imag_yy,imag_zz,imag_xy,imag_yz,imag_xz,imag_ave,absorption_xx,absorption_yy,absorption_zz,absorption_xy,absorption_yz,absorption_xz,absorption_ave,band_gap
0.0,4.884340684496135,5.27312612751226,4.888727476179457,0.0,0.0,0.018254985515392064,5.015398096062618,0.0,0.0,0.0,0.0,0.0,0.0,0.0,0.0,0.0,0.0,0.0,0.0,0.0,0.0,3.5597
0.0147,4.884356675445455,5.273145744412786,4.888744430325404,0.0,0.0,0.01825513604902631,5.015415616727881,0.0,0.0,0.0,0.0,0.0,0.0,0.0,0.0,0.0,0.0,0.0,0.0,0.0,0.0,
0.0294,4.884404649429941,5.273204596613791,4.888795294064392,0.0,0.0,0.018255587662321583,5.0154681800360414,0.0,0.0,0.0,0.0,0.0,0.0,0.0,0.0,0.0,0.0,0.0,0.0,0.0,0.0,
0.0442,4.884485263356975,5.273303490298512,4.888880764166231,0.0,0.0,0.01825634654437269,5.015556505940573,0.0,0.0,0.0,0.0,0.0,0.0,0.0,0.0,0.0,0.0,0.0,0.0,0.0,0.0,
0.0589,4.8845974335728,5.273441096617479,4.8889996921826055,0.0,0.0,0.01825740250241846,5.015679407457628,0.0,0.0,0.0,0.0,0.0,0.0,0.0,0.0,0.0,0.0,0.0,0.0,0.0,0.0,
0.0736,4.884741603937666,5.27361796081674,4.889152549386206,0.0,0.0,0.01825875972669676,5.015837371380204,0.0,0.0,0.0,0.0,0.0,0.0,0.0,0.0,0.0,0.0,0.0,0.0,0.0,0.0,
0.0883,4.884917784702675,5.273834096421621,4.889339347514131,0.0,0.0,0.01826041832891411,5.0160304095461425,0.0,0.0,0.0,0.0,0.0,0.0,0.0,0.0,0.0,0.0,0.0,0.0,0.0,0.0,
0.103,4.885125988398184,5.274089519964742,4.889560100913345,0.0,0.0,0.018262378445563766,5.016258536425424,0.0,0.0,0.0,0.0,0.0,0.0,0.0,0.0,0.0,0.0,0.0,0.0,0.0,0.0,
0.1177,4.885366229836366,5.274384250989583,4.889814826543986,0.0,0.0,0.018264640237925858,5.016521769123312,0.0,0.0,0.0,0.0,0.0,0.0,0.0,0.0,0.0,0.0,0.0,0.0,0.0,0.0,
0.1325,4.88564048828505,5.274720719321866,4.890105624501834,0.0,0.0,0.01826722236608532,5.016822277369584,0.0,0.0,0.0,0.0,0.0,0.0,0.0,0.0,0.0,0.0,0.0,0.0,0.0,0.0,
0.1472,4.88594507705311,5.275094403826989,4.890428587418645,0.0,0.0,0.0182700901485532,5.017156022766248,0.0,0.0,0.0,0.0,0.0,0.0,0.0,0.0,0.0,0.0,0.0,0.0,0.0,0.0,
0.1619,4.886281761882094,5.275507472762204,4.890785589346724,0.0,0.0,0.018273260240980867,5.017524941330341,0.0,0.0,0.0,0.0,0.0,0.0,0.0,0.0,0.0,0.0,0.0,0.0,0.0,0.0,
0.1766,4.8866505667648825,5.275959957785968,4.891176657762312,0.0,0.0,0.018276732903962117,5.017929060771054,0.0,0.0,0.0,0.0,0.0,0.0,0.0,0.0,0.0,0.0,0.0,0.0,0.0,0.0,
0.1913,4.887051517997476,5.2764518935963896,4.8916018227806495,0.0,0.0,0.01828050842287595,5.018368411458172,0.0,0.0,0.0,0.0,0.0,0.0,0.0,0.0,0.0,0.0,0.0,0.0,0.0,0.0,
0.206,4.887484644184931,5.276983317938999,4.892061117163035,0.0,0.0,0.018284587107885494,5.018843026428988,0.0,0.0,0.0,0.0,0.0,0.0,0.0,0.0,0.0,0.0,0.0,0.0,0.0,0.0,
0.2208,4.8879532521355005,5.277558291120789,4.89255805027241,0.0,0.0,0.018289000144873845,5.019356531176233,0.0,0.0,0.0,0.0,0.0,0.0,0.0,0.0,0.0,0.0,0.0,0.0,0.0,0.0,
0.2355,4.8884510427482875,5.278169087359879,4.893085945098626,0.0,0.0,0.018293688260058137,5.019902025068931,0.0,0.0,0.0,0.0,0.0,0.0,0.0,0.0,0.0,0.0,0.0,0.0,0.0,0.0,
0.2502,4.888981108300042,5.278819504070491,4.893648083814737,0.0,0.0,0.01829868062321045,5.020482898728424,0.0,0.0,0.0,0.0,0.0,0.0,0.0,0.0,0.0,0.0,0.0,0.0,0.0,0.0,
0.2649,4.889543486715576,5.279509591300652,4.894244509867044,0.0,0.0,0.018303977643774876,5.021099195961091,0.0,0.0,0.0,0.0,0.0,0.0,0.0,0.0,0.0,0.0,0.0,0.0,0.0,0.0,
0.2796,4.89013821826531,5.280239402195286,4.894875269392433,0.0,0.0,0.018309579755964405,5.021750963284343,0.0,0.0,0.0,0.0,0.0,0.0,0.0,0.0,0.0,0.0,0.0,0.0,0.0,0.0,
0.2944,4.890769722787358,5.281014364680458,4.8955450538623175,0.0,0.0,0.018315528654389256,5.022443047110045,0.0,0.0,0.0,0.0,0.0,0.0,0.0,0.0,0.0,0.0,0.0,0.0,0.0,0.0,
0.3091,4.891429511689298,5.2818240660133995,4.896244863988348,0.0,0.0,0.01832174443509373,5.023166147230349,0.0,0.0,0.0,0.0,0.0,0.0,0.0,0.0,0.0,0.0,0.0,0.0,0.0,0.0,
0.3238,4.892121789032696,5.282673669586755,4.896979162631622,0.0,0.0,0.01832826676215782,5.0239248737503575,0.0,0.0,0.0,0.0,0.0,0.0,0.0,0.0,0.0,0.0,0.0,0.0,0.0,0.0,
0.3385,4.892846604581255,5.2835632410819295,4.897748006824838,0.0,0.0,0.01833509616897049,5.024719284162674,0.0,0.0,0.0,0.0,0.0,0.0,0.0,0.0,0.0,0.0,0.0,0.0,0.0,0.0,
0.3532,4.893604010494396,5.284492849344534,4.898551456351925,0.0,0.0,0.018342233213648942,5.025549438730285,0.0,0.0,0.0,0.0,0.0,0.0,0.0,0.0,0.0,0.0,0.0,0.0,0.0,0.0,
0.3679,4.894394061338778,5.285462566400304,4.899389573762416,0.0,0.0,0.018349678479025033,5.0264154005004995,0.0,0.0,0.0,0.0,0.0,0.0,0.0,0.0,0.0,0.0,0.0,0.0,0.0,0.0,
0.3827,4.895222523180525,5.286479475334572,4.9002684812437,0.0,0.0,0.01835748638058356,5.027323493252932,0.0,0.0,0.0,0.0,0.0,0.0,0.0,0.0,0.0,0.0,0.0,0.0,0.0,0.0,
0.3974,4.896078260353445,5.287529913026759,4.901176370189583,0.0,0.0,0.01836555204203045,5.028261514523263,0.0,0.0,0.0,0.0,0.0,0.0,0.0,0.0,0.0,0.0,0.0,0.0,0.0,0.0,
0.4121,4.896966821155442,5.288620695403924,4.902119131904069,0.0,0.0,0.018373927825355543,5.029235549487812,0.0,0.0,0.0,0.0,0.0,0.0,0.0,0.0,0.0,0.0,0.0,0.0,0.0,0.0,
0.4268,4.897888269926831,5.2897519074059405,4.9030968401730215,0.0,0.0,0.018382614412247273,5.03024567250193,0.0,0.0,0.0,0.0,0.0,0.0,0.0,0.0,0.0,0.0,0.0,0.0,0.0,0.0,
0.4415,4.898842673482042,5.290923637242648,4.904109571629001,0.0,0.0,0.01839161250901046,5.031291960784563,0.0,0.0,0.0,0.0,0.0,0.0,0.0,0.0,0.0,0.0,0.0,0.0,0.0,0.0,
0.4563,4.899836931573573,5.292144362901512,4.905164654289265,0.0,0.0,0.018400987253152565,5.03238198292145,0.0,0.0,0.0,0.0,0.0,0.0,0.0,0.0,0.0,0.0,0.0,0.0,0.0,0.0,
0.471,4.90085768050603,5.293397683451115,4.9062479131393,0.0,0.0,0.01841061271876413,5.033501092365482,0.0,0.0,0.0,0.0,0.0,0.0,0.0,0.0,0.0,0.0,0.0,0.0,0.0,0.0,
0.4857,4.901911600178535,5.294691806971689,4.907366442931686,0.0,0.0,0.018420551965951416,5.03465661669397,0.0,0.0,0.0,0.0,0.0,0.0,0.0,0.0,0.0,0.0,0.0,0.0,0.0,0.0,
0.5004,4.90299876747633,5.296026834987572,4.9085203318967086,0.0,0.0,0.018430805799334687,5.03584864478687,0.0,0.0,0.0,0.0,0.0,0.0,0.0,0.0,0.0,0.0,0.0,0.0,0.0,0.0,
0.5151,4.90411926184046,5.297402872403184,4.909709671210695,0.0,0.0,0.018441375047972806,5.03707726848478,0.0,0.0,0.0,0.0,0.0,0.0,0.0,0.0,0.0,0.0,0.0,0.0,0.0,0.0,
0.5298,4.905273165285987,5.298820027527431,4.910934555018229,0.0,0.0,0.018452260565314977,5.038342582610549,0.0,0.0,0.0,0.0,0.0,0.0,0.0,0.0,0.0,0.0,0.0,0.0,0.0,0.0,
0.5446,4.906468754849817,5.300288474534687,4.912203777740281,0.0,0.0,0.01846354052586594,5.039653669041595,0.0,0.0,0.0,0.0,0.0,0.0,0.0,0.0,0.0,0.0,0.0,0.0,0.0,0.0,
0.5593,4.907689961640518,5.301788485407206,4.913500288447847,0.0,0.0,0.01847506340499562,5.040992911831857,0.0,0.0,0.0,0.0,0.0,0.0,0.0,0.0,0.0,0.0,0.0,0.0,0.0,0.0,
0.574,4.908944839813841,5.303329960419487,4.9148326448372615,0.0,0.0,0.01848690526534616,5.042369148356863,0.0,0.0,0.0,0.0,0.0,0.0,0.0,0.0,0.0,0.0,0.0,0.0,0.0,0.0,
0.5887,4.910233481893949,5.304913021784866,4.9162009531839725,0.0,0.0,0.018499067057506785,5.0437824856209295,0.0,0.0,0.0,0.0,0.0,0.0,0.0,0.0,0.0,0.0,0.0,0.0,0.0,0.0,
0.6034,4.911555983079982,5.306537795257015,4.917605322854424,0.0,0.0,0.018511549756133526,5.045233033730473,0.0,0.0,0.0,0.0,0.0,0.0,0.0,0.0,0.0,0.0,0.0,0.0,0.0,0.0,
0.6181,4.912912441268244,5.30820441015988,4.919045866333191,0.0,0.0,0.018524354359866064,5.046720905920439,0.0,0.0,0.0,0.0,0.0,0.0,0.0,0.0,0.0,0.0,0.0,0.0,0.0,0.0,
0.6329,4.914312533231852,5.309924766526522,4.920532870276718,0.0,0.0,0.018537572302418984,5.048256723345031,0.0,0.0,0.0,0.0,0.0,0.0,0.0,0.0,0.0,0.0,0.0,0.0,0.0,0.0,
0.6476,4.915737442765432,5.311675753643385,4.9220463595277515,0.0,0.0,0.01855102601529176,5.049819851978857,0.0,0.0,0.0,0.0,0.0,0.0,0.0,0.0,0.0,0.0,0.0,0.0,0.0,0.0,
0.6623,4.917196620137494,5.3134689928636,4.923596379873707,0.0,0.0,0.018564804779494085,5.051420664291601,0.0,0.0,0.0,0.0,0.0,0.0,0.0,0.0,0.0,0.0,0.0,0.0,0.0,0.0,
0.677,4.918690174288595,5.315304628135179,4.925183056581483,0.0,0.0,0.01857890968876184,5.053059286335086,0.0,0.0,0.0,0.0,0.0,0.0,0.0,0.0,0.0,0.0,0.0,0.0,0.0,0.0,
0.6917,4.920218216978434,5.317182807140365,4.92680651818465,0.0,0.0,0.018593341860271666,5.0547358474344835,0.0,0.0,0.0,0.0,0.0,0.0,0.0,0.0,0.0,0.0,0.0,0.0,0.0,0.0,
0.7065,4.921791611822371,5.3191168950660765,4.928478318335806,0.0,0.0,0.018608203973839776,5.056462275074751,0.0,0.0,0.0,0.0,0.0,0.0,0.0,0.0,0.0,0.0,0.0,0.0,0.0,0.0,
0.7212,4.923389214883684,5.321080911742769,4.93017600108522,0.0,0.0,0.01862329636041309,5.058215375903891,0.0,0.0,0.0,0.0,0.0,0.0,0.0,0.0,0.0,0.0,0.0,0.0,0.0,0.0,
0.7359,4.925021659777805,5.3230879390647035,4.931910875214889,0.0,0.0,0.018638719508124353,5.060006824685799,0.0,0.0,0.0,0.0,0.0,0.0,0.0,0.0,0.0,0.0,0.0,0.0,0.0,0.0,
0.7506,4.9266890698359145,5.32513814004647,4.933683082683067,0.0,0.0,0.018654474626583335,5.0618367641884845,0.0,0.0,0.0,0.0,0.0,0.0,0.0,0.0,0.0,0.0,0.0,0.0,0.0,0.0,
0.7653,4.928391571349839,5.327231681627028,4.935492768887032,0.0,0.0,0.018670562948038188,5.0637053406213,0.0,0.0,0.0,0.0,0.0,0.0,0.0,0.0,0.0,0.0,0.0,0.0,0.0,0.0,
0.78,4.930129293602793,5.329368734710718,4.937340082700768,0.0,0.0,0.018686985727176114,5.065612703671426,0.0,0.0,0.0,0.0,0.0,0.0,0.0,0.0,0.0,0.0,0.0,0.0,0.0,0.0,
0.7948,4.931914552012566,5.331564459184132,4.9392381300135035,0.0,0.0,0.01870385939709166,5.0675723804034005,0.0,0.0,0.0,0.0,0.0,0.0,0.0,0.0,0.0,0.0,0.0,0.0,0.0,0.0,
0.8095,4.933723357606144,5.333789363088565,4.941161418378488,0.0,0.0,0.018720957241577473,5.0695580463577326,0.0,0.0,0.0,0.0,0.0,0.0,0.0,0.0,0.0,0.0,0.0,0.0,0.0,0.0,
0.8242,4.935567791009783,5.33605831669154,4.943122803322964,0.0,0.0,0.01873839344929183,5.071582970341429,0.0,0.0,0.0,0.0,0.0,0.0,0.0,0.0,0.0,0.0,0.0,0.0,0.0,0.0,
0.8389,4.937447993818607,5.338371507223508,4.945122448048292,0.0,0.0,0.018756169362532903,5.073647316363469,0.0,0.0,0.0,0.0,0.0,0.0,0.0,0.0,0.0,0.0,0.0,0.0,0.0,0.0,
0.8536,4.9393641107863395,5.340729126104774,4.947160519436444,0.0,0.0,0.018774286344804193,5.075751252109186,0.0,0.0,0.0,0.0,0.0,0.0,0.0,0.0,0.0,0.0,0.0,0.0,0.0,0.0,
0.8683,4.941316289861559,5.343131368993792,4.949237188094096,0.0,0.0,0.018792745780515242,5.0778949489831495,0.0,0.0,0.0,0.0,0.0,0.0,0.0,0.0,0.0,0.0,0.0,0.0,0.0,0.0,
0.8831,4.9433183330678405,5.34559523651553,4.95136715232792,0.0,0.0,0.018811678169021854,5.080093573970431,0.0,0.0,0.0,0.0,0.0,0.0,0.0,0.0,0.0,0.0,0.0,0.0,0.0,0.0,
0.8978,4.945343341106122,5.348087638623368,4.953521808055762,0.0,0.0,0.018830829100630456,5.082317595928417,0.0,0.0,0.0,0.0,0.0,0.0,0.0,0.0,0.0,0.0,0.0,0.0,0.0,0.0,
0.9125,4.947404875728083,5.350625279083734,4.955715596933514,0.0,0.0,0.01885032677091606,5.084581917248443,0.0,0.0,0.0,0.0,0.0,0.0,0.0,0.0,0.0,0.0,0.0,0.0,0.0,0.0,
0.9272,4.9495030980665895,5.353208371050256,4.957948704959877,0.0,0.0,0.01887017264460567,5.086886724692241,0.0,0.0,0.0,0.0,0.0,0.0,0.0,0.0,0.0,0.0,0.0,0.0,0.0,0.0,
0.9419,4.951638172645692,5.355837132177785,4.960221322098167,0.0,0.0,0.018890368205492312,5.089232208973882,0.0,0.0,0.0,0.0,0.0,0.0,0.0,0.0,0.0,0.0,0.0,0.0,0.0,0.0,
0.9567,4.953825170744429,5.358530137266192,4.962549508812191,0.0,0.0,0.01891105593592613,5.091634938940937,0.0,0.0,0.0,0.0,0.0,0.0,0.0,0.0,0.0,0.0,0.0,0.0,0.0,0.0,
0.9714,4.956034710754651,5.3612512224875895,4.964902002306848,0.0,0.0,0.018931957801242575,5.09406264518303,0.0,0.0,0.0,0.0,0.0,0.0,0.0,0.0,0.0,0.0,0.0,0.0,0.0,0.0,
0.9861,4.958281618557525,5.364018659008372,4.967294600505336,0.0,0.0,0.01895321392547875,5.0965316260237445,0.0,0.0,0.0,0.0,0.0,0.0,0.0,0.0,0.0,0.0,0.0,0.0,0.0,0.0,
1.0008,4.96056607270219,5.366832683103531,4.969727509789927,0.0,0.0,0.018974825864081266,5.099042088531882,0.0,0.0,0.0,0.0,0.0,0.0,0.0,0.0,0.0,0.0,0.0,0.0,0.0,0.0,
1.0155,4.962888255353006,5.369693535848681,4.972200940780996,0.0,0.0,0.018996795189040364,5.101594243994228,0.0,0.0,0.0,0.0,0.0,0.0,0.0,0.0,0.0,0.0,0.0,0.0,0.0,0.0,
1.0302,4.9652483523378965,5.3726014631845525,4.974715108396142,0.0,0.0,0.019019123488287812,5.104188307972864,0.0,0.0,0.0,0.0,0.0,0.0,0.0,0.0,0.0,0.0,0.0,0.0,0.0,0.0,
1.045,4.967662998416587,5.375576982393031,4.977287754466678,0.0,0.0,0.019041967949650917,5.106842578425431,0.0,0.0,0.0,0.0,0.0,0.0,0.0,0.0,0.0,0.0,0.0,0.0,0.0,0.0,
1.0597,4.970099757651868,5.378580141096107,4.979884338485508,0.0,0.0,0.019065021491276646,5.109521412411161,0.0,0.0,0.0,0.0,0.0,0.0,0.0,0.0,0.0,0.0,0.0,0.0,0.0,0.0,
1.0744,4.972575012541991,5.381631143865887,4.982522331845802,0.0,0.0,0.01908843887117165,5.112242829417894,0.0,0.0,0.0,0.0,0.0,0.0,0.0,0.0,0.0,0.0,0.0,0.0,0.0,0.0,
1.0891,4.975088964104095,5.384730256817854,4.985201967306967,0.0,0.0,0.019112221734306767,5.115007062742972,0.0,0.0,0.0,0.0,0.0,0.0,0.0,0.0,0.0,0.0,0.0,0.0,0.0,0.0,
1.1038,4.977641817280193,5.387877751281336,4.9879234822452805,0.0,0.0,0.019136371737968495,5.117814350268937,0.0,0.0,0.0,0.0,0.0,0.0,0.0,0.0,0.0,0.0,0.0,0.0,0.0,0.0,
1.1186,4.980251547819443,5.391095813682032,4.9907060637787835,0.0,0.0,0.01916105861237262,5.1206844750934195,0.0,0.0,0.0,0.0,0.0,0.0,0.0,0.0,0.0,0.0,0.0,0.0,0.0,0.0,
1.1333,4.982883103278356,5.394341240293887,4.993512357690527,0.0,0.0,0.019185950439959316,5.123578900420923,0.0,0.0,0.0,0.0,0.0,0.0,0.0,0.0,0.0,0.0,0.0,0.0,0.0,0.0,
1.148,4.98555420078905,5.397635896423707,4.996361273336447,0.0,0.0,0.019211214456478783,5.126517123516401,0.0,0.0,0.0,0.0,0.0,0.0,0.0,0.0,0.0,0.0,0.0,0.0,0.0,0.0,
1.1627,4.988265061600451,5.400980075064896,4.999253067301594,0.0,0.0,0.01923685235939878,5.129499401322314,0.0,0.0,0.0,0.0,0.0,0.0,0.0,0.0,0.0,0.0,0.0,0.0,0.0,0.0,
1.1774,4.991015911183784,5.404374074820493,5.002188001151551,0.0,0.0,0.019262865853647778,5.132525995718609,0.0,0.0,0.0,0.0,0.0,0.0,0.0,0.0,0.0,0.0,0.0,0.0,0.0,0.0,
1.1921,4.993806979296617,5.407818199988571,5.0051663415109555,0.0,0.0,0.019289256650467382,5.135597173598715,0.0,0.0,0.0,0.0,0.0,0.0,0.0,0.0,0.0,0.0,0.0,0.0,0.0,0.0,
1.2069,4.996657901168506,5.411336706607452,5.008209068301528,0.0,0.0,0.019316209875675474,5.138734558692495,0.0,0.0,0.0,0.0,0.0,0.0,0.0,0.0,0.0,0.0,0.0,0.0,0.0,0.0,
1.2216,4.999530390726916,5.414882365056538,5.011275342170294,0.0,0.0,0.01934336302642573,5.14189603265125,0.0,0.0,0.0,0.0,0.0,0.0,0.0,0.0,0.0,0.0,0.0,0.0,0.0,0.0,
1.2363,5.0024438161408105,5.41847909907697,5.014385855530728,0.0,0.0,0.019370898650566036,5.145102923582836,0.0,0.0,0.0,0.0,0.0,0.0,0.0,0.0,0.0,0.0,0.0,0.0,0.0,0.0,
1.251,5.0053984250196475,5.422127236684413,5.017540896106768,0.0,0.0,0.019398818471717014,5.148355519270276,0.0,0.0,0.0,0.0,0.0,0.0,0.0,0.0,0.0,0.0,0.0,0.0,0.0,0.0,
1.2657,5.008394469606114,5.425827112049903,5.02074075710608,0.0,0.0,0.019427124212981345,5.151654112920699,0.0,0.0,0.0,0.0,0.0,0.0,0.0,0.0,0.0,0.0,0.0,0.0,0.0,0.0,
1.2804,5.011432206851211,5.429579065599123,5.023985737311688,0.0,0.0,0.019455817595335177,5.154999003254008,0.0,0.0,0.0,0.0,0.0,0.0,0.0,0.0,0.0,0.0,0.0,0.0,0.0,0.0,
1.2952,5.014532993054808,5.433409504574861,5.027298681136354,0.0,0.0,0.01948509951498192,5.158413726255341,0.0,0.0,0.0,0.0,0.0,0.0,0.0,0.0,0.0,0.0,0.0,0.0,0.0,0.0,
1.3099,5.0176551938306595,5.437267021558591,5.03063513106827,0.0,0.0,0.019514575991520115,5.161852448819173,0.0,0.0,0.0,0.0,0.0,0.0,0.0,0.0,0.0,0.0,0.0,0.0,0.0,0.0,
1.3246,5.020819889009682,5.441177679031853,5.0340176331310635,0.0,0.0,0.019544445253381077,5.1653384003908664,0.0,0.0,0.0,0.0,0.0,0.0,0.0,0.0,0.0,0.0,0.0,0.0,0.0,0.0,
1.3393,5.024027355198753,5.445141843528633,5.0374465094156955,0.0,0.0,0.019574708994958626,5.16887190271436,0.0,0.0,0.0,0.0,0.0,0.0,0.0,0.0,0.0,0.0,0.0,0.0,0.0,0.0,
1.354,5.027277874118301,5.449159888373897,5.040922088084961,0.0,0.0,0.019605368898977796,5.172453283525719,0.0,0.0,0.0,0.0,0.0,0.0,0.0,0.0,0.0,0.0,0.0,0.0,0.0,0.0,
1.3688,5.030594288974164,5.453260083255643,5.044468828704531,0.0,0.0,0.01963663927753272,5.17610773364478,0.0,0.0,0.0,0.0,0.0,0.0,0.0,0.0,0.0,0.0,0.0,0.0,0.0,0.0,
1.3835,5.03393207723927,5.4573874096144595,5.048039144933418,0.0,0.0,0.019668099219794746,5.179786210595716,0.0,0.0,0.0,0.0,0.0,0.0,0.0,0.0,0.0,0.0,0.0,0.0,0.0,0.0,
1.3982,5.037313797008653,5.46156978092183,5.05165718793541,0.0,0.0,0.019699960290647585,5.183513588621964,0.0,0.0,0.0,0.0,0.0,0.0,0.0,0.0,0.0,0.0,0.0,0.0,0.0,0.0,
1.4129,5.040739751394294,5.465807598903515,5.055323311306329,0.0,0.0,0.019732224102268953,5.187290220534712,0.0,0.0,0.0,0.0,0.0,0.0,0.0,0.0,0.0,0.0,0.0,0.0,0.0,0.0,
1.4276,5.0442102490843,5.470101272685987,5.0590378752800715,0.0,0.0,0.01976489224260434,5.191116465683454,0.0,0.0,0.0,0.0,0.0,0.0,0.0,0.0,0.0,0.0,0.0,0.0,0.0,0.0,
1.4423,5.047725604442975,5.474451218928435,5.062801246851163,0.0,0.0,0.019797966272419237,5.194992690074191,0.0,0.0,0.0,0.0,0.0,0.0,0.0,0.0,0.0,0.0,0.0,0.0,0.0,0.0,
1.4571,5.051310514382363,5.478888034264499,5.066639904925752,0.0,0.0,0.01983167688580895,5.198946151190871,0.0,0.0,0.0,0.0,0.0,0.0,0.0,0.0,0.0,0.0,0.0,0.0,0.0,0.0,
1.4718,5.054916862072186,5.483352196343228,5.0705023588287705,0.0,0.0,0.019865570039210537,5.202923805748061,0.0,0.0,0.0,0.0,0.0,0.0,0.0,0.0,0.0,0.0,0.0,0.0,0.0,0.0,
1.4865,5.058569047900975,5.48787393044428,5.074414765814804,0.0,0.0,0.019899873579094098,5.206952581386687,0.0,0.0,0.0,0.0,0.0,0.0,0.0,0.0,0.0,0.0,0.0,0.0,0.0,0.0,
1.5012,5.062267410034952,5.49245368479932,5.078377521262522,0.0,0.0,0.01993458892429563,5.211032872032264,0.0,0.0,0.0,0.0,0.0,0.0,0.0,0.0,0.0,0.0,0.0,0.0,0.0,0.0,
1.5159,5.0660122928596945,5.49709191588581,5.0823910279759925,0.0,0.0,0.01996971744903892,5.215165078907165,0.0,0.0,0.0,0.0,0.0,0.0,0.0,0.0,0.0,0.0,0.0,0.0,0.0,0.0,
1.5306,5.069804047097818,5.50178908858095,5.086455696328727,0.0,0.0,0.02000526047884852,5.219349610669165,0.0,0.0,0.0,0.0,0.0,0.0,0.0,0.0,0.0,0.0,0.0,0.0,0.0,0.0,
1.5454,5.073669308022963,5.506578238625968,5.09060012370513,0.0,0.0,0.020041465330617823,5.22361589011802,0.0,0.0,0.0,0.0,0.0,0.0,0.0,0.0,0.0,0.0,0.0,0.0,0.0,0.0,
1.5601,5.077556208229804,5.511395132700181,5.094768732735282,0.0,0.0,0.020077843971219093,5.227906691221755,0.0,0.0,0.0,0.0,0.0,0.0,0.0,0.0,0.0,0.0,0.0,0.0,0.0,0.0,
1.5748,5.081491073809039,5.516272418388915,5.09898978442152,0.0,0.0,0.020114640764501947,5.232251092206492,0.0,0.0,0.0,0.0,0.0,0.0,0.0,0.0,0.0,0.0,0.0,0.0,0.0,0.0,
1.5895,5.085474282121587,5.521210595856856,5.103263720992245,0.0,0.0,0.02015185679507971,5.236649532990229,0.0,0.0,0.0,0.0,0.0,0.0,0.0,0.0,0.0,0.0,0.0,0.0,0.0,0.0,
1.6042,5.089506217505756,5.526210174505273,5.107590993028554,0.0,0.0,0.02018949307470001,5.241102461679861,0.0,0.0,0.0,0.0,0.0,0.0,0.0,0.0,0.0,0.0,0.0,0.0,0.0,0.0,
1.619,5.093615202803135,5.531306318366505,5.112002048094327,0.0,0.0,0.0202278108752088,5.2456411897546555,0.0,0.0,0.0,0.0,0.0,0.0,0.0,0.0,0.0,0.0,0.0,0.0,0.0,0.0,
1.6337,5.0977461121880046,5.536430692087217,5.1164377478241265,0.0,0.0,0.020266293241703016,5.250204850699782,0.0,0.0,0.0,0.0,0.0,0.0,0.0,0.0,0.0,0.0,0.0,0.0,0.0,0.0,
1.6484,5.101926947721994,5.541618056142745,5.120928189875814,0.0,0.0,0.020305198401842858,5.254824397913517,0.0,0.0,0.0,0.0,0.0,0.0,0.0,0.0,0.0,0.0,0.0,0.0,0.0,0.0,
1.6631,5.106158123135397,5.54686895881107,5.1254738600518115,0.0,0.0,0.020344527015290433,5.259500313999426,0.0,0.0,0.0,0.0,0.0,0.0,0.0,0.0,0.0,0.0,0.0,0.0,0.0,0.0,
1.6778,5.110440059873093,5.552183958565367,5.130075253408074,0.0,0.0,0.020384279637096495,5.2642330906155115,0.0,0.0,0.0,0.0,0.0,0.0,0.0,0.0,0.0,0.0,0.0,0.0,0.0,0.0,
1.6925,5.114773187255007,5.557563624281933,5.134732874449775,0.0,0.0,0.020424456710250935,5.269023228662238,0.0,0.0,0.0,0.0,0.0,0.0,0.0,0.0,0.0,0.0,0.0,0.0,0.0,0.0,
1.7073,5.119187948725235,5.563045800445163,5.139479503335817,0.0,0.0,0.020465336216020008,5.273904417502072,0.0,0.0,0.0,0.0,0.0,0.0,0.0,0.0,0.0,0.0,0.0,0.0,0.0,0.0,
1.722,5.123625133472901,5.568556997312183,5.144251523455628,0.0,0.0,0.020506365924111692,5.278811218080238,0.0,0.0,0.0,0.0,0.0,0.0,0.0,0.0,0.0,0.0,0.0,0.0,0.0,0.0,
1.7367,5.128114848867624,5.574134635487445,5.149081347185013,0.0,0.0,0.02054782065911705,5.283776943846694,0.0,0.0,0.0,0.0,0.0,0.0,0.0,0.0,0.0,0.0,0.0,0.0,0.0,0.0,
1.7514,5.132657557489022,5.579779327737435,5.153969518971897,0.0,0.0,0.02058970033148469,5.2888021347327845,0.0,0.0,0.0,0.0,0.0,0.0,0.0,0.0,0.0,0.0,0.0,0.0,0.0,0.0,
