energies(eV),real_xx,real_yy,real_zz,real_xy,real_yz,real_xz,real_ave,imag_xx,imag_yy,imag_zz,imag_xy,imag_yz,imag_xz,imag_ave,absorption_xx,absorption_yy,absorption_zz,absorption_xy,absorption_yz,absorption_xz,absorption_ave,band_gap
0.0,2.946568497559154,7.186275775804051,5.823863999741714,0.0,0.0,-0.6087070405263565,5.31890275770164,0.0,0.0,0.0,0.0,0.0,0.0,0.0,0.0,0.0,0.0,0.0,0.0,0.0,0.0,1.8476
0.0164,2.946577104981821,7.186364907718907,5.823927840315211,0.0,0.0,-0.6087162699566937,5.318956617671979,0.0,0.0,0.0,0.0,0.0,0.0,0.0,0.0,0.0,0.0,0.0,0.0,1296.86517545267,0.0,
0.0329,2.946603139204705,7.186634501741635,5.8241209377617045,0.0,0.0,-0.6087441854465283,5.319119526236015,0.0,0.0,0.0,0.0,0.0,0.0,0.0,0.0,0.0,0.0,0.0,0.0,2601.6977197574665,0.0,
0.0493,2.946646289720105,7.187081352678731,5.824440999969403,0.0,0.0,-0.6087904538328586,5.31938954745608,0.0,0.0,0.0,0.0,0.0,0.0,0.0,0.0,0.0,0.0,0.0,0.0,3898.740787697321,0.0,
0.0658,2.946707091261524,7.187711015224722,5.824892011640021,0.0,0.0,-0.6088556481185752,5.319770039375422,0.0,0.0,0.0,0.0,0.0,0.0,0.0,0.0,0.0,0.0,0.0,0.0,5203.871795451082,0.0,
0.0822,2.9467848186669268,7.188516003448069,5.825468619256044,0.0,0.0,-0.608938990234335,5.3202564804570125,0.0,0.0,0.0,0.0,0.0,0.0,0.0,0.0,0.0,0.0,0.0,0.0,6501.330350248257,0.0,
0.0987,2.946880435178606,7.189506324148051,5.82617800162637,0.0,0.0,-0.6090415123252337,5.320854920317676,0.0,0.0,0.0,0.0,0.0,0.0,0.0,0.0,0.0,0.0,0.0,0.0,7806.999034304291,0.0,
0.1151,2.9469928004411345,7.190670203893553,5.8270117386416755,0.0,0.0,-0.6091619908425214,5.321558247658788,0.0,0.0,0.0,0.0,0.0,0.0,0.0,0.0,0.0,0.0,0.0,0.0,9105.11106406875,0.0,
0.1316,2.9471233069993383,7.192022111287552,5.827980210790652,0.0,0.0,-0.6093019178650022,5.322375209692514,0.0,0.0,0.0,0.0,0.0,0.0,0.0,0.0,0.0,0.0,0.0,0.0,10411.55714697745,0.0,
0.148,2.9472703984553443,7.193545974753649,5.829071923203949,0.0,0.0,-0.6094596234626674,5.323296098804314,0.0,0.0,0.0,0.0,0.0,0.0,0.0,0.0,0.0,0.0,0.0,0.0,11710.561259536686,0.0,
0.1645,2.9474358978065833,7.1952607387452705,5.83030046902187,0.0,0.0,-0.6096370607932382,5.3243323685245745,0.0,0.0,0.0,0.0,0.0,0.0,0.0,0.0,0.0,0.0,0.0,0.0,13018.025201441389,0.0,
0.1809,2.9476178314512285,7.197146018982689,5.831651267441614,0.0,0.0,-0.6098321123132483,5.325471705958511,0.0,0.0,0.0,0.0,0.0,0.0,0.0,0.0,0.0,0.0,0.0,0.0,14318.16085149933,0.0,
0.1974,2.947818454350114,7.1992252542042605,5.833141138662714,0.0,0.0,-0.6100471937601739,5.326728282405696,0.0,0.0,0.0,0.0,0.0,0.0,0.0,0.0,0.0,0.0,0.0,0.0,15626.88407943615,0.0,
0.2138,2.948035374219733,7.2014737289220925,5.834752401738228,0.0,0.0,-0.6102797384124017,5.328087168293352,0.0,0.0,0.0,0.0,0.0,0.0,0.0,0.0,0.0,0.0,0.0,0.0,16928.39179734147,0.0,
0.2303,2.948271279861107,7.203919399031831,5.8365051218173605,0.0,0.0,-0.6105326264462412,5.329565266903432,0.0,0.0,0.0,0.0,0.0,0.0,0.0,0.0,0.0,0.0,0.0,0.0,18238.61693637409,0.0,
0.2467,2.9485233585109127,7.206533195338657,5.838378500520819,0.0,0.0,-0.610802840062004,5.331145018123462,0.0,0.0,0.0,0.0,0.0,0.0,0.0,0.0,0.0,0.0,0.0,0.0,19541.738558926227,0.0,
0.2632,2.948794735059809,7.209347618271756,5.8403958693803375,0.0,0.0,-0.6110937260952791,5.332846074237301,0.0,0.0,0.0,0.0,0.0,0.0,0.0,0.0,0.0,0.0,0.0,0.0,20853.70966554471,0.0,
0.2796,2.9490821741405435,7.212329218380366,5.842533292168514,0.0,0.0,-0.611401813429851,5.334648228229807,0.0,0.0,0.0,0.0,0.0,0.0,0.0,0.0,0.0,0.0,0.0,0.0,22158.688569262707,0.0,
0.2961,2.949389239363656,7.215515072584282,5.844817391846577,0.0,0.0,-0.6117309181461812,5.336573901264838,0.0,0.0,0.0,0.0,0.0,0.0,0.0,0.0,0.0,0.0,0.0,0.0,23472.651367473587,0.0,
0.3125,2.949712270301463,7.218867320510889,5.847221070736856,0.0,0.0,-0.612077113230633,5.338600220516402,0.0,0.0,0.0,0.0,0.0,0.0,0.0,0.0,0.0,0.0,0.0,0.0,24779.732704750826,0.0,
0.329,2.950055272305051,7.222427652199507,5.849774271975586,0.0,0.0,-0.6124446869636768,5.340752398826715,0.0,0.0,0.0,0.0,0.0,0.0,0.0,0.0,0.0,0.0,0.0,0.0,26095.934825282493,0.0,
0.3454,2.9504141570897584,7.226153761495113,5.852446709577535,0.0,0.0,-0.6128292535064007,5.3430048760541355,0.0,0.0,0.0,0.0,0.0,0.0,0.0,0.0,0.0,0.0,0.0,0.0,27405.36576384697,0.0,
0.3619,2.950793375169394,7.2300919929634135,5.855271679395674,0.0,0.0,-0.6132355766689098,5.3453856825094945,0.0,0.0,0.0,0.0,0.0,0.0,0.0,0.0,0.0,0.0,0.0,0.0,28724.056986888376,0.0,
0.3783,2.9511884072572485,7.2341955555225965,5.85821567694613,0.0,0.0,-0.6136588085071134,5.347866546575325,0.0,0.0,0.0,0.0,0.0,0.0,0.0,0.0,0.0,0.0,0.0,0.0,30036.086952980706,0.0,
0.3948,2.9516041528662833,7.238515494569245,5.861315387248885,0.0,0.0,-0.6141041920704671,5.350478344894804,0.0,0.0,0.0,0.0,0.0,0.0,0.0,0.0,0.0,0.0,0.0,0.0,31357.519454866582,0.0,
0.4112,2.95203565820408,7.243000490566523,5.864534053706845,0.0,0.0,-0.6145664136719682,5.353190067492483,0.0,0.0,0.0,0.0,0.0,0.0,0.0,0.0,0.0,0.0,0.0,0.0,32672.40038054128,0.0,
0.4277,2.9524882760481117,7.247706341079725,5.867911790993022,0.0,0.0,-0.6150511996964093,5.356035469373619,0.0,0.0,0.0,0.0,0.0,0.0,0.0,0.0,0.0,0.0,0.0,0.0,33996.828984784755,0.0,
0.4441,2.9529566142270274,7.252577150091931,5.871408553258627,0.0,0.0,-0.6155527667119571,5.358980772525862,0.0,0.0,0.0,0.0,0.0,0.0,0.0,0.0,0.0,0.0,0.0,0.0,35314.81555972852,0.0,
0.4605,2.953443457962755,7.257642042523239,5.875045322639096,0.0,0.0,-0.6160740893299476,5.362043607708363,0.0,0.0,0.0,0.0,0.0,0.0,0.0,0.0,0.0,0.0,0.0,0.0,36634.4462887804,0.0,
0.477,2.9539520490416997,7.262934937242646,5.8788465438253805,0.0,0.0,-0.6166186287939657,5.365244510036575,0.0,0.0,0.0,0.0,0.0,0.0,0.0,0.0,0.0,0.0,0.0,0.0,37963.84792103507,0.0,
0.4934,2.9544763303021853,7.268392980438028,5.882767164597652,0.0,0.0,-0.6171798894649041,5.368545491779289,0.0,0.0,0.0,0.0,0.0,0.0,0.0,0.0,0.0,0.0,0.0,0.0,39286.97167082719,0.0,
0.5099,2.9550228085991934,7.274084101652319,5.886856073273348,0.0,0.0,-0.6177648258265184,5.371987661174953,0.0,0.0,0.0,0.0,0.0,0.0,0.0,0.0,0.0,0.0,0.0,0.0,40620.01933509121,0.0,
0.5263,2.955584977014894,7.279940730093033,5.891064819424975,0.0,0.0,-0.6183664608567603,5.375530175510967,0.0,0.0,0.0,0.0,0.0,0.0,0.0,0.0,0.0,0.0,0.0,0.0,41946.89881870801,0.0,
0.5428,2.9561698142209503,7.286035769044288,5.895445896640111,0.0,0.0,-0.6189922498467294,5.379217159968451,0.0,0.0,0.0,0.0,0.0,0.0,0.0,0.0,0.0,0.0,0.0,0.0,43283.8586465483,0.0,
0.5592,2.95677035827003,7.2922968658976695,5.899947405850991,0.0,0.0,-0.619634729055698,5.383004876672897,0.0,0.0,0.0,0.0,0.0,0.0,0.0,0.0,0.0,0.0,0.0,0.0,44614.76025648434,0.0,
0.5757,2.9573940660787725,7.298801973806451,5.904625506585013,0.0,0.0,-0.6203018605076367,5.386940515490079,0.0,0.0,0.0,0.0,0.0,0.0,0.0,0.0,0.0,0.0,0.0,0.0,45955.90221961559,0.0,
0.5921,2.958033514959955,7.305473888338007,5.909424796569825,0.0,0.0,-0.6209856880062636,5.390977399955929,0.0,0.0,0.0,0.0,0.0,0.0,0.0,0.0,0.0,0.0,0.0,0.0,47291.09630423513,0.0,
0.6086,2.9586966470504548,7.312395694748059,5.914405166997651,0.0,0.0,-0.6216946866643206,5.395165836265388,0.0,0.0,0.0,0.0,0.0,0.0,0.0,0.0,0.0,0.0,0.0,0.0,48636.69449577695,0.0,
0.625,2.9593755727560263,7.319485261406183,5.919507653520482,0.0,0.0,-0.6224204016818646,5.399456162560898,0.0,0.0,0.0,0.0,0.0,0.0,0.0,0.0,0.0,0.0,0.0,0.0,49976.455642009256,0.0,
0.6415,2.9600787269860795,7.326830894273004,5.92479595003247,0.0,0.0,-0.6231718280563372,5.403901857097185,0.0,0.0,0.0,0.0,0.0,0.0,0.0,0.0,0.0,0.0,0.0,0.0,51326.78856410642,0.0,
0.6579,2.960797746593987,7.334345453571797,5.930207466740424,0.0,0.0,-0.6239400058139133,5.408450222302069,0.0,0.0,0.0,0.0,0.0,0.0,0.0,0.0,0.0,0.0,0.0,0.0,52671.395886534105,0.0,
0.6744,2.961541567424436,7.342122561230756,5.935809776872665,0.0,0.0,-0.6247344570827851,5.413157968509286,0.0,0.0,0.0,0.0,0.0,0.0,0.0,0.0,0.0,0.0,0.0,0.0,54026.74674445886,0.0,
0.6908,2.9623013456313227,7.3500699825740075,5.9415365971133065,0.0,0.0,-0.6255457097112627,5.417969308439545,0.0,0.0,0.0,0.0,0.0,0.0,0.0,0.0,0.0,0.0,0.0,0.0,55376.4841808743,0.0,
0.7073,2.9630865268048816,7.358286757738308,5.9474594625657,0.0,0.0,-0.6263838206648492,5.422944249036296,0.0,0.0,0.0,0.0,0.0,0.0,0.0,0.0,0.0,0.0,0.0,0.0,56737.141183634085,0.0,
0.7237,2.963887778724823,7.366675464343468,5.953508323376144,0.0,0.0,-0.6272387981639056,5.428023855481478,0.0,0.0,0.0,0.0,0.0,0.0,0.0,0.0,0.0,0.0,0.0,0.0,58092.297797033505,0.0,
0.7402,2.964715066225967,7.375340670302524,5.95975876531818,0.0,0.0,-0.6281212421888742,5.433271500615557,0.0,0.0,0.0,0.0,0.0,0.0,0.0,0.0,0.0,0.0,0.0,0.0,59458.55446439093,0.0,
0.7566,2.965558560483128,7.3841796664027495,5.9661368937972545,0.0,0.0,-0.6290206334227938,5.43862504022771,0.0,0.0,0.0,0.0,0.0,0.0,0.0,0.0,0.0,0.0,0.0,0.0,60819.424751237784,0.0,
0.7731,2.9664287558094697,7.393302665611066,5.972722440688849,0.0,0.0,-0.6299481235204824,5.444151287369795,0.0,0.0,0.0,0.0,0.0,0.0,0.0,0.0,0.0,0.0,0.0,0.0,62191.58022689492,0.0,
0.7895,2.9673153179571705,7.402601566137213,5.979437582993255,0.0,0.0,-0.6308926572450089,5.449784822362546,0.0,0.0,0.0,0.0,0.0,0.0,0.0,0.0,0.0,0.0,0.0,0.0,63558.464431320754,0.0,
0.806,2.968229281737072,7.412192351407183,5.986366301178144,0.0,0.0,-0.6318659470774504,5.455595978107467,0.0,0.0,0.0,0.0,0.0,0.0,0.0,0.0,0.0,0.0,0.0,0.0,64936.823801831524,0.0,
0.8224,2.969159798040028,7.421961414373359,5.993426754414765,0.0,0.0,-0.6328563929901836,5.461515988942717,0.0,0.0,0.0,0.0,0.0,0.0,0.0,0.0,0.0,0.0,0.0,0.0,66310.0282352273,0.0,
0.8389,2.9701184540363226,7.432030642913179,6.000707281778941,0.0,0.0,-0.633876277945259,5.46761879290948,0.0,0.0,0.0,0.0,0.0,0.0,0.0,0.0,0.0,0.0,0.0,0.0,67694.90285396163,0.0,
0.8553,2.971093875658557,7.442280804761206,6.008121929104004,0.0,0.0,-0.6349134477499255,5.473832203174589,0.0,0.0,0.0,0.0,0.0,0.0,0.0,0.0,0.0,0.0,0.0,0.0,69074.74021914705,0.0,
0.8717,2.9720920583734096,7.452775090878906,6.0157166455778235,0.0,0.0,-0.6359742250038508,5.4801945982767135,0.0,0.0,0.0,0.0,0.0,0.0,0.0,0.0,0.0,0.0,0.0,0.0,70458.00283555269,0.0,
0.8882,2.973119562851278,7.463582749515352,6.023541861410675,0.0,0.0,-0.6370655144867936,5.486748057925769,0.0,0.0,0.0,0.0,0.0,0.0,0.0,0.0,0.0,0.0,0.0,0.0,71853.23775315391,0.0,
0.9046,2.9741642079464574,7.474575877745856,6.031505265728496,0.0,0.0,-0.638174312911621,5.4934151171402705,0.0,0.0,0.0,0.0,0.0,0.0,0.0,0.0,0.0,0.0,0.0,0.0,73243.61456056897,0.0,
0.9211,2.975239018841123,7.48589176214445,6.03970662244977,0.0,0.0,-0.6393143741529649,5.500279134478448,0.0,0.0,0.0,0.0,0.0,0.0,0.0,0.0,0.0,0.0,0.0,0.0,74646.1721814351,0.0,
0.9375,2.9763312610513872,7.497396540498795,6.048049239735152,0.0,0.0,-0.6404721150250313,5.507259013761779,0.0,0.0,0.0,0.0,0.0,0.0,0.0,0.0,0.0,0.0,0.0,0.0,76043.99328681525,0.0,
0.954,2.9774545612288534,7.509233947880052,6.056637692197228,0.0,0.0,-0.6416618977506006,5.514442067102045,0.0,0.0,0.0,0.0,0.0,0.0,0.0,0.0,0.0,0.0,0.0,0.0,77454.20948319268,0.0,
0.9704,2.978595618805191,7.521264014196305,6.0653707872215845,0.0,0.0,-0.6428695479729943,5.521743473407693,0.0,0.0,0.0,0.0,0.0,0.0,0.0,0.0,0.0,0.0,0.0,0.0,78859.81253443683,0.0,
0.9869,2.9797686784524693,7.533637102610553,6.0743580612513846,0.0,0.0,-0.6441100482858293,5.529254614104802,0.0,0.0,0.0,0.0,0.0,0.0,0.0,0.0,0.0,0.0,0.0,0.0,80278.03092904844,0.0,
1.0033,2.9809598598972853,7.546206977327716,6.083493693130628,0.0,0.0,-0.6453686213044053,5.536886843451877,0.0,0.0,0.0,0.0,0.0,0.0,0.0,0.0,0.0,0.0,0.0,0.0,81691.76143850091,0.0,
1.0198,2.9821840436816403,7.5591308212379325,6.092892343441422,0.0,0.0,-0.6466608825557156,5.544735736120331,0.0,0.0,0.0,0.0,0.0,0.0,0.0,0.0,0.0,0.0,0.0,0.0,83118.33372621484,0.0,
1.0362,2.983426755270745,7.5722559652477255,6.102443426236227,0.0,0.0,-0.647971439164343,5.552708715584899,0.0,0.0,0.0,0.0,0.0,0.0,0.0,0.0,0.0,0.0,0.0,0.0,84540.54538544876,0.0,
1.0527,2.9847035303439893,7.585746616500844,6.112266900645607,0.0,0.0,-0.649316552691553,5.560905682496813,0.0,0.0,0.0,0.0,0.0,0.0,0.0,0.0,0.0,0.0,0.0,0.0,85975.83164370338,0.0,
1.0691,2.9859992845458274,7.599443494653264,6.122247270621606,0.0,0.0,-0.6506802016814108,5.569230016606899,0.0,0.0,0.0,0.0,0.0,0.0,0.0,0.0,0.0,0.0,0.0,0.0,87406.8866243501,0.0,
1.0856,2.9873302295136366,7.613518049460014,6.132509981394795,0.0,0.0,-0.6520793073622339,5.577786086789483,0.0,0.0,0.0,0.0,0.0,0.0,0.0,0.0,0.0,0.0,0.0,0.0,88851.25560636597,0.0,
1.102,2.988680654434931,7.627804200381507,6.142934471820218,0.0,0.0,-0.6534972059579972,5.586473108878885,0.0,0.0,0.0,0.0,0.0,0.0,0.0,0.0,0.0,0.0,0.0,0.0,90291.52484026352,0.0,
1.1185,2.990067469432238,7.642480873015211,6.153651875090258,0.0,0.0,-0.6549514925160774,5.595400072512569,0.0,0.0,0.0,0.0,0.0,0.0,0.0,0.0,0.0,0.0,0.0,0.0,91745.35424339355,0.0,
1.1349,2.9914743194423203,7.6573749859981435,6.164536399590879,0.0,0.0,-0.656424846527225,5.604461901677115,0.0,0.0,0.0,0.0,0.0,0.0,0.0,0.0,0.0,0.0,0.0,0.0,93195.2176734705,0.0,
1.1514,2.9929188374812883,7.672673190032424,6.175725083964924,0.0,0.0,-0.6579355515081671,5.613772370492879,0.0,0.0,0.0,0.0,0.0,0.0,0.0,0.0,0.0,0.0,0.0,0.0,94658.89437292369,0.0,
1.1678,2.9943840051950126,7.688195189870756,6.187086729628814,0.0,0.0,-0.6594656151046664,5.623221974898194,0.0,0.0,0.0,0.0,0.0,0.0,0.0,0.0,0.0,0.0,0.0,0.0,96118.74116384801,0.0,
1.1843,2.9958882049827587,7.704135627902823,6.198764515277421,0.0,0.0,-0.6610340244199702,5.632929449387667,0.0,0.0,0.0,0.0,0.0,0.0,0.0,0.0,0.0,0.0,0.0,0.0,97592.66139932744,0.0,
1.2007,2.997413734815728,7.72030676868854,6.210621646905611,0.0,0.0,-0.662622099417929,5.642780716803293,0.0,0.0,0.0,0.0,0.0,0.0,0.0,0.0,0.0,0.0,0.0,0.0,99062.89009393874,0.0,
1.2172,2.9989797552764283,7.7369115316488495,6.222807696659241,0.0,0.0,-0.6642495463272489,5.65289966119484,0.0,0.0,0.0,0.0,0.0,0.0,0.0,0.0,0.0,0.0,0.0,0.0,100547.45959329502,0.0,
1.2336,3.0005678588273934,7.75375450070922,6.235180073806542,0.0,0.0,-0.6658969808395689,5.663167477781052,0.0,0.0,0.0,0.0,0.0,0.0,0.0,0.0,0.0,0.0,0.0,0.0,102028.47819696514,0.0,
1.2501,3.0021980156093346,7.771047178041313,6.247895018056661,0.0,0.0,-0.6675848442071828,5.673713403902436,0.0,0.0,0.0,0.0,0.0,0.0,0.0,0.0,0.0,0.0,0.0,0.0,103524.11221657213,0.0,
1.2665,3.003851089175452,7.788586211397746,6.260803926806577,0.0,0.0,-0.6692930304753603,5.684413742459925,0.0,0.0,0.0,0.0,0.0,0.0,0.0,0.0,0.0,0.0,0.0,0.0,105016.33818668513,0.0,
1.283,3.005547893480498,7.8065920136116755,6.2740700043409765,0.0,0.0,-0.6710427320922479,5.695403303811051,0.0,0.0,0.0,0.0,0.0,0.0,0.0,0.0,0.0,0.0,0.0,0.0,106523.46144257793,0.0,
1.2994,3.007268538073633,7.824853024581805,6.287538406122396,0.0,0.0,-0.6728131032654785,5.706553322925944,0.0,0.0,0.0,0.0,0.0,0.0,0.0,0.0,0.0,0.0,0.0,0.0,108027.32155393765,0.0,
1.3158,3.0090239067499636,7.84348416561237,6.301294846166873,0.0,0.0,-0.6746150191643863,5.717934306176402,0.0,0.0,0.0,0.0,0.0,0.0,0.0,0.0,0.0,0.0,0.0,0.0,109537.14327021842,0.0,
1.3323,3.010825762527027,7.862609642812893,6.315432323631671,0.0,0.0,-0.6764601295340236,5.729622576323863,0.0,0.0,0.0,0.0,0.0,0.0,0.0,0.0,0.0,0.0,0.0,0.0,111062.29805913124,0.0,
1.3487,3.0126530340759454,7.882005050144399,6.329786174404895,0.0,0.0,-0.6783264440206018,5.7414814195417465,0.0,0.0,0.0,0.0,0.0,0.0,0.0,0.0,0.0,0.0,0.0,0.0,112584.41017014373,0.0,
1.3652,3.0145288155720946,7.9019146613095215,6.344538475399705,0.0,0.0,-0.6802371032639144,5.75366065076044,0.0,0.0,0.0,0.0,0.0,0.0,0.0,0.0,0.0,0.0,0.0,0.0,114122.15482965553,0.0,
1.3816,3.016431210642298,7.922105105383841,6.359517672563384,0.0,0.0,-0.6821693277946396,5.766017996196507,0.0,0.0,0.0,0.0,0.0,0.0,0.0,0.0,0.0,0.0,0.0,0.0,115657.0056207985,0.0,
1.3981,3.0183843055068,7.942830920705781,6.374914066452823,0.0,0.0,-0.6841470661673605,5.7787097642218015,0.0,0.0,0.0,0.0,0.0,0.0,0.0,0.0,0.0,0.0,0.0,0.0,117207.79494468242,0.0,
1.4145,3.020365346558159,7.963849433709828,6.39054892081159,0.0,0.0,-0.6861467284157537,5.7915879003598585,0.0,0.0,0.0,0.0,0.0,0.0,0.0,0.0,0.0,0.0,0.0,0.0,118755.83992469739,0.0,
1.431,3.0223994646813863,7.9854259048833525,6.4066211970587235,0.0,0.0,-0.6881930863498982,5.804815522207821,0.0,0.0,0.0,0.0,0.0,0.0,0.0,0.0,0.0,0.0,0.0,0.0,120320.13535488948,0.0,
1.4474,3.0244630144352174,8.007307998201533,6.422944663353811,0.0,0.0,-0.6902617170830212,5.81823855866352,0.0,0.0,0.0,0.0,0.0,0.0,0.0,0.0,0.0,0.0,0.0,0.0,121881.83591087029,0.0,
1.4639,3.02658222979937,8.029772191484934,6.439727421810296,0.0,0.0,-0.6923782300061976,5.832027281031533,0.0,0.0,0.0,0.0,0.0,0.0,0.0,0.0,0.0,0.0,0.0,0.0,123460.10393838091,0.0,
1.4803,3.028732536302102,8.052556102751671,6.456775408798731,0.0,0.0,-0.6945173457608541,5.846021349284168,0.0,0.0,0.0,0.0,0.0,0.0,0.0,0.0,0.0,0.0,0.0,0.0,125035.92546750946,0.0,
1.4968,3.0309413361693966,8.075947964374866,6.4743063953857085,0.0,0.0,-0.6967055241059078,5.86039856530999,0.0,0.0,0.0,0.0,0.0,0.0,0.0,0.0,0.0,0.0,0.0,0.0,126628.63543229905,0.0,
1.5132,3.0331830859131284,8.099674939509619,6.492118125297963,0.0,0.0,-0.6989166044182414,5.874992050240237,0.0,0.0,0.0,0.0,0.0,0.0,0.0,0.0,0.0,0.0,0.0,0.0,128219.04479100242,0.0,
1.5297,3.0354864289861268,8.124037599446424,6.5104386221493,0.0,0.0,-0.7011779073823792,5.8899875501939505,0.0,0.0,0.0,0.0,0.0,0.0,0.0,0.0,0.0,0.0,0.0,0.0,129826.66589643418,0.0,
1.5461,3.0378248099193095,8.148752216332742,6.529057049593033,0.0,0.0,-0.7034623649224433,5.905211358615028,0.0,0.0,0.0,0.0,0.0,0.0,0.0,0.0,0.0,0.0,0.0,0.0,131432.12795576602,0.0,
1.5626,3.0402281955590245,8.174132337923322,6.548212330997164,0.0,0.0,-0.7057981660628124,5.92085762149317,0.0,0.0,0.0,0.0,0.0,0.0,0.0,0.0,0.0,0.0,0.0,0.0,133055.12525227372,0.0,
1.579,3.0426689723362452,8.199882880062052,6.567684633941312,0.0,0.0,-0.7081573074761338,5.936745495446536,0.0,0.0,0.0,0.0,0.0,0.0,0.0,0.0,0.0,0.0,0.0,0.0,134676.09827733127,0.0,
1.5955,3.0451785235231945,8.226331064892424,6.587724502365983,0.0,0.0,-0.7105688495804029,5.953078030260534,0.0,0.0,0.0,0.0,0.0,0.0,0.0,0.0,0.0,0.0,0.0,0.0,136314.92728611993,0.0,
1.6119,3.0477281280349544,8.253169955554544,6.608102661201469,0.0,0.0,-0.7130038240812581,5.969666914930322,0.0,0.0,0.0,0.0,0.0,0.0,0.0,0.0,0.0,0.0,0.0,0.0,137951.85675932365,0.0,
1.6284,3.050350691567985,8.280741215548368,6.629082081578154,0.0,0.0,-0.7154921598532425,5.986724662898169,0.0,0.0,0.0,0.0,0.0,0.0,0.0,0.0,0.0,0.0,0.0,0.0,139606.95629059206,0.0,
1.6448,3.0530163327292694,8.308725525880615,6.650423566709931,0.0,0.0,-0.7180038915579287,6.0040551417732715,0.0,0.0,0.0,0.0,0.0,0.0,0.0,0.0,0.0,0.0,0.0,0.0,141260.2666618038,0.0,
1.6613,3.0557596012614714,8.337479837977932,6.672403422342372,0.0,0.0,-0.7205698053979537,6.021880953860592,0.0,0.0,0.0,0.0,0.0,0.0,0.0,0.0,0.0,0.0,0.0,0.0,142932.0492185853,0.0,
1.6777,3.058549399327589,8.366671886478544,6.694772016752258,0.0,0.0,-0.7231589038961677,6.039997767519464,0.0,0.0,0.0,0.0,0.0,0.0,0.0,0.0,0.0,0.0,0.0,0.0,144602.1328717036,0.0,
1.6942,3.0614220613674923,8.396674849941352,6.717820017224312,0.0,0.0,-0.7258028082657731,6.058638976177718,0.0,0.0,0.0,0.0,0.0,0.0,0.0,0.0,0.0,0.0,0.0,0.0,146290.9717980189,0.0,
1.7106,3.0643452138427922,8.427142916166726,6.741286808586037,0.0,0.0,-0.7284694497972921,6.077591646198518,0.0,0.0,0.0,0.0,0.0,0.0,0.0,0.0,0.0,0.0,0.0,0.0,147978.1742468284,0.0,
1.727,3.0673386659953032,8.458274636115,6.765330172888187,0.0,0.0,-0.7311746341716542,6.09698115833283,0.0,0.0,0.0,0.0,0.0,0.0,0.0,0.0,0.0,0.0,0.0,0.0,149674.01928809664,0.0,
1.7435,3.0704241287469003,8.49028572198619,6.7901231778177555,0.0,0.0,-0.7339350155947975,6.116944342850282,0.0,0.0,0.0,0.0,0.0,0.0,0.0,0.0,0.0,0.0,0.0,0.0,151388.98636768575,0.0,
1.7599,3.0735672006426418,8.522808857190228,6.8153876458511276,0.0,0.0,-0.7367168343833793,6.137254567894666,0.0,0.0,0.0,0.0,0.0,0.0,0.0,0.0,0.0,0.0,0.0,0.0,153102.33475633382,0.0,
1.7764,3.0768094583877272,8.556262634786208,6.841455628080628,0.0,0.0,-0.7395535854243632,6.158175907084854,0.0,0.0,0.0,0.0,0.0,0.0,0.0,0.0,0.0,0.0,0.0,0.0,154834.991047245,0.0,
1.7928,3.0801150679971476,8.590264531002866,6.868036442117151,0.0,0.0,-0.742410310819401,6.179472013705722,0.0,0.0,0.0,0.0,0.0,0.0,0.0,0.0,0.0,0.0,0.0,0.0,156565.96759774536,0.0,
