energies(eV),real_xx,real_yy,real_zz,real_xy,real_yz,real_xz,real_ave,imag_xx,imag_yy,imag_zz,imag_xy,imag_yz,imag_xz,imag_ave,absorption_xx,absorption_yy,absorption_zz,absorption_xy,absorption_yz,absorption_xz,absorption_ave,band_gap
0.0,2.4650780402064982,2.4338238587721372,2.443827169123824,0.0,0.0,-0.0035614012032312535,2.4475763560341535,0.0,0.0,0.0,0.0,0.0,0.0,0.0,0.0,0.0,0.0,0.0,0.0,0.0,0.0,6.2287
0.0156,2.4650803621395525,2.4338261046323115,2.443829384956566,0.0,0.0,-0.003561413498667584,2.4475786172428102,0.0,0.0,0.0,0.0,0.0,0.0,0.0,0.0,0.0,0.0,0.0,0.0,94.35812968656147,0.0,
0.0311,2.4650872685623537,2.433832784780716,2.443835975789493,0.0,0.0,-0.0035614500709167836,2.4475853430441874,0.0,0.0,0.0,0.0,0.0,0.0,0.0,0.0,0.0,0.0,0.0,0.0,188.11236542542338,0.0,
0.0467,2.4650988487864485,2.4338439855993212,2.4438470268464827,0.0,0.0,-0.0035615113940024577,2.4475966204107507,0.0,0.0,0.0,0.0,0.0,0.0,0.0,0.0,0.0,0.0,0.0,0.0,282.47341145683237,0.0,
0.0622,2.465114954671899,2.433859563796069,2.443862396746133,0.0,0.0,-0.003561596685239206,2.447612305071367,0.0,0.0,0.0,0.0,0.0,0.0,0.0,0.0,0.0,0.0,0.0,0.0,376.23247479856644,0.0,
0.0778,2.4651357944946994,2.4338797208150282,2.4438822842316337,0.0,0.0,-0.003561707050112425,2.4476325998471204,0.0,0.0,0.0,0.0,0.0,0.0,0.0,0.0,0.0,0.0,0.0,0.0,470.6003223663327,0.0,
0.0933,2.4651611016615833,2.43390419878751,2.443906434873053,0.0,0.0,-0.003561841080002659,2.4476572451073824,0.0,0.0,0.0,0.0,0.0,0.0,0.0,0.0,0.0,0.0,0.0,0.0,564.368074511473,0.0,
0.1089,2.465191203436643,2.4339333142421045,2.4439351609546156,0.0,0.0,-0.003562000512113832,2.4476865595444544,0.0,0.0,0.0,0.0,0.0,0.0,0.0,0.0,0.0,0.0,0.0,0.0,658.7466109542455,0.0,
0.1245,2.4652259522935136,2.4339669244711652,2.443968321663191,0.0,0.0,-0.0035621845698715826,2.4477203994759567,0.0,0.0,0.0,0.0,0.0,0.0,0.0,0.0,0.0,0.0,0.0,0.0,753.1319740378534,0.0,
0.14,2.465265081871128,2.4340047718248026,2.4440056627794577,0.0,0.0,-0.0035623918476968153,2.447758505491796,0.0,0.0,0.0,0.0,0.0,0.0,0.0,0.0,0.0,0.0,0.0,0.0,846.920031878415,0.0,
0.1556,2.465309098180978,2.43404734571369,2.444047667149916,0.0,0.0,-0.003562625032190959,2.4478013703481944,0.0,0.0,0.0,0.0,0.0,0.0,0.0,0.0,0.0,0.0,0.0,0.0,941.3219278207675,0.0,
0.1711,2.4653574381457846,2.4340941014910684,2.444093797393794,0.0,0.0,-0.0035628811471656863,2.4478484456768825,0.0,0.0,0.0,0.0,0.0,0.0,0.0,0.0,0.0,0.0,0.0,0.0,1035.1283483674836,0.0,
0.1867,2.4654107268834506,2.434145643764511,2.4441446500076105,0.0,0.0,-0.003563163512226723,2.447900340218524,0.0,0.0,0.0,0.0,0.0,0.0,0.0,0.0,0.0,0.0,0.0,0.0,1129.5506752635706,0.0,
0.2023,2.465468668945973,2.434201686741514,2.4441999429977743,0.0,0.0,-0.0035634705704898173,2.4479567662284203,0.0,0.0,0.0,0.0,0.0,0.0,0.0,0.0,0.0,0.0,0.0,0.0,1223.9847205218432,0.0,
0.2178,2.465530849891281,2.4342618295361067,2.4442592808178327,0.0,0.0,-0.0035638001343466794,2.4480173200817403,0.0,0.0,0.0,0.0,0.0,0.0,0.0,0.0,0.0,0.0,0.0,0.0,1317.8259970847887,0.0,
0.2334,2.4655980738261425,2.4343268498671327,2.4443234307488275,0.0,0.0,-0.0035641564754236277,2.448082784814034,0.0,0.0,0.0,0.0,0.0,0.0,0.0,0.0,0.0,0.0,0.0,0.0,1412.286339230299,0.0,
0.2489,2.4656694807929034,2.4343959159333304,2.4443915720940783,0.0,0.0,-0.0035645350456935876,2.448152322940104,0.0,0.0,0.0,0.0,0.0,0.0,0.0,0.0,0.0,0.0,0.0,0.0,1506.1556887394509,0.0,
0.2645,2.4657459942079,2.434469920843407,2.444464585971749,0.0,0.0,-0.0035649407519967222,2.4482268336743522,0.0,0.0,0.0,0.0,0.0,0.0,0.0,0.0,0.0,0.0,0.0,0.0,1600.6462443614741,0.0,
0.28,2.465826635279938,2.4345479178582243,2.4445415382863174,0.0,0.0,-0.003565368416273348,2.44830536380816,0.0,0.0,0.0,0.0,0.0,0.0,0.0,0.0,0.0,0.0,0.0,0.0,1694.547562901079,0.0,
0.2956,2.4659124468400653,2.434630915576135,2.444623424089813,0.0,0.0,-0.0035658235817209445,2.448388928835338,0.0,0.0,0.0,0.0,0.0,0.0,0.0,0.0,0.0,0.0,0.0,0.0,1789.0722581644643,0.0,
0.3112,2.46600292601772,2.434718427570966,2.444709763431207,0.0,0.0,-0.003566303595256242,2.4484770390066313,0.0,0.0,0.0,0.0,0.0,0.0,0.0,0.0,0.0,0.0,0.0,0.0,1883.6155601168725,0.0,
0.3267,2.4660974505838142,2.4348098519768326,2.4447999624709364,0.0,0.0,-0.003566805169129815,2.448569088343861,0.0,0.0,0.0,0.0,0.0,0.0,0.0,0.0,0.0,0.0,0.0,0.0,1977.5722238581513,0.0,
0.3423,2.466197242910807,2.4349063710280516,2.4448951875542524,0.0,0.0,-0.0035673348045742424,2.4486662671643704,0.0,0.0,0.0,0.0,0.0,0.0,0.0,0.0,0.0,0.0,0.0,0.0,2072.155581753437,0.0,
0.3578,2.4663010264198255,2.4350067499692547,2.444994220434091,0.0,0.0,-0.0035678857419015695,2.4487673322743904,0.0,0.0,0.0,0.0,0.0,0.0,0.0,0.0,0.0,0.0,0.0,0.0,2166.1540081482635,0.0,
0.3734,2.46641014322089,2.4351122868309165,2.4450983416868235,0.0,0.0,-0.0035684651222192857,2.4488735905795433,0.0,0.0,0.0,0.0,0.0,0.0,0.0,0.0,0.0,0.0,0.0,0.0,2260.781377627242,0.0,
0.389,2.4665239418510514,2.4352223514648736,2.4452069295630863,0.0,0.0,-0.0035690695049408394,2.4489844076263374,0.0,0.0,0.0,0.0,0.0,0.0,0.0,0.0,0.0,0.0,0.0,0.0,2355.432317736559,0.0,
0.4045,2.466641651126393,2.4353361979390202,2.445319248091123,0.0,0.0,-0.0035696948108861503,2.449099032385512,0.0,0.0,0.0,0.0,0.0,0.0,0.0,0.0,0.0,0.0,0.0,0.0,2449.5008544780894,0.0,
0.4201,2.46676479324776,2.4354552984415245,2.4454367496463796,0.0,0.0,-0.003570349145190356,2.449218947111888,0.0,0.0,0.0,0.0,0.0,0.0,0.0,0.0,0.0,0.0,0.0,0.0,2544.2017727153543,0.0,
0.4356,2.4668917929465577,2.435578129343984,2.4455579309994406,0.0,0.0,-0.003571024156784363,2.4493426177633277,0.0,0.0,0.0,0.0,0.0,0.0,0.0,0.0,0.0,0.0,0.0,0.0,2638.321948909205,0.0,
0.4512,2.4670242925703985,2.4357062790192154,2.445684359133529,0.0,0.0,-0.0035717285951458646,2.449471643574381,0.0,0.0,0.0,0.0,0.0,0.0,0.0,0.0,0.0,0.0,0.0,0.0,2733.0768383938753,0.0,
0.4667,2.467160597151409,2.4358381080787845,2.445814416623119,0.0,0.0,-0.003572453469811676,2.449604373951104,0.0,0.0,0.0,0.0,0.0,0.0,0.0,0.0,0.0,0.0,0.0,0.0,2827.2526299732804,0.0,
0.4823,2.467302469371891,2.4359753212586366,2.4459497852321705,0.0,0.0,-0.0035732081766572544,2.449742525287566,0.0,0.0,0.0,0.0,0.0,0.0,0.0,0.0,0.0,0.0,0.0,0.0,2922.0655010831124,0.0,
0.4979,2.46744904898541,2.4361170864840727,2.446089644000152,0.0,0.0,-0.0035739881642677246,2.4498852598232115,0.0,0.0,0.0,0.0,0.0,0.0,0.0,0.0,0.0,0.0,0.0,0.0,3016.908972350021,0.0,
0.5134,2.4675993553724638,2.4362624552772933,2.4462330571437585,0.0,0.0,-0.0035747882355505675,2.4500316225978387,0.0,0.0,0.0,0.0,0.0,0.0,0.0,0.0,0.0,0.0,0.0,0.0,3111.1757834724426,0.0,
0.529,2.467755332294691,2.4364133074702865,2.446381879135867,0.0,0.0,-0.003575618761219456,2.4501835063002813,0.0,0.0,0.0,0.0,0.0,0.0,0.0,0.0,0.0,0.0,0.0,0.0,3206.0832936886586,0.0,
0.5445,2.4679149844717827,2.4365677132606556,2.4465342060744115,0.0,0.0,-0.0035764691418387353,2.450338967935617,0.0,0.0,0.0,0.0,0.0,0.0,0.0,0.0,0.0,0.0,0.0,0.0,3300.4157472796055,0.0,
0.5601,2.4680803765318604,2.436727669348316,2.44669200770245,0.0,0.0,-0.0035773504003467757,2.450500017860876,0.0,0.0,0.0,0.0,0.0,0.0,0.0,0.0,0.0,0.0,0.0,0.0,3395.391355803552,0.0,
0.5756,2.4682493927618783,2.4368911294742954,2.4468532652464425,0.0,0.0,-0.003578251289947672,2.4506645958275386,0.0,0.0,0.0,0.0,0.0,0.0,0.0,0.0,0.0,0.0,0.0,0.0,3489.793495929828,0.0,
0.5912,2.468424218893807,2.437060207431826,2.4470200639381665,0.0,0.0,-0.0035791834884113015,2.450834830087933,0.0,0.0,0.0,0.0,0.0,0.0,0.0,0.0,0.0,0.0,0.0,0.0,3584.8412840594,0.0,
0.6068,2.4686037847086615,2.437233868090322,2.447191382510714,0.0,0.0,-0.003580141320660401,2.4510096784365656,0.0,0.0,0.0,0.0,0.0,0.0,0.0,0.0,0.0,0.0,0.0,0.0,3679.9268223563736,0.0,
0.6223,2.46878689879084,2.4374109591341613,2.447366084116359,0.0,0.0,-0.0035811184569563225,2.4511879806804533,0.0,0.0,0.0,0.0,0.0,0.0,0.0,0.0,0.0,0.0,0.0,0.0,3774.4412496106174,0.0,
0.6379,2.4689759292001914,2.4375937706378354,2.447546427844752,0.0,0.0,-0.0035821275636187797,2.4513720425609264,0.0,0.0,0.0,0.0,0.0,0.0,0.0,0.0,0.0,0.0,0.0,0.0,3869.60514024118,0.0,
0.6534,2.4691684578618567,2.4377799639823827,2.447730106558984,0.0,0.0,-0.003583155762572337,2.451559509467741,0.0,0.0,0.0,0.0,0.0,0.0,0.0,0.0,0.0,0.0,0.0,0.0,3964.199472162542,0.0,
0.669,2.469366974596419,2.4379719469590047,2.4479194954418064,0.0,0.0,-0.0035842163821984316,2.4517528056657434,0.0,0.0,0.0,0.0,0.0,0.0,0.0,0.0,0.0,0.0,0.0,0.0,4059.445857356233,0.0,
0.6846,2.4695702582841284,2.4381685385226817,2.4481134293019853,0.0,0.0,-0.003585302934983762,2.451950742036265,0.0,0.0,0.0,0.0,0.0,0.0,0.0,0.0,0.0,0.0,0.0,0.0,4154.735190827829,0.0,
0.7001,2.469776965913146,2.4383684397831167,2.4483106267272348,0.0,0.0,-0.0035864082711357663,2.4521520108078323,0.0,0.0,0.0,0.0,0.0,0.0,0.0,0.0,0.0,0.0,0.0,0.0,4249.457271578525,0.0,
0.7157,2.469989770686444,2.4385742358136264,2.4485136377285306,0.0,0.0,-0.0035875467192148986,2.452359214742867,0.0,0.0,0.0,0.0,0.0,0.0,0.0,0.0,0.0,0.0,0.0,0.0,4344.835370446993,0.0,
0.7312,2.4702059504366236,2.438783293992106,2.4487198652124222,0.0,0.0,-0.0035887037509511545,2.4525697032137175,0.0,0.0,0.0,0.0,0.0,0.0,0.0,0.0,0.0,0.0,0.0,0.0,4439.647736409018,0.0,
0.7468,2.4704283008755006,2.4389983178185854,2.4489319759712402,0.0,0.0,-0.0035898943652326594,2.452786198221775,0.0,0.0,0.0,0.0,0.0,0.0,0.0,0.0,0.0,0.0,0.0,0.0,4535.118812712196,0.0,
0.7623,2.4706539777419776,2.4392165566376027,2.449147256511254,0.0,0.0,-0.0035911033682730887,2.453005930296945,0.0,0.0,0.0,0.0,0.0,0.0,0.0,0.0,0.0,0.0,0.0,0.0,4630.025663872119,0.0,
0.7779,2.4708858995816905,2.439440832684264,2.449368490705039,0.0,0.0,-0.003592346432889338,2.453231740990331,0.0,0.0,0.0,0.0,0.0,0.0,0.0,0.0,0.0,0.0,0.0,0.0,4725.593960109696,0.0,
0.7935,2.471122632567651,2.4396697592607772,2.449594310537054,0.0,0.0,-0.0035936159182066185,2.4534622341218273,0.0,0.0,0.0,0.0,0.0,0.0,0.0,0.0,0.0,0.0,0.0,0.0,4821.212630356725,0.0,
0.809,2.471362619853685,2.4399018307543368,2.449823230733573,0.0,0.0,-0.0035949035086654917,2.4536958937805315,0.0,0.0,0.0,0.0,0.0,0.0,0.0,0.0,0.0,0.0,0.0,0.0,4916.269318088072,0.0,
0.8246,2.471608965076939,2.440140048303925,2.450058211567548,0.0,0.0,-0.00359622589620306,2.4539357416494707,0.0,0.0,0.0,0.0,0.0,0.0,0.0,0.0,0.0,0.0,0.0,0.0,5011.991639336716,0.0,
0.8401,2.4718585170791805,2.4403813645887946,2.4502962470077936,0.0,0.0,-0.0035975662060389584,2.45417870955859,0.0,0.0,0.0,0.0,0.0,0.0,0.0,0.0,0.0,0.0,0.0,0.0,5107.153458074372,0.0,
0.8557,2.4721145032102982,2.4406289003169834,2.4505404152158996,0.0,0.0,-0.003598941813810544,2.4544279395810604,0.0,0.0,0.0,0.0,0.0,0.0,0.0,0.0,0.0,0.0,0.0,0.0,5202.983755627896,0.0,
0.8712,2.4723736490066663,2.440879488984222,2.4507875926454235,0.0,0.0,-0.0036003351658727588,2.4546802435454373,0.0,0.0,0.0,0.0,0.0,0.0,0.0,0.0,0.0,0.0,0.0,0.0,5298.255020541472,0.0,
0.8868,2.4726393059089915,2.4411363712262997,2.4510409756943137,0.0,0.0,-0.0036017643257806238,2.454938884276535,0.0,0.0,0.0,0.0,0.0,0.0,0.0,0.0,0.0,0.0,0.0,0.0,5394.197655508886,0.0,
0.9024,2.4729098253694066,2.441397952781025,2.4512989916692622,0.0,0.0,-0.003603220477270119,2.4552022566065648,0.0,0.0,0.0,0.0,0.0,0.0,0.0,0.0,0.0,0.0,0.0,0.0,5490.198293902846,0.0,
0.9179,2.473183434509753,2.441662519226991,2.4515599494127347,0.0,0.0,-0.0036046941148680837,2.4554686343831595,0.0,0.0,0.0,0.0,0.0,0.0,0.0,0.0,0.0,0.0,0.0,0.0,5585.642089011379,0.0,
0.9335,2.4734636718506855,2.441933491990346,2.451827223551588,0.0,0.0,-0.0036062043434328408,2.4557414624642067,0.0,0.0,0.0,0.0,0.0,0.0,0.0,0.0,0.0,0.0,0.0,0.0,5681.76168423123,0.0,
0.949,2.473746952769156,2.4422074048055142,2.452097395000594,0.0,0.0,-0.0036077318922675813,2.4560172508584213,0.0,0.0,0.0,0.0,0.0,0.0,0.0,0.0,0.0,0.0,0.0,0.0,5777.325883126788,0.0,
0.9646,2.474036940890731,2.4424877999883376,2.4523739575553396,0.0,0.0,-0.003609296565501611,2.456299566144803,0.0,0.0,0.0,0.0,0.0,0.0,0.0,0.0,0.0,0.0,0.0,0.0,5873.5688928667605,0.0,
0.9802,2.474331832857392,2.4427729336508177,2.452655190999873,0.0,0.0,-0.003610888691639662,2.4565866525026943,0.0,0.0,0.0,0.0,0.0,0.0,0.0,0.0,0.0,0.0,0.0,0.0,5969.875500054751,0.0,
0.9957,2.4746296999279904,2.4430609407469124,2.452939255685817,0.0,0.0,-0.0036124978982411105,2.45687663212024,0.0,0.0,0.0,0.0,0.0,0.0,0.0,0.0,0.0,0.0,0.0,0.0,6065.6288685201525,0.0,
1.0113,2.4749343944050928,2.443355545897595,2.453229825105802,0.0,0.0,-0.003614145048667721,2.4571732551361634,0.0,0.0,0.0,0.0,0.0,0.0,0.0,0.0,0.0,0.0,0.0,0.0,6162.065662399537,0.0,
1.0268,2.475242018886573,2.4436529805904406,2.4535231822265096,0.0,0.0,-0.0036158091260383106,2.457472727234508,0.0,0.0,0.0,0.0,0.0,0.0,0.0,0.0,0.0,0.0,0.0,0.0,6257.950645154903,0.0,
1.0424,2.4755565518935336,2.443957091392254,2.4538231207329213,0.0,0.0,-0.0036175117055235197,2.4577789213395698,0.0,0.0,0.0,0.0,0.0,0.0,0.0,0.0,0.0,0.0,0.0,0.0,6354.5221904133705,0.0,
1.0579,2.4758739702044634,2.444263988221876,2.454125803764368,0.0,0.0,-0.0036192310634129304,2.458087920730236,0.0,0.0,0.0,0.0,0.0,0.0,0.0,0.0,0.0,0.0,0.0,0.0,6450.543345418803,0.0,
1.0735,2.4761983790326827,2.4445776400411106,2.4544351456334415,0.0,0.0,-0.0036209894920408276,2.4584037215690784,0.0,0.0,0.0,0.0,0.0,0.0,0.0,0.0,0.0,0.0,0.0,0.0,6547.254252543265,0.0,
1.0891,2.4765277560969534,2.4448960914093245,2.454749217580166,0.0,0.0,-0.0036227760981220178,2.4587243550288145,0.0,0.0,0.0,0.0,0.0,0.0,0.0,0.0,0.0,0.0,0.0,0.0,6644.036815878646,0.0,
1.1046,2.476859952091029,2.445217264170468,2.4550659699027726,0.0,0.0,-0.0036245792689952416,2.459047728721423,0.0,0.0,0.0,0.0,0.0,0.0,0.0,0.0,0.0,0.0,0.0,0.0,6740.271111207986,0.0,
1.1202,2.4771992633961757,2.445545311953567,2.4553894989000433,0.0,0.0,-0.0036264223843923043,2.459378024749929,0.0,0.0,0.0,0.0,0.0,0.0,0.0,0.0,0.0,0.0,0.0,0.0,6837.200049496333,0.0,
1.1357,2.4775413499267716,2.4458760385556095,2.4557156660074186,0.0,0.0,-0.0036282819286721367,2.4597110181632664,0.0,0.0,0.0,0.0,0.0,0.0,0.0,0.0,0.0,0.0,0.0,0.0,6933.58212641358,0.0,
1.1513,2.477890636014127,2.4462137211931356,2.4560486893070186,0.0,0.0,-0.0036301820130141926,2.4600510155047606,0.0,0.0,0.0,0.0,0.0,0.0,0.0,0.0,0.0,0.0,0.0,0.0,7030.662172615592,0.0,
1.1669,2.478244941213787,2.4465562516182353,2.45638648943228,0.0,0.0,-0.0036321108516362364,2.460395894088101,0.0,0.0,0.0,0.0,0.0,0.0,0.0,0.0,0.0,0.0,0.0,0.0,7127.819814513719,0.0,
1.1824,2.478601956759071,2.446901397637495,2.456726864882758,0.0,0.0,-0.0036340559247087976,2.4607434064264413,0.0,0.0,0.0,0.0,0.0,0.0,0.0,0.0,0.0,0.0,0.0,0.0,7224.432698746439,0.0,
1.198,2.478966300117632,2.4472536230006856,2.4570742175349887,0.0,0.0,-0.003636042453236291,2.4610980468844352,0.0,0.0,0.0,0.0,0.0,0.0,0.0,0.0,0.0,0.0,0.0,0.0,7321.748654295574,0.0,
1.2135,2.4793333111124918,2.4476084223225065,2.457424104154467,0.0,0.0,-0.003638045093235972,2.4614552791964885,0.0,0.0,0.0,0.0,0.0,0.0,0.0,0.0,0.0,0.0,0.0,0.0,7418.521248386808,0.0,
1.2291,2.4797077365260654,2.4479703842337965,2.457781049654523,0.0,0.0,-0.0036400898127621974,2.4618197234714616,0.0,0.0,0.0,0.0,0.0,0.0,0.0,0.0,0.0,0.0,0.0,0.0,7516.000384819836,0.0,
1.2446,2.4800847872648273,2.4483348788434496,2.4581404881267943,0.0,0.0,-0.0036421505260508078,2.462186718078357,0.0,0.0,0.0,0.0,0.0,0.0,0.0,0.0,0.0,0.0,0.0,0.0,7612.937552932254,0.0,
1.2602,2.480469340002167,2.4487066202094967,2.4585070680505057,0.0,0.0,-0.0036442539548264792,2.4625610094207233,0.0,0.0,0.0,0.0,0.0,0.0,0.0,0.0,0.0,0.0,0.0,0.0,7710.584794610369,0.0,
1.2758,2.480858990168182,2.449083283596609,2.4588784967320927,0.0,0.0,-0.0036463870332775995,2.4629402568322942,0.0,0.0,0.0,0.0,0.0,0.0,0.0,0.0,0.0,0.0,0.0,0.0,7808.318232236713,0.0,
1.2913,2.4812512028740086,2.4494624184311293,2.4592523575099046,0.0,0.0,-0.0036485359387738287,2.4633219929383476,0.0,0.0,0.0,0.0,0.0,0.0,0.0,0.0,0.0,0.0,0.0,0.0,7905.511789134239,0.0,
1.3069,2.48165105095988,2.4498489281763094,2.459633485440414,0.0,0.0,-0.0036507285376876954,2.4637111548588675,0.0,0.0,0.0,0.0,0.0,0.0,0.0,0.0,0.0,0.0,0.0,0.0,8003.4208382574,0.0,
1.3224,2.482053420273739,2.450237869049624,2.4600170053819275,0.0,0.0,-0.0036529368594068303,2.4641027649017633,0.0,0.0,0.0,0.0,0.0,0.0,0.0,0.0,0.0,0.0,0.0,0.0,8100.791394949815,0.0,
1.338,2.4824635150672214,2.450634271382129,2.460407877352618,0.0,0.0,-0.0036551895415347993,2.4645018879339893,0.0,0.0,0.0,0.0,0.0,0.0,0.0,0.0,0.0,0.0,0.0,0.0,8198.881131903925,0.0,
1.3535,2.4828760901781566,2.451033064901049,2.460801101614061,0.0,0.0,-0.0036574578477415643,2.4649034188977557,0.0,0.0,0.0,0.0,0.0,0.0,0.0,0.0,0.0,0.0,0.0,0.0,8296.433763958026,0.0,
1.3691,2.483296481909618,2.45143940741157,2.461201763733558,0.0,0.0,-0.0036597711942938254,2.4653125510182488,0.0,0.0,0.0,0.0,0.0,0.0,0.0,0.0,0.0,0.0,0.0,0.0,8394.709329584275,0.0,
1.3847,2.4837220580408026,2.451850754348209,2.4616073544511323,0.0,0.0,-0.003662115195386552,2.465726722280048,0.0,0.0,0.0,0.0,0.0,0.0,0.0,0.0,0.0,0.0,0.0,0.0,8493.08006526255,0.0,
1.4002,2.4841500538147643,2.4522644332062162,2.462015238503101,0.0,0.0,-0.0036644746828449924,2.4661432418413605,0.0,0.0,0.0,0.0,0.0,0.0,0.0,0.0,0.0,0.0,0.0,0.0,8590.915779634863,0.0,
1.4158,2.4845860050674364,2.4526857943846396,2.4624306911232288,0.0,0.0,-0.003666880256676099,2.466567496858435,0.0,0.0,0.0,0.0,0.0,0.0,0.0,0.0,0.0,0.0,0.0,0.0,8689.480189570264,0.0,
1.4313,2.4850243360629842,2.453109448492736,2.4628483982755984,0.0,0.0,-0.003669301232307222,2.466994060943773,0.0,0.0,0.0,0.0,0.0,0.0,0.0,0.0,0.0,0.0,0.0,0.0,8787.510966847754,0.0,
1.4469,2.485470716372925,2.4535408749987835,2.4632737622883276,0.0,0.0,-0.00367176900807783,2.467428451220012,0.0,0.0,0.0,0.0,0.0,0.0,0.0,0.0,0.0,0.0,0.0,0.0,8886.274363137756,0.0,
1.4625,2.4859223487681392,2.4539773700399223,2.4637041170055047,0.0,0.0,-0.0036742682280321726,2.467867945271189,0.0,0.0,0.0,0.0,0.0,0.0,0.0,0.0,0.0,0.0,0.0,0.0,8985.139595796754,0.0,
1.478,2.486376301757975,2.454416100179647,2.4641366686840436,0.0,0.0,-0.003676782733769269,2.468309690207222,0.0,0.0,0.0,0.0,0.0,0.0,0.0,0.0,0.0,0.0,0.0,0.0,9083.47328442552,0.0,
1.4936,2.486838447066881,2.4548627399612273,2.464577011722093,0.0,0.0,-0.0036793451380977144,2.4687593995834005,0.0,0.0,0.0,0.0,0.0,0.0,0.0,0.0,0.0,0.0,0.0,0.0,9182.545617185002,0.0,
1.5091,2.4873028740939036,2.455311576810455,2.46501951384746,0.0,0.0,-0.0036819227584003883,2.4692113215839395,0.0,0.0,0.0,0.0,0.0,0.0,0.0,0.0,0.0,0.0,0.0,0.0,9281.087800207195,0.0,
1.5247,2.4877755901056924,2.455768416050347,2.465469898209589,0.0,0.0,-0.003684549027098445,2.4696713014552096,0.0,0.0,0.0,0.0,0.0,0.0,0.0,0.0,0.0,0.0,0.0,0.0,9380.372731302768,0.0,
1.5402,2.4882505493726734,2.456227414714879,2.4659224041596595,0.0,0.0,-0.003687190448049005,2.470133456082404,0.0,0.0,0.0,0.0,0.0,0.0,0.0,0.0,0.0,0.0,0.0,0.0,9479.128910535428,0.0,
1.5558,2.4887338954612748,2.4566945096239365,2.4663828842929894,0.0,0.0,-0.003689881282264292,2.470603763126067,0.0,0.0,0.0,0.0,0.0,0.0,0.0,0.0,0.0,0.0,0.0,0.0,9578.632017001693,0.0,
1.5714,2.4892225965442245,2.457166770500908,2.4668484495082583,0.0,0.0,-0.00369260477388293,2.4710792721844634,0.0,0.0,0.0,0.0,0.0,0.0,0.0,0.0,0.0,0.0,0.0,0.0,9678.24668774176,0.0,
1.5869,2.4897134839096333,2.457641135011748,2.467316080711143,0.0,0.0,-0.0036953433337590315,2.471556899877508,0.0,0.0,0.0,0.0,0.0,0.0,0.0,0.0,0.0,0.0,0.0,0.0,9777.334714128916,0.0,
1.6025,2.4902129072611037,2.4581237388228647,2.4677918262199476,0.0,0.0,-0.0036981324846017322,2.472042824101305,0.0,0.0,0.0,0.0,0.0,0.0,0.0,0.0,0.0,0.0,0.0,0.0,9877.176088508879,0.0,
1.618,2.490714479480526,2.458608409607125,2.4682696011654017,0.0,0.0,-0.0037009366557327838,2.472530830084351,0.0,0.0,0.0,0.0,0.0,0.0,0.0,0.0,0.0,0.0,0.0,0.0,9976.492228847315,0.0,
1.6336,2.491224688557965,2.459101416407896,2.4687555851326115,0.0,0.0,-0.003703792222152162,2.4730272300328244,0.0,0.0,0.0,0.0,0.0,0.0,0.0,0.0,0.0,0.0,0.0,0.0,10076.566092634946,0.0,
1.6491,2.491737009514181,2.4595964539192128,2.4692435623698294,0.0,0.0,-0.0037066627674160143,2.4735256752677413,0.0,0.0,0.0,0.0,0.0,0.0,0.0,0.0,0.0,0.0,0.0,0.0,10176.11613910799,0.0,
1.6647,2.492258069457435,2.4600999253483047,2.469739844490992,0.0,0.0,-0.003709585528802807,2.47403261309891,0.0,0.0,0.0,0.0,0.0,0.0,0.0,0.0,0.0,0.0,0.0,0.0,10276.428366351909,0.0,
