energies(eV),real_xx,real_yy,real_zz,real_xy,real_yz,real_xz,real_ave,imag_xx,imag_yy,imag_zz,imag_xy,imag_yz,imag_xz,imag_ave,absorption_xx,absorption_yy,absorption_zz,absorption_xy,absorption_yz,absorption_xz,absorption_ave,band_gap
0.0,2.4881596555825327,2.4838642809681453,2.4794478154600714,0.0,0.0,0.0,2.4838239173369163,0.0,0.0,0.0,0.0,0.0,0.0,0.0,0.0,0.0,0.0,0.0,0.0,0.0,0.0,9.6661
0.0171,2.488161181853876,2.4838658042634583,2.4794493032884093,0.0,0.0,0.0,2.4838254298019145,0.0,0.0,0.0,0.0,0.0,0.0,0.0,0.0,0.0,0.0,0.0,0.0,0.0,0.0,
0.0341,2.488165725040565,2.4838703385914136,2.4794537320427894,0.0,0.0,0.0,2.4838299318915893,0.0,0.0,0.0,0.0,0.0,0.0,0.0,0.0,0.0,0.0,0.0,0.0,0.0,0.0,
0.0512,2.488173338660442,2.483877937365269,2.479461153891154,0.0,0.0,0.0,2.4838374766389553,0.0,0.0,0.0,0.0,0.0,0.0,0.0,0.0,0.0,0.0,0.0,0.0,0.0,0.0,
0.0682,2.4881839337787,2.483888511823231,2.479471482135601,0.0,0.0,0.0,2.4838479759125107,0.0,0.0,0.0,0.0,0.0,0.0,0.0,0.0,0.0,0.0,0.0,0.0,0.0,0.0,
0.0853,2.4881976352037674,2.4839021865297415,2.479484838436337,0.0,0.0,0.0,2.4838615533899486,0.0,0.0,0.0,0.0,0.0,0.0,0.0,0.0,0.0,0.0,0.0,0.0,0.0,0.0,
0.1023,2.4882142828891167,2.4839188017496356,2.4795010667725066,0.0,0.0,0.0,2.4838780504704197,0.0,0.0,0.0,0.0,0.0,0.0,0.0,0.0,0.0,0.0,0.0,0.0,0.0,0.0,
0.1194,2.4882340729412515,2.483938553206043,2.4795203583036955,0.0,0.0,0.0,2.483897661483663,0.0,0.0,0.0,0.0,0.0,0.0,0.0,0.0,0.0,0.0,0.0,0.0,0.0,0.0,
0.1365,2.4882569166585906,2.4839613523693087,2.479542626554288,0.0,0.0,0.0,2.4839202985273956,0.0,0.0,0.0,0.0,0.0,0.0,0.0,0.0,0.0,0.0,0.0,0.0,0.0,0.0,
0.1535,2.4882826540587253,2.4839870395677934,2.4795677155626388,0.0,0.0,0.0,2.4839458030630523,0.0,0.0,0.0,0.0,0.0,0.0,0.0,0.0,0.0,0.0,0.0,0.0,0.0,0.0,
0.1706,2.4883115883232882,2.4840159173903595,2.4795959208615335,0.0,0.0,0.0,2.4839744755250606,0.0,0.0,0.0,0.0,0.0,0.0,0.0,0.0,0.0,0.0,0.0,0.0,0.0,0.0,
0.1876,2.4883433814709264,2.4840476485133416,2.4796269129725657,0.0,0.0,0.0,2.484005980985611,0.0,0.0,0.0,0.0,0.0,0.0,0.0,0.0,0.0,0.0,0.0,0.0,0.0,0.0,
0.2047,2.488378408018906,2.4840826067216373,2.479661056963445,0.0,0.0,0.0,2.4840406905679964,0.0,0.0,0.0,0.0,0.0,0.0,0.0,0.0,0.0,0.0,0.0,0.0,0.0,0.0,
0.2217,2.4884162588219656,2.4841203836663386,2.479697953983411,0.0,0.0,0.0,2.484078198823905,0.0,0.0,0.0,0.0,0.0,0.0,0.0,0.0,0.0,0.0,0.0,0.0,0.0,0.0,
0.2388,2.488457379755545,2.4841614243507535,2.479738038656409,0.0,0.0,0.0,2.4841189475875693,0.0,0.0,0.0,0.0,0.0,0.0,0.0,0.0,0.0,0.0,0.0,0.0,0.0,0.0,
0.2559,2.488501557724376,2.4842055160931045,2.479781103239233,0.0,0.0,0.0,2.484162725685571,0.0,0.0,0.0,0.0,0.0,0.0,0.0,0.0,0.0,0.0,0.0,0.0,0.0,0.0,
0.2729,2.488548508273742,2.484252374991538,2.479826870428213,0.0,0.0,0.0,2.484209251231164,0.0,0.0,0.0,0.0,0.0,0.0,0.0,0.0,0.0,0.0,0.0,0.0,0.0,0.0,
0.29,2.4885987844726944,2.484302553032903,2.479875879332689,0.0,0.0,0.0,2.484259072279429,0.0,0.0,0.0,0.0,0.0,0.0,0.0,0.0,0.0,0.0,0.0,0.0,0.0,0.0,
0.307,2.488651799045247,2.4843554640850023,2.4799275574588338,0.0,0.0,0.0,2.4843116068630278,0.0,0.0,0.0,0.0,0.0,0.0,0.0,0.0,0.0,0.0,0.0,0.0,0.0,0.0,
0.3241,2.4887081764938337,2.4844117314278584,2.4799825135434124,0.0,0.0,0.0,2.484367473821701,0.0,0.0,0.0,0.0,0.0,0.0,0.0,0.0,0.0,0.0,0.0,0.0,0.0,0.0,
0.3411,2.4887672582740707,2.484470697800166,2.4800401056213235,0.0,0.0,0.0,2.4844260205651865,0.0,0.0,0.0,0.0,0.0,0.0,0.0,0.0,0.0,0.0,0.0,0.0,0.0,0.0,
0.3582,2.4888297403593804,2.484533057812538,2.48010101209237,0.0,0.0,0.0,2.4844879367547628,0.0,0.0,0.0,0.0,0.0,0.0,0.0,0.0,0.0,0.0,0.0,0.0,0.0,0.0,
0.3753,2.4888952851048245,2.4845984744760483,2.480164903798027,0.0,0.0,0.0,2.4845528877929666,0.0,0.0,0.0,0.0,0.0,0.0,0.0,0.0,0.0,0.0,0.0,0.0,0.0,0.0,
0.3923,2.4889634833748806,2.4846665394512506,2.4802313818951793,0.0,0.0,0.0,2.4846204682404367,0.0,0.0,0.0,0.0,0.0,0.0,0.0,0.0,0.0,0.0,0.0,0.0,0.0,0.0,
0.4094,2.4890351385343266,2.4847380545289193,2.4803012294561504,0.0,0.0,0.0,2.484691474173132,0.0,0.0,0.0,0.0,0.0,0.0,0.0,0.0,0.0,0.0,0.0,0.0,0.0,0.0,
0.4264,2.48910941358111,2.484812184339331,2.480373630563227,0.0,0.0,0.0,2.4847650761612226,0.0,0.0,0.0,0.0,0.0,0.0,0.0,0.0,0.0,0.0,0.0,0.0,0.0,0.0,
0.4435,2.4891871834639714,2.4848898021162076,2.480449438058743,0.0,0.0,0.0,2.484842141212974,0.0,0.0,0.0,0.0,0.0,0.0,0.0,0.0,0.0,0.0,0.0,0.0,0.0,0.0,
0.4605,2.4892675397555113,2.4849700012045597,2.4805277664050767,0.0,0.0,0.0,2.484921769121716,0.0,0.0,0.0,0.0,0.0,0.0,0.0,0.0,0.0,0.0,0.0,0.0,0.0,0.0,
0.4776,2.4893514290412213,2.4850537263335504,2.4806095382644764,0.0,0.0,0.0,2.485004897879749,0.0,0.0,0.0,0.0,0.0,0.0,0.0,0.0,0.0,0.0,0.0,0.0,0.0,0.0,
0.4947,2.4894383888790985,2.485140515961029,2.480694302828808,0.0,0.0,0.0,2.4850910692229786,0.0,0.0,0.0,0.0,0.0,0.0,0.0,0.0,0.0,0.0,0.0,0.0,0.0,0.0,
0.5117,2.489527885152601,2.4852298370114045,2.480781539431269,0.0,0.0,0.0,2.4851797538650913,0.0,0.0,0.0,0.0,0.0,0.0,0.0,0.0,0.0,0.0,0.0,0.0,0.0,0.0,
0.5288,2.4896209721160045,2.4853227416698216,2.4808722756691477,0.0,0.0,0.0,2.4852719964849914,0.0,0.0,0.0,0.0,0.0,0.0,0.0,0.0,0.0,0.0,0.0,0.0,0.0,0.0,
0.5458,2.4897165624254995,2.485418144716786,2.480965451618002,0.0,0.0,0.0,2.485366719586762,0.0,0.0,0.0,0.0,0.0,0.0,0.0,0.0,0.0,0.0,0.0,0.0,0.0,0.0,
0.5629,2.4898157821231983,2.4855171699830105,2.4810621648380167,0.0,0.0,0.0,2.4854650389814084,0.0,0.0,0.0,0.0,0.0,0.0,0.0,0.0,0.0,0.0,0.0,0.0,0.0,0.0,
0.5799,2.489917472230061,2.4856186607550814,2.481161285586173,0.0,0.0,0.0,2.4855658061904387,0.0,0.0,0.0,0.0,0.0,0.0,0.0,0.0,0.0,0.0,0.0,0.0,0.0,0.0,
0.597,2.4900228306440555,2.4857238125770156,2.4812639814499686,0.0,0.0,0.0,2.48567020822368,0.0,0.0,0.0,0.0,0.0,0.0,0.0,0.0,0.0,0.0,0.0,0.0,0.0,0.0,
0.6141,2.4901312697867253,2.4858320390159614,2.4813696796503435,0.0,0.0,0.0,2.485777662817677,0.0,0.0,0.0,0.0,0.0,0.0,0.0,0.0,0.0,0.0,0.0,0.0,0.0,0.0,
0.6311,2.490242130167812,2.485942681869745,2.4814777373250116,0.0,0.0,0.0,2.4858875164541896,0.0,0.0,0.0,0.0,0.0,0.0,0.0,0.0,0.0,0.0,0.0,0.0,0.0,0.0,
0.6482,2.4903567177118022,2.4860570444940606,2.4815894273350514,0.0,0.0,0.0,2.486001063180305,0.0,0.0,0.0,0.0,0.0,0.0,0.0,0.0,0.0,0.0,0.0,0.0,0.0,0.0,
0.6652,2.4904736939318015,2.486173791022791,2.48170344499069,0.0,0.0,0.0,2.4861169766484275,0.0,0.0,0.0,0.0,0.0,0.0,0.0,0.0,0.0,0.0,0.0,0.0,0.0,0.0,
0.6823,2.490594436797583,2.4862942967132637,2.4818211333595688,0.0,0.0,0.0,2.486236622290139,0.0,0.0,0.0,0.0,0.0,0.0,0.0,0.0,0.0,0.0,0.0,0.0,0.0,0.0,
0.6993,2.4907175359238636,2.486417153943749,2.481941117684213,0.0,0.0,0.0,2.4863586025172757,0.0,0.0,0.0,0.0,0.0,0.0,0.0,0.0,0.0,0.0,0.0,0.0,0.0,0.0,
0.7164,2.4908444414091826,2.4865438099561783,2.4820648113178114,0.0,0.0,0.0,2.486484354227724,0.0,0.0,0.0,0.0,0.0,0.0,0.0,0.0,0.0,0.0,0.0,0.0,0.0,0.0,
0.7335,2.4909744401065304,2.4866735529973116,2.4821915191013133,0.0,0.0,0.0,2.4866131707350516,0.0,0.0,0.0,0.0,0.0,0.0,0.0,0.0,0.0,0.0,0.0,0.0,0.0,0.0,
0.7505,2.4911067466660333,2.4868055992552005,2.4823204755169237,0.0,0.0,0.0,2.4867442738127195,0.0,0.0,0.0,0.0,0.0,0.0,0.0,0.0,0.0,0.0,0.0,0.0,0.0,0.0,
0.7676,2.491242919651637,2.486941504219756,2.48245319960666,0.0,0.0,0.0,2.486879207826018,0.0,0.0,0.0,0.0,0.0,0.0,0.0,0.0,0.0,0.0,0.0,0.0,0.0,0.0,
0.7846,2.4913813684446167,2.487079680395161,2.482588140979596,0.0,0.0,0.0,2.487016396606458,0.0,0.0,0.0,0.0,0.0,0.0,0.0,0.0,0.0,0.0,0.0,0.0,0.0,0.0,
0.8017,2.4915237239659116,2.487221755482855,2.4827268891792227,0.0,0.0,0.0,2.4871574562093297,0.0,0.0,0.0,0.0,0.0,0.0,0.0,0.0,0.0,0.0,0.0,0.0,0.0,0.0,
0.8187,2.4916683233813393,2.4873660699161535,2.4828678234468367,0.0,0.0,0.0,2.4873007389147763,0.0,0.0,0.0,0.0,0.0,0.0,0.0,0.0,0.0,0.0,0.0,0.0,0.0,0.0,
0.8358,2.491816870067945,2.4875143237065345,2.483012603921156,0.0,0.0,0.0,2.4874479325652117,0.0,0.0,0.0,0.0,0.0,0.0,0.0,0.0,0.0,0.0,0.0,0.0,0.0,0.0,
0.8529,2.491968524784336,2.487665679257539,2.4831604125653617,0.0,0.0,0.0,2.4875982055357455,0.0,0.0,0.0,0.0,0.0,0.0,0.0,0.0,0.0,0.0,0.0,0.0,0.0,0.0,
0.8699,2.4921223757408257,2.4878192265705223,2.483310360657046,0.0,0.0,0.0,2.487750654322798,0.0,0.0,0.0,0.0,0.0,0.0,0.0,0.0,0.0,0.0,0.0,0.0,0.0,0.0,
0.887,2.492280235300801,2.4879767744228305,2.4834642145165677,0.0,0.0,0.0,2.487907074746733,0.0,0.0,0.0,0.0,0.0,0.0,0.0,0.0,0.0,0.0,0.0,0.0,0.0,0.0,
0.904,2.492440259535368,2.488136482517418,2.4836201769367725,0.0,0.0,0.0,2.4880656396631866,0.0,0.0,0.0,0.0,0.0,0.0,0.0,0.0,0.0,0.0,0.0,0.0,0.0,0.0,
0.9211,2.4926043335315846,2.4883002322076533,2.483780085086326,0.0,0.0,0.0,2.4882282169418546,0.0,0.0,0.0,0.0,0.0,0.0,0.0,0.0,0.0,0.0,0.0,0.0,0.0,0.0,
0.9381,2.492770540773466,2.488466110756078,2.4839420710386286,0.0,0.0,0.0,2.4883929075227242,0.0,0.0,0.0,0.0,0.0,0.0,0.0,0.0,0.0,0.0,0.0,0.0,0.0,0.0,
0.9552,2.4929408391865984,2.488636072206358,2.4841080429193534,0.0,0.0,0.0,2.4885616514374367,0.0,0.0,0.0,0.0,0.0,0.0,0.0,0.0,0.0,0.0,0.0,0.0,0.0,0.0,
0.9723,2.4931142628145846,2.4888091525016938,2.4842770592265317,0.0,0.0,0.0,2.48873349151427,0.0,0.0,0.0,0.0,0.0,0.0,0.0,0.0,0.0,0.0,0.0,0.0,0.0,0.0,
0.9893,2.49328977275211,2.488984314784809,2.484448107393616,0.0,0.0,0.0,2.4889073983101784,0.0,0.0,0.0,0.0,0.0,0.0,0.0,0.0,0.0,0.0,0.0,0.0,0.0,0.0,
1.0064,2.493469436515269,2.4891636224658527,2.48462320229934,0.0,0.0,0.0,2.4890854204268207,0.0,0.0,0.0,0.0,0.0,0.0,0.0,0.0,0.0,0.0,0.0,0.0,0.0,0.0,
1.0234,2.493651155494591,2.489344981083983,2.4848002986236866,0.0,0.0,0.0,2.4892654784007537,0.0,0.0,0.0,0.0,0.0,0.0,0.0,0.0,0.0,0.0,0.0,0.0,0.0,0.0,
1.0405,2.493837070352235,2.4895305270452512,2.4849814824931773,0.0,0.0,0.0,2.4894496932968875,0.0,0.0,0.0,0.0,0.0,0.0,0.0,0.0,0.0,0.0,0.0,0.0,0.0,0.0,
1.0575,2.494025009464549,2.489718093023816,2.4851646374643126,0.0,0.0,0.0,2.489635913317559,0.0,0.0,0.0,0.0,0.0,0.0,0.0,0.0,0.0,0.0,0.0,0.0,0.0,0.0,
1.0746,2.494217186770701,2.4899098885518907,2.4853519210352855,0.0,0.0,0.0,2.4898263321192924,0.0,0.0,0.0,0.0,0.0,0.0,0.0,0.0,0.0,0.0,0.0,0.0,0.0,0.0,
1.0917,2.494412508882462,2.490104822399619,2.485542267560704,0.0,0.0,0.0,2.4900198662809285,0.0,0.0,0.0,0.0,0.0,0.0,0.0,0.0,0.0,0.0,0.0,0.0,0.0,0.0,
1.1087,2.49460980900599,2.490301730082754,2.485734539898634,0.0,0.0,0.0,2.4902153596624594,0.0,0.0,0.0,0.0,0.0,0.0,0.0,0.0,0.0,0.0,0.0,0.0,0.0,0.0,
1.1258,2.4948114113596995,2.490502931184576,2.4859310029516264,0.0,0.0,0.0,2.4904151151653005,0.0,0.0,0.0,0.0,0.0,0.0,0.0,0.0,0.0,0.0,0.0,0.0,0.0,0.0,
1.1428,2.495014961087898,2.4907060755239945,2.486129361805763,0.0,0.0,0.0,2.490616799472552,0.0,0.0,0.0,0.0,0.0,0.0,0.0,0.0,0.0,0.0,0.0,0.0,0.0,0.0,
1.1599,2.4952228560341654,2.490913556156426,2.4863319530643557,0.0,0.0,0.0,2.4908227884183156,0.0,0.0,0.0,0.0,0.0,0.0,0.0,0.0,0.0,0.0,0.0,0.0,0.0,0.0,
1.1769,2.4954326678450975,2.4911229495552223,2.4865364102327936,0.0,0.0,0.0,2.4910306758777048,0.0,0.0,0.0,0.0,0.0,0.0,0.0,0.0,0.0,0.0,0.0,0.0,0.0,0.0,
1.194,2.4956468681368027,2.4913367223944123,2.486745141754483,0.0,0.0,0.0,2.4912429107618994,0.0,0.0,0.0,0.0,0.0,0.0,0.0,0.0,0.0,0.0,0.0,0.0,0.0,0.0,
1.2111,2.4958642352746168,2.491553655461297,2.4869569570699985,0.0,0.0,0.0,2.491458282601971,0.0,0.0,0.0,0.0,0.0,0.0,0.0,0.0,0.0,0.0,0.0,0.0,0.0,0.0,
1.2281,2.4960834737044264,2.4917724557780163,2.487170593637486,0.0,0.0,0.0,2.4916755077066433,0.0,0.0,0.0,0.0,0.0,0.0,0.0,0.0,0.0,0.0,0.0,0.0,0.0,0.0,
1.2452,2.496307166096468,2.491995700839926,2.487388568037301,0.0,0.0,0.0,2.4918971449912317,0.0,0.0,0.0,0.0,0.0,0.0,0.0,0.0,0.0,0.0,0.0,0.0,0.0,0.0,
1.2622,2.496532699584404,2.4922207829917853,2.487608334093067,0.0,0.0,0.0,2.4921206055564187,0.0,0.0,0.0,0.0,0.0,0.0,0.0,0.0,0.0,0.0,0.0,0.0,0.0,0.0,
1.2793,2.4967627310004845,2.4924503537346983,2.487832480593381,0.0,0.0,0.0,2.492348521776188,0.0,0.0,0.0,0.0,0.0,0.0,0.0,0.0,0.0,0.0,0.0,0.0,0.0,0.0,
1.2963,2.4969945734397605,2.492681731530171,2.488058389269719,0.0,0.0,0.0,2.492578231413217,0.0,0.0,0.0,0.0,0.0,0.0,0.0,0.0,0.0,0.0,0.0,0.0,0.0,0.0,
1.3134,2.4972309580606034,2.492917642048127,2.488288721274003,0.0,0.0,0.0,2.492812440460911,0.0,0.0,0.0,0.0,0.0,0.0,0.0,0.0,0.0,0.0,0.0,0.0,0.0,0.0,
1.3305,2.497470534067678,2.493156737184185,2.488522160268102,0.0,0.0,0.0,2.493049810506655,0.0,0.0,0.0,0.0,0.0,0.0,0.0,0.0,0.0,0.0,0.0,0.0,0.0,0.0,
1.3475,2.4977118761741615,2.4933975945002245,2.4887573173907285,0.0,0.0,0.0,2.4932889293550384,0.0,0.0,0.0,0.0,0.0,0.0,0.0,0.0,0.0,0.0,0.0,0.0,0.0,0.0,
1.3646,2.497957827455391,2.493643051344997,2.488996962746153,0.0,0.0,0.0,2.493532613848847,0.0,0.0,0.0,0.0,0.0,0.0,0.0,0.0,0.0,0.0,0.0,0.0,0.0,0.0,
1.3816,2.4982055150673026,2.4938902406339127,2.4892382970358717,0.0,0.0,0.0,2.493778017579029,0.0,0.0,0.0,0.0,0.0,0.0,0.0,0.0,0.0,0.0,0.0,0.0,0.0,0.0,
1.3987,2.4984578568430997,2.4941420743136415,2.489484163135449,0.0,0.0,0.0,2.49402803143073,0.0,0.0,0.0,0.0,0.0,0.0,0.0,0.0,0.0,0.0,0.0,0.0,0.0,0.0,
1.4157,2.498711905300528,2.494395610820395,2.489731689087466,0.0,0.0,0.0,2.494279735069463,0.0,0.0,0.0,0.0,0.0,0.0,0.0,0.0,0.0,0.0,0.0,0.0,0.0,0.0,
1.4328,2.498970653211889,2.494653836878787,2.4899837907100117,0.0,0.0,0.0,2.4945360936002294,0.0,0.0,0.0,0.0,0.0,0.0,0.0,0.0,0.0,0.0,0.0,0.0,0.0,0.0,
1.4499,2.499232619605307,2.494915274483066,2.490239024925801,0.0,0.0,0.0,2.4947956396713913,0.0,0.0,0.0,0.0,0.0,0.0,0.0,0.0,0.0,0.0,0.0,0.0,0.0,0.0,
1.4669,2.499496248385845,2.495178370665942,2.4904958755375004,0.0,0.0,0.0,2.4950568315297628,0.0,0.0,0.0,0.0,0.0,0.0,0.0,0.0,0.0,0.0,0.0,0.0,0.0,0.0,
1.484,2.499764645195468,2.4954462247776115,2.490757368215624,0.0,0.0,0.0,2.4953227460629015,0.0,0.0,0.0,0.0,0.0,0.0,0.0,0.0,0.0,0.0,0.0,0.0,0.0,0.0,
1.501,2.500034675038174,2.4957157081432997,2.4910204484846172,0.0,0.0,0.0,2.49559027722203,0.0,0.0,0.0,0.0,0.0,0.0,0.0,0.0,0.0,0.0,0.0,0.0,0.0,0.0,
1.5181,2.500309518970057,2.49598999536323,2.4912882154062506,0.0,0.0,0.0,2.495862576579846,0.0,0.0,0.0,0.0,0.0,0.0,0.0,0.0,0.0,0.0,0.0,0.0,0.0,0.0,
1.5351,2.5005859666972707,2.4962658826278448,2.491557541222715,0.0,0.0,0.0,2.4961364635159433,0.0,0.0,0.0,0.0,0.0,0.0,0.0,0.0,0.0,0.0,0.0,0.0,0.0,0.0,
1.5522,2.5008672748887455,2.496546619984832,2.4918315985747035,0.0,0.0,0.0,2.4964151644827606,0.0,0.0,0.0,0.0,0.0,0.0,0.0,0.0,0.0,0.0,0.0,0.0,0.0,0.0,
1.5693,2.5011518312763137,2.496830598414053,2.492108816587319,0.0,0.0,0.0,2.496697082092562,0.0,0.0,0.0,0.0,0.0,0.0,0.0,0.0,0.0,0.0,0.0,0.0,0.0,0.0,
1.5863,2.501437947776062,2.497116133245548,2.4923875506113373,0.0,0.0,0.0,2.4969805438776493,0.0,0.0,0.0,0.0,0.0,0.0,0.0,0.0,0.0,0.0,0.0,0.0,0.0,0.0,
1.6034,2.501728994971378,2.497406588190721,2.4926710841265614,0.0,0.0,0.0,2.4972688890962202,0.0,0.0,0.0,0.0,0.0,0.0,0.0,0.0,0.0,0.0,0.0,0.0,0.0,0.0,
1.6204,2.5020215733280073,2.4976985706131685,2.492956105225817,0.0,0.0,0.0,2.4975587497223306,0.0,0.0,0.0,0.0,0.0,0.0,0.0,0.0,0.0,0.0,0.0,0.0,0.0,0.0,
1.6375,2.5023191295616414,2.4979955201878346,2.4932459714583306,0.0,0.0,0.0,2.4978535404026023,0.0,0.0,0.0,0.0,0.0,0.0,0.0,0.0,0.0,0.0,0.0,0.0,0.0,0.0,
1.6545,2.5026181881189298,2.4982939684268644,2.493537296953378,0.0,0.0,0.0,2.4981498178330575,0.0,0.0,0.0,0.0,0.0,0.0,0.0,0.0,0.0,0.0,0.0,0.0,0.0,0.0,
1.6716,2.502922272064522,2.498597431184087,2.4938335135341716,0.0,0.0,0.0,2.4984510722609268,0.0,0.0,0.0,0.0,0.0,0.0,0.0,0.0,0.0,0.0,0.0,0.0,0.0,0.0,
1.6887,2.5032296366076174,2.498904167206268,2.4941329213695225,0.0,0.0,0.0,2.498755575061136,0.0,0.0,0.0,0.0,0.0,0.0,0.0,0.0,0.0,0.0,0.0,0.0,0.0,0.0,
1.7057,2.5035384603863484,2.49921235883997,2.494433746140716,0.0,0.0,0.0,2.4990615217890113,0.0,0.0,0.0,0.0,0.0,0.0,0.0,0.0,0.0,0.0,0.0,0.0,0.0,0.0,
1.7228,2.5038523815192155,2.4995256367346625,2.4947395315856866,0.0,0.0,0.0,2.4993725166131884,0.0,0.0,0.0,0.0,0.0,0.0,0.0,0.0,0.0,0.0,0.0,0.0,0.0,0.0,
1.7398,2.5041677333296795,2.4998403417048607,2.495046705906299,0.0,0.0,0.0,2.49968492698028,0.0,0.0,0.0,0.0,0.0,0.0,0.0,0.0,0.0,0.0,0.0,0.0,0.0,0.0,
1.7569,2.504488230850246,2.5001601811402363,2.4953588876477433,0.0,0.0,0.0,2.500002433212742,0.0,0.0,0.0,0.0,0.0,0.0,0.0,0.0,0.0,0.0,0.0,0.0,0.0,0.0,
1.7739,2.5048101306008173,2.5004814192244265,2.495672430307698,0.0,0.0,0.0,2.5003213267109805,0.0,0.0,0.0,0.0,0.0,0.0,0.0,0.0,0.0,0.0,0.0,0.0,0.0,0.0,
1.791,2.5051372247630743,2.5008078403209284,2.4959910274605646,0.0,0.0,0.0,2.5006453641815223,0.0,0.0,0.0,0.0,0.0,0.0,0.0,0.0,0.0,0.0,0.0,0.0,0.0,0.0,
1.8081,2.5054676346879194,2.501137569616229,2.49631284905741,0.0,0.0,0.0,2.5009726844538527,0.0,0.0,0.0,0.0,0.0,0.0,0.0,0.0,0.0,0.0,0.0,0.0,0.0,0.0,
1.8251,2.5057994043354554,2.501468655082319,2.4966359897879897,0.0,0.0,0.0,2.5013013497352548,0.0,0.0,0.0,0.0,0.0,0.0,0.0,0.0,0.0,0.0,0.0,0.0,0.0,0.0,
1.8422,2.506136442177861,2.5018049971067207,2.496964256308417,0.0,0.0,0.0,2.501635231864333,0.0,0.0,0.0,0.0,0.0,0.0,0.0,0.0,0.0,0.0,0.0,0.0,0.0,0.0,
1.8592,2.5064748115685473,2.5021426671455136,2.497293814260072,0.0,0.0,0.0,2.5019704309913777,0.0,0.0,0.0,0.0,0.0,0.0,0.0,0.0,0.0,0.0,0.0,0.0,0.0,0.0,
1.8763,2.5068184987408575,2.5024856431679137,2.4976285459056218,0.0,0.0,0.0,2.502310895938131,0.0,0.0,0.0,0.0,0.0,0.0,0.0,0.0,0.0,0.0,0.0,0.0,0.0,0.0,
1.8933,2.5071634893950905,2.5028299191551353,2.4979645413804574,0.0,0.0,0.0,2.5026526499768944,0.0,0.0,0.0,0.0,0.0,0.0,0.0,0.0,0.0,0.0,0.0,0.0,0.0,0.0,
1.9104,2.5075138477800154,2.503179550910673,2.4983057587936326,0.0,0.0,0.0,2.50299971916144,0.0,0.0,0.0,0.0,0.0,0.0,0.0,0.0,0.0,0.0,0.0,0.0,0.0,0.0,
1.9275,2.5078675599400375,2.5035325286219856,2.49865023651125,0.0,0.0,0.0,2.503350108357758,0.0,0.0,0.0,0.0,0.0,0.0,0.0,0.0,0.0,0.0,0.0,0.0,0.0,0.0,
1.9445,2.5082225336427992,2.503886764381918,2.498995936802154,0.0,0.0,0.0,2.50370174494229,0.0,0.0,0.0,0.0,0.0,0.0,0.0,0.0,0.0,0.0,0.0,0.0,0.0,0.0,
1.9616,2.508582950764315,2.5042464313457176,2.499346932117993,0.0,0.0,0.0,2.504058771409342,0.0,0.0,0.0,0.0,0.0,0.0,0.0,0.0,0.0,0.0,0.0,0.0,0.0,0.0,
1.9786,2.508944601629815,2.504607328573134,2.4996991226539023,0.0,0.0,0.0,2.5044170176189504,0.0,0.0,0.0,0.0,0.0,0.0,0.0,0.0,0.0,0.0,0.0,0.0,0.0,0.0,
1.9957,2.5093117467911688,2.5049737077095227,2.5000566573306786,0.0,0.0,0.0,2.50478070394379,0.0,0.0,0.0,0.0,0.0,0.0,0.0,0.0,0.0,0.0,0.0,0.0,0.0,0.0,
2.0127,2.5096800980037592,2.5053412894292277,2.500415359972683,0.0,0.0,0.0,2.5051455824685567,0.0,0.0,0.0,0.0,0.0,0.0,0.0,0.0,0.0,0.0,0.0,0.0,0.0,0.0,
2.0298,2.5100539947692573,2.5057144041397583,2.5007794562281056,0.0,0.0,0.0,2.5055159517123737,0.0,0.0,0.0,0.0,0.0,0.0,0.0,0.0,0.0,0.0,0.0,0.0,0.0,0.0,
2.0469,2.510431286261543,2.506090905475906,2.5011468514021598,0.0,0.0,0.0,2.5058896810465363,0.0,0.0,0.0,0.0,0.0,0.0,0.0,0.0,0.0,0.0,0.0,0.0,0.0,0.0,
2.0639,2.510809742423276,2.506468568029809,2.501515373802709,0.0,0.0,0.0,2.506264561418598,0.0,0.0,0.0,0.0,0.0,0.0,0.0,0.0,0.0,0.0,0.0,0.0,0.0,0.0,
2.081,2.5111938218235688,2.5068518409910165,2.501889364778272,0.0,0.0,0.0,2.506645009197619,0.0,0.0,0.0,0.0,0.0,0.0,0.0,0.0,0.0,0.0,0.0,0.0,0.0,0.0,
2.098,2.5115790384634957,2.5072362477493755,2.502264455969132,0.0,0.0,0.0,2.5070265807273344,0.0,0.0,0.0,0.0,0.0,0.0,0.0,0.0,0.0,0.0,0.0,0.0,0.0,0.0,
2.1151,2.511969930572484,2.5076263169620217,2.5026450661208193,0.0,0.0,0.0,2.5074137712184417,0.0,0.0,0.0,0.0,0.0,0.0,0.0,0.0,0.0,0.0,0.0,0.0,0.0,0.0,
2.1321,2.512361932595657,2.508017492654127,2.503026749573103,0.0,0.0,0.0,2.5078020582742955,0.0,0.0,0.0,0.0,0.0,0.0,0.0,0.0,0.0,0.0,0.0,0.0,0.0,0.0,
2.1492,2.5127596627169453,2.5084143832426395,2.5034140027457905,0.0,0.0,0.0,2.508196016235125,0.0,0.0,0.0,0.0,0.0,0.0,0.0,0.0,0.0,0.0,0.0,0.0,0.0,0.0,
2.1663,2.513160831556065,2.508814704137362,2.503804596295171,0.0,0.0,0.0,2.508593377329533,0.0,0.0,0.0,0.0,0.0,0.0,0.0,0.0,0.0,0.0,0.0,0.0,0.0,0.0,
2.1833,2.5135630694761733,2.5092160906874037,2.504196222913854,0.0,0.0,0.0,2.5089917943591433,0.0,0.0,0.0,0.0,0.0,0.0,0.0,0.0,0.0,0.0,0.0,0.0,0.0,0.0,
2.2004,2.5139711152758633,2.5096232716278926,2.504593496179806,0.0,0.0,0.0,2.5093959610278542,0.0,0.0,0.0,0.0,0.0,0.0,0.0,0.0,0.0,0.0,0.0,0.0,0.0,0.0,
2.2174,2.514380203090359,2.5100314911617474,2.5049917758397338,0.0,0.0,0.0,2.50980115669728,0.0,0.0,0.0,0.0,0.0,0.0,0.0,0.0,0.0,0.0,0.0,0.0,0.0,0.0,
