energies(eV),real_xx,real_yy,real_zz,real_xy,real_yz,real_xz,real_ave,imag_xx,imag_yy,imag_zz,imag_xy,imag_yz,imag_xz,imag_ave,absorption_xx,absorption_yy,absorption_zz,absorption_xy,absorption_yz,absorption_xz,absorption_ave,band_gap
0.0,2.4477456562773376,2.4477456562773376,2.6581375005931855,0.0,0.0,0.0,2.517876271049287,0.0,0.0,0.0,0.0,0.0,0.0,0.0,0.0,0.0,0.0,0.0,0.0,0.0,0.0,6.1292
0.0152,2.447748237201969,2.447748237201969,2.658140584622772,0.0,0.0,0.0,2.51787901967557,0.0,0.0,0.0,0.0,0.0,0.0,0.0,0.0,0.0,0.0,0.0,0.0,0.0,0.0,
0.0304,2.447755980056238,2.447755980056238,2.6581498368026586,0.0,0.0,0.0,2.5178872656383784,0.0,0.0,0.0,0.0,0.0,0.0,0.0,0.0,0.0,0.0,0.0,0.0,0.0,0.0,
0.0456,2.4477688850812878,2.4477688850812878,2.6581652574060666,0.0,0.0,0.0,2.5179010091895475,0.0,0.0,0.0,0.0,0.0,0.0,0.0,0.0,0.0,0.0,0.0,0.0,0.0,0.0,
0.0608,2.4477869526790847,2.4477869526790847,2.6581868468884817,0.0,0.0,0.0,2.5179202507488836,0.0,0.0,0.0,0.0,0.0,0.0,0.0,0.0,0.0,0.0,0.0,0.0,0.0,0.0,
0.076,2.447810183412357,2.447810183412357,2.6582146058875886,0.0,0.0,0.0,2.5179449909041005,0.0,0.0,0.0,0.0,0.0,0.0,0.0,0.0,0.0,0.0,0.0,0.0,0.0,0.0,
0.0912,2.4478385780047893,2.4478385780047893,2.6582485352233673,0.0,0.0,0.0,2.517975230410982,0.0,0.0,0.0,0.0,0.0,0.0,0.0,0.0,0.0,0.0,0.0,0.0,0.0,0.0,
0.1064,2.447872137340967,2.447872137340967,2.658288635898161,0.0,0.0,0.0,2.5180109701933646,0.0,0.0,0.0,0.0,0.0,0.0,0.0,0.0,0.0,0.0,0.0,0.0,0.0,0.0,
0.1216,2.4479108624665455,2.4479108624665455,2.658334909096777,0.0,0.0,0.0,2.518052211343289,0.0,0.0,0.0,0.0,0.0,0.0,0.0,0.0,0.0,0.0,0.0,0.0,0.0,0.0,
0.1368,2.44795475458827,2.44795475458827,2.658387356186512,0.0,0.0,0.0,2.518098955121017,0.0,0.0,0.0,0.0,0.0,0.0,0.0,0.0,0.0,0.0,0.0,0.0,0.0,0.0,
0.152,2.4480038150742214,2.4480038150742214,2.6584459787173547,0.0,0.0,0.0,2.518151202955266,0.0,0.0,0.0,0.0,0.0,0.0,0.0,0.0,0.0,0.0,0.0,0.0,0.0,0.0,
0.1672,2.44805804545378,2.44805804545378,2.6585107784220625,0.0,0.0,0.0,2.5182089564432073,0.0,0.0,0.0,0.0,0.0,0.0,0.0,0.0,0.0,0.0,0.0,0.0,0.0,0.0,
0.1824,2.4481174474178813,2.4481174474178813,2.6585817572163437,0.0,0.0,0.0,2.518272217350702,0.0,0.0,0.0,0.0,0.0,0.0,0.0,0.0,0.0,0.0,0.0,0.0,0.0,0.0,
0.1976,2.448182022819178,2.448182022819178,2.6586589171989607,0.0,0.0,0.0,2.5183409876124387,0.0,0.0,0.0,0.0,0.0,0.0,0.0,0.0,0.0,0.0,0.0,0.0,0.0,0.0,
0.2128,2.4482517736721556,2.4482517736721556,2.658742260651954,0.0,0.0,0.0,2.5184152693320883,0.0,0.0,0.0,0.0,0.0,0.0,0.0,0.0,0.0,0.0,0.0,0.0,0.0,0.0,
0.228,2.4483267021533743,2.4483267021533743,2.658831790040849,0.0,0.0,0.0,2.5184950647825324,0.0,0.0,0.0,0.0,0.0,0.0,0.0,0.0,0.0,0.0,0.0,0.0,0.0,0.0,
0.2432,2.448406810601684,2.448406810601684,2.6589275080147723,0.0,0.0,0.0,2.5185803764060464,0.0,0.0,0.0,0.0,0.0,0.0,0.0,0.0,0.0,0.0,0.0,0.0,0.0,0.0,
0.2584,2.4484921015183843,2.4484921015183843,2.6590294174067775,0.0,0.0,0.0,2.518671206814515,0.0,0.0,0.0,0.0,0.0,0.0,0.0,0.0,0.0,0.0,0.0,0.0,0.0,0.0,
0.2736,2.4485825775675463,2.4485825775675463,2.6591375212340265,0.0,0.0,0.0,2.5187675587897065,0.0,0.0,0.0,0.0,0.0,0.0,0.0,0.0,0.0,0.0,0.0,0.0,0.0,0.0,
0.2888,2.4486782415762196,2.4486782415762196,2.659251822698034,0.0,0.0,0.0,2.518869435283491,0.0,0.0,0.0,0.0,0.0,0.0,0.0,0.0,0.0,0.0,0.0,0.0,0.0,0.0,
0.304,2.448779096534702,2.448779096534702,2.6593723251849832,0.0,0.0,0.0,2.518976839418129,0.0,0.0,0.0,0.0,0.0,0.0,0.0,0.0,0.0,0.0,0.0,0.0,0.0,0.0,
0.3192,2.448885145596845,2.448885145596845,2.659499032265953,0.0,0.0,0.0,2.5190897744865475,0.0,0.0,0.0,0.0,0.0,0.0,0.0,0.0,0.0,0.0,0.0,0.0,0.0,0.0,
0.3344,2.448996392080364,2.448996392080364,2.659631947697272,0.0,0.0,0.0,2.5192082439526664,0.0,0.0,0.0,0.0,0.0,0.0,0.0,0.0,0.0,0.0,0.0,0.0,0.0,0.0,
0.3496,2.4491128394671153,2.4491128394671153,2.6597710754207666,0.0,0.0,0.0,2.5193322514516656,0.0,0.0,0.0,0.0,0.0,0.0,0.0,0.0,0.0,0.0,0.0,0.0,0.0,0.0,
0.3648,2.4492344914035047,2.4492344914035047,2.6599164195641745,0.0,0.0,0.0,2.5194618007903946,0.0,0.0,0.0,0.0,0.0,0.0,0.0,0.0,0.0,0.0,0.0,0.0,0.0,0.0,
0.38,2.449361351700756,2.449361351700756,2.660067984441403,0.0,0.0,0.0,2.5195968959476382,0.0,0.0,0.0,0.0,0.0,0.0,0.0,0.0,0.0,0.0,0.0,0.0,0.0,0.0,
0.3952,2.4494934243353184,2.4494934243353184,2.660225774552967,0.0,0.0,0.0,2.5197375410745346,0.0,0.0,0.0,0.0,0.0,0.0,0.0,0.0,0.0,0.0,0.0,0.0,0.0,0.0,
0.4104,2.4496307134492703,2.4496307134492703,2.660389794586343,0.0,0.0,0.0,2.519883740494961,0.0,0.0,0.0,0.0,0.0,0.0,0.0,0.0,0.0,0.0,0.0,0.0,0.0,0.0,
0.4256,2.449773223350678,2.449773223350678,2.660560049416311,0.0,0.0,0.0,2.520035498705889,0.0,0.0,0.0,0.0,0.0,0.0,0.0,0.0,0.0,0.0,0.0,0.0,0.0,0.0,
0.4408,2.4499209585140465,2.4499209585140465,2.6607365441054607,0.0,0.0,0.0,2.520192820377851,0.0,0.0,0.0,0.0,0.0,0.0,0.0,0.0,0.0,0.0,0.0,0.0,0.0,0.0,
0.456,2.450073923580729,2.450073923580729,2.660919283904536,0.0,0.0,0.0,2.5203557103553313,0.0,0.0,0.0,0.0,0.0,0.0,0.0,0.0,0.0,0.0,0.0,0.0,0.0,0.0,
0.4712,2.4502321233593682,2.4502321233593682,2.6611082742529057,0.0,0.0,0.0,2.5205241736572144,0.0,0.0,0.0,0.0,0.0,0.0,0.0,0.0,0.0,0.0,0.0,0.0,0.0,0.0,
0.4863,2.450394470433248,2.450394470433248,2.6613022158057626,0.0,0.0,0.0,2.520697052224086,0.0,0.0,0.0,0.0,0.0,0.0,0.0,0.0,0.0,0.0,0.0,0.0,0.0,0.0,
0.5015,2.4505631202107194,2.4505631202107194,2.661503683110949,0.0,0.0,0.0,2.5208766411774626,0.0,0.0,0.0,0.0,0.0,0.0,0.0,0.0,0.0,0.0,0.0,0.0,0.0,0.0,
0.5167,2.4507370200992087,2.4507370200992087,2.6617114183798547,0.0,0.0,0.0,2.5210618195260905,0.0,0.0,0.0,0.0,0.0,0.0,0.0,0.0,0.0,0.0,0.0,0.0,0.0,0.0,
0.5319,2.4509161755803133,2.4509161755803133,2.661925427809865,0.0,0.0,0.0,2.5212525929901637,0.0,0.0,0.0,0.0,0.0,0.0,0.0,0.0,0.0,0.0,0.0,0.0,0.0,0.0,
0.5471,2.451100592305437,2.451100592305437,2.6621457177894627,0.0,0.0,0.0,2.5214489674667786,0.0,0.0,0.0,0.0,0.0,0.0,0.0,0.0,0.0,0.0,0.0,0.0,0.0,0.0,
0.5623,2.4512902760963353,2.4512902760963353,2.6623722948987316,0.0,0.0,0.0,2.5216509490304673,0.0,0.0,0.0,0.0,0.0,0.0,0.0,0.0,0.0,0.0,0.0,0.0,0.0,0.0,
0.5775,2.451485232945684,2.451485232945684,2.6626051659099454,0.0,0.0,0.0,2.5218585439337713,0.0,0.0,0.0,0.0,0.0,0.0,0.0,0.0,0.0,0.0,0.0,0.0,0.0,0.0,
0.5927,2.451685469017658,2.451685469017658,2.66284433778812,0.0,0.0,0.0,2.522071758607812,0.0,0.0,0.0,0.0,0.0,0.0,0.0,0.0,0.0,0.0,0.0,0.0,0.0,0.0,
0.6079,2.451890990648542,2.451890990648542,2.6630898176916507,0.0,0.0,0.0,2.5222905996629117,0.0,0.0,0.0,0.0,0.0,0.0,0.0,0.0,0.0,0.0,0.0,0.0,0.0,0.0,
0.6231,2.4521018043473815,2.4521018043473815,2.6633416129728538,0.0,0.0,0.0,2.5225150738892057,0.0,0.0,0.0,0.0,0.0,0.0,0.0,0.0,0.0,0.0,0.0,0.0,0.0,0.0,
0.6383,2.4523179167965448,2.4523179167965448,2.6635997311786506,0.0,0.0,0.0,2.5227451882572467,0.0,0.0,0.0,0.0,0.0,0.0,0.0,0.0,0.0,0.0,0.0,0.0,0.0,0.0,
0.6535,2.45253933485247,2.45253933485247,2.6638641800511857,0.0,0.0,0.0,2.5229809499187086,0.0,0.0,0.0,0.0,0.0,0.0,0.0,0.0,0.0,0.0,0.0,0.0,0.0,0.0,
0.6687,2.4527660655462635,2.4527660655462635,2.6641349675284713,0.0,0.0,0.0,2.5232223662069995,0.0,0.0,0.0,0.0,0.0,0.0,0.0,0.0,0.0,0.0,0.0,0.0,0.0,0.0,
0.6839,2.452998116084455,2.452998116084455,2.6644121017451106,0.0,0.0,0.0,2.523469444638007,0.0,0.0,0.0,0.0,0.0,0.0,0.0,0.0,0.0,0.0,0.0,0.0,0.0,0.0,
0.6991,2.453235493849655,2.453235493849655,2.6646955910329613,0.0,0.0,0.0,2.523722192910757,0.0,0.0,0.0,0.0,0.0,0.0,0.0,0.0,0.0,0.0,0.0,0.0,0.0,0.0,
0.7143,2.453478206401319,2.453478206401319,2.6649854439218323,0.0,0.0,0.0,2.523980618908157,0.0,0.0,0.0,0.0,0.0,0.0,0.0,0.0,0.0,0.0,0.0,0.0,0.0,0.0,
0.7295,2.4537262614764845,2.4537262614764845,2.6652816691402634,0.0,0.0,0.0,2.524244730697744,0.0,0.0,0.0,0.0,0.0,0.0,0.0,0.0,0.0,0.0,0.0,0.0,0.0,0.0,
0.7447,2.453979666990546,2.453979666990546,2.6655842756162342,0.0,0.0,0.0,2.524514536532442,0.0,0.0,0.0,0.0,0.0,0.0,0.0,0.0,0.0,0.0,0.0,0.0,0.0,0.0,
0.7599,2.4542384310380188,2.4542384310380188,2.665893272477958,0.0,0.0,0.0,2.524790044851332,0.0,0.0,0.0,0.0,0.0,0.0,0.0,0.0,0.0,0.0,0.0,0.0,0.0,0.0,
0.7751,2.4545025618933876,2.4545025618933876,2.6662086690546296,0.0,0.0,0.0,2.5250712642804682,0.0,0.0,0.0,0.0,0.0,0.0,0.0,0.0,0.0,0.0,0.0,0.0,0.0,0.0,
0.7903,2.454772068011887,2.454772068011887,2.6665304748773067,0.0,0.0,0.0,2.5253582036336937,0.0,0.0,0.0,0.0,0.0,0.0,0.0,0.0,0.0,0.0,0.0,0.0,0.0,0.0,
0.8055,2.455046958030361,2.455046958030361,2.6668586996796,0.0,0.0,0.0,2.5256508719134407,0.0,0.0,0.0,0.0,0.0,0.0,0.0,0.0,0.0,0.0,0.0,0.0,0.0,0.0,
0.8207,2.455327240768116,2.455327240768116,2.66719335339869,0.0,0.0,0.0,2.5259492783116406,0.0,0.0,0.0,0.0,0.0,0.0,0.0,0.0,0.0,0.0,0.0,0.0,0.0,0.0,
0.8359,2.455612925227861,2.455612925227861,2.667534446176015,0.0,0.0,0.0,2.526253432210579,0.0,0.0,0.0,0.0,0.0,0.0,0.0,0.0,0.0,0.0,0.0,0.0,0.0,0.0,
0.8511,2.4559040205965266,2.4559040205965266,2.6678819883582516,0.0,0.0,0.0,2.5265633431837684,0.0,0.0,0.0,0.0,0.0,0.0,0.0,0.0,0.0,0.0,0.0,0.0,0.0,0.0,
0.8663,2.4562005362462593,2.4562005362462593,2.6682359904982054,0.0,0.0,0.0,2.526879020996908,0.0,0.0,0.0,0.0,0.0,0.0,0.0,0.0,0.0,0.0,0.0,0.0,0.0,0.0,
0.8815,2.45650248173531,2.45650248173531,2.668596463355687,0.0,0.0,0.0,2.527200475608769,0.0,0.0,0.0,0.0,0.0,0.0,0.0,0.0,0.0,0.0,0.0,0.0,0.0,0.0,
0.8967,2.4568098668090483,2.4568098668090483,2.6689634178984716,0.0,0.0,0.0,2.5275277171721893,0.0,0.0,0.0,0.0,0.0,0.0,0.0,0.0,0.0,0.0,0.0,0.0,0.0,0.0,
0.9119,2.457122701400906,2.457122701400906,2.6693368653032694,0.0,0.0,0.0,2.527860756035027,0.0,0.0,0.0,0.0,0.0,0.0,0.0,0.0,0.0,0.0,0.0,0.0,0.0,0.0,
0.9271,2.4574409956334233,2.4574409956334233,2.6697168169566945,0.0,0.0,0.0,2.5281996027411804,0.0,0.0,0.0,0.0,0.0,0.0,0.0,0.0,0.0,0.0,0.0,0.0,0.0,0.0,
0.9423,2.457764759819251,2.457764759819251,2.6701032844562254,0.0,0.0,0.0,2.5285442680315757,0.0,0.0,0.0,0.0,0.0,0.0,0.0,0.0,0.0,0.0,0.0,0.0,0.0,0.0,
0.9575,2.45809400446221,2.45809400446221,2.670496279611267,0.0,0.0,0.0,2.5288947628452294,0.0,0.0,0.0,0.0,0.0,0.0,0.0,0.0,0.0,0.0,0.0,0.0,0.0,0.0,
0.9727,2.4584287402583698,2.4584287402583698,2.670895814444183,0.0,0.0,0.0,2.5292510983203074,0.0,0.0,0.0,0.0,0.0,0.0,0.0,0.0,0.0,0.0,0.0,0.0,0.0,0.0,
0.9879,2.458768978097095,2.458768978097095,2.6713019011912964,0.0,0.0,0.0,2.529613285795162,0.0,0.0,0.0,0.0,0.0,0.0,0.0,0.0,0.0,0.0,0.0,0.0,0.0,0.0,
1.0031,2.459114729062265,2.459114729062265,2.6717145523040564,0.0,0.0,0.0,2.5299813368095285,0.0,0.0,0.0,0.0,0.0,0.0,0.0,0.0,0.0,0.0,0.0,0.0,0.0,0.0,
1.0183,2.459466004433284,2.459466004433284,2.672133780450072,0.0,0.0,0.0,2.530355263105547,0.0,0.0,0.0,0.0,0.0,0.0,0.0,0.0,0.0,0.0,0.0,0.0,0.0,0.0,
1.0335,2.459822815686333,2.459822815686333,2.672559598514208,0.0,0.0,0.0,2.530735076628958,0.0,0.0,0.0,0.0,0.0,0.0,0.0,0.0,0.0,0.0,0.0,0.0,0.0,0.0,
1.0487,2.460185174495532,2.460185174495532,2.672992019599835,0.0,0.0,0.0,2.5311207895303,0.0,0.0,0.0,0.0,0.0,0.0,0.0,0.0,0.0,0.0,0.0,0.0,0.0,0.0,
1.0639,2.4605530927341315,2.4605530927341315,2.6734310570298705,0.0,0.0,0.0,2.5315124141660443,0.0,0.0,0.0,0.0,0.0,0.0,0.0,0.0,0.0,0.0,0.0,0.0,0.0,0.0,
1.0791,2.46092658247575,2.46092658247575,2.673876724348044,0.0,0.0,0.0,2.531909963099848,0.0,0.0,0.0,0.0,0.0,0.0,0.0,0.0,0.0,0.0,0.0,0.0,0.0,0.0,
1.0943,2.461305655995647,2.461305655995647,2.674329035320045,0.0,0.0,0.0,2.5323134491037798,0.0,0.0,0.0,0.0,0.0,0.0,0.0,0.0,0.0,0.0,0.0,0.0,0.0,0.0,
1.1095,2.4616903257719587,2.4616903257719587,2.6747880039347915,0.0,0.0,0.0,2.53272288515957,0.0,0.0,0.0,0.0,0.0,0.0,0.0,0.0,0.0,0.0,0.0,0.0,0.0,0.0,
1.1247,2.4620806044870656,2.4620806044870656,2.675253644405663,0.0,0.0,0.0,2.5331382844599317,0.0,0.0,0.0,0.0,0.0,0.0,0.0,0.0,0.0,0.0,0.0,0.0,0.0,0.0,
1.1399,2.4624765050288637,2.4624765050288637,2.6757259711717847,0.0,0.0,0.0,2.5335596604098374,0.0,0.0,0.0,0.0,0.0,0.0,0.0,0.0,0.0,0.0,0.0,0.0,0.0,0.0,
1.1551,2.4628780404921065,2.4628780404921065,2.676204998899306,0.0,0.0,0.0,2.5339870266278397,0.0,0.0,0.0,0.0,0.0,0.0,0.0,0.0,0.0,0.0,0.0,0.0,0.0,0.0,
1.1703,2.4632852241798893,2.4632852241798893,2.6766907424826982,0.0,0.0,0.0,2.534420396947492,0.0,0.0,0.0,0.0,0.0,0.0,0.0,0.0,0.0,0.0,0.0,0.0,0.0,0.0,
1.1855,2.4636980696049036,2.4636980696049036,2.6771832170461582,0.0,0.0,0.0,2.534859785418655,0.0,0.0,0.0,0.0,0.0,0.0,0.0,0.0,0.0,0.0,0.0,0.0,0.0,0.0,
1.2007,2.4641165904909763,2.4641165904909763,2.677682437944937,0.0,0.0,0.0,2.5353052063089634,0.0,0.0,0.0,0.0,0.0,0.0,0.0,0.0,0.0,0.0,0.0,0.0,0.0,0.0,
1.2159,2.4645408007744973,2.4645408007744973,2.678188420766702,0.0,0.0,0.0,2.535756674105232,0.0,0.0,0.0,0.0,0.0,0.0,0.0,0.0,0.0,0.0,0.0,0.0,0.0,0.0,
1.2311,2.464970714605874,2.464970714605874,2.6787011813329973,0.0,0.0,0.0,2.536214203514915,0.0,0.0,0.0,0.0,0.0,0.0,0.0,0.0,0.0,0.0,0.0,0.0,0.0,0.0,
1.2463,2.4654063463510605,2.4654063463510605,2.679220735700623,0.0,0.0,0.0,2.5366778094675815,0.0,0.0,0.0,0.0,0.0,0.0,0.0,0.0,0.0,0.0,0.0,0.0,0.0,0.0,
1.2615,2.465847710593106,2.465847710593106,2.679747100163194,0.0,0.0,0.0,2.5371475071164684,0.0,0.0,0.0,0.0,0.0,0.0,0.0,0.0,0.0,0.0,0.0,0.0,0.0,0.0,
1.2767,2.466294822133701,2.466294822133701,2.680280291252509,0.0,0.0,0.0,2.5376233118399703,0.0,0.0,0.0,0.0,0.0,0.0,0.0,0.0,0.0,0.0,0.0,0.0,0.0,0.0,
1.2919,2.4667476959947914,2.4667476959947914,2.68082032574014,0.0,0.0,0.0,2.5381052392432406,0.0,0.0,0.0,0.0,0.0,0.0,0.0,0.0,0.0,0.0,0.0,0.0,0.0,0.0,
1.3071,2.467206347420168,2.467206347420168,2.68136722063893,0.0,0.0,0.0,2.5385933051597553,0.0,0.0,0.0,0.0,0.0,0.0,0.0,0.0,0.0,0.0,0.0,0.0,0.0,0.0,
1.3223,2.4676707918771257,2.4676707918771257,2.6819209932045682,0.0,0.0,0.0,2.5390875256529397,0.0,0.0,0.0,0.0,0.0,0.0,0.0,0.0,0.0,0.0,0.0,0.0,0.0,0.0,
1.3375,2.4681410450581787,2.4681410450581787,2.682481660937203,0.0,0.0,0.0,2.5395879170178532,0.0,0.0,0.0,0.0,0.0,0.0,0.0,0.0,0.0,0.0,0.0,0.0,0.0,0.0,
1.3527,2.468617122882714,2.468617122882714,2.683049241583003,0.0,0.0,0.0,2.54009449578281,0.0,0.0,0.0,0.0,0.0,0.0,0.0,0.0,0.0,0.0,0.0,0.0,0.0,0.0,
1.3679,2.4690990414987626,2.4690990414987626,2.6836237531358327,0.0,0.0,0.0,2.540607278711119,0.0,0.0,0.0,0.0,0.0,0.0,0.0,0.0,0.0,0.0,0.0,0.0,0.0,0.0,
1.3831,2.4695868172847524,2.4695868172847524,2.684205213838915,0.0,0.0,0.0,2.5411262828028067,0.0,0.0,0.0,0.0,0.0,0.0,0.0,0.0,0.0,0.0,0.0,0.0,0.0,0.0,
1.3983,2.4700804668513285,2.4700804668513285,2.6847936421865284,0.0,0.0,0.0,2.541651525296395,0.0,0.0,0.0,0.0,0.0,0.0,0.0,0.0,0.0,0.0,0.0,0.0,0.0,0.0,
1.4135,2.4705800070431563,2.4705800070431563,2.6853890569257017,0.0,0.0,0.0,2.5421830236706717,0.0,0.0,0.0,0.0,0.0,0.0,0.0,0.0,0.0,0.0,0.0,0.0,0.0,0.0,
1.4286,2.4710821102828513,2.4710821102828513,2.6859874908335577,0.0,0.0,0.0,2.5427172371330866,0.0,0.0,0.0,0.0,0.0,0.0,0.0,0.0,0.0,0.0,0.0,0.0,0.0,0.0,
1.4438,2.471593444167177,2.471593444167177,2.686596889338571,0.0,0.0,0.0,2.5432612592243085,0.0,0.0,0.0,0.0,0.0,0.0,0.0,0.0,0.0,0.0,0.0,0.0,0.0,0.0,
1.459,2.472110720517481,2.472110720517481,2.6872133318813103,0.0,0.0,0.0,2.5438115909720906,0.0,0.0,0.0,0.0,0.0,0.0,0.0,0.0,0.0,0.0,0.0,0.0,0.0,0.0,
1.4742,2.4726339571319285,2.4726339571319285,2.6878368382359703,0.0,0.0,0.0,2.544368250833276,0.0,0.0,0.0,0.0,0.0,0.0,0.0,0.0,0.0,0.0,0.0,0.0,0.0,0.0,
1.4894,2.4731631720523635,2.4731631720523635,2.688467428438531,0.0,0.0,0.0,2.544931257514419,0.0,0.0,0.0,0.0,0.0,0.0,0.0,0.0,0.0,0.0,0.0,0.0,0.0,0.0,
1.5046,2.4736983835662776,2.4736983835662776,2.6891051227886598,0.0,0.0,0.0,2.545500629973738,0.0,0.0,0.0,0.0,0.0,0.0,0.0,0.0,0.0,0.0,0.0,0.0,0.0,0.0,
1.5198,2.4742396102089517,2.4742396102089517,2.6897499418516366,0.0,0.0,0.0,2.54607638742318,0.0,0.0,0.0,0.0,0.0,0.0,0.0,0.0,0.0,0.0,0.0,0.0,0.0,0.0,
1.535,2.47478687076551,2.47478687076551,2.6904019064603117,0.0,0.0,0.0,2.5466585493304437,0.0,0.0,0.0,0.0,0.0,0.0,0.0,0.0,0.0,0.0,0.0,0.0,0.0,0.0,
1.5502,2.475340184273043,2.475340184273043,2.6910610377170494,0.0,0.0,0.0,2.547247135421045,0.0,0.0,0.0,0.0,0.0,0.0,0.0,0.0,0.0,0.0,0.0,0.0,0.0,0.0,
1.5654,2.4758995700228006,2.4758995700228006,2.6917273569958233,0.0,0.0,0.0,2.547842165680475,0.0,0.0,0.0,0.0,0.0,0.0,0.0,0.0,0.0,0.0,0.0,0.0,0.0,0.0,
1.5806,2.476465047562393,2.476465047562393,2.6924008859441684,0.0,0.0,0.0,2.548443660356318,0.0,0.0,0.0,0.0,0.0,0.0,0.0,0.0,0.0,0.0,0.0,0.0,0.0,0.0,
1.5958,2.477036636698033,2.477036636698033,2.693081646485343,0.0,0.0,0.0,2.5490516399604695,0.0,0.0,0.0,0.0,0.0,0.0,0.0,0.0,0.0,0.0,0.0,0.0,0.0,0.0,
1.611,2.4776143574968246,2.4776143574968246,2.693769660820384,0.0,0.0,0.0,2.549666125271344,0.0,0.0,0.0,0.0,0.0,0.0,0.0,0.0,0.0,0.0,0.0,0.0,0.0,0.0,
1.6262,2.47819823028906,2.47819823028906,2.6944649514302728,0.0,0.0,0.0,2.550287137336131,0.0,0.0,0.0,0.0,0.0,0.0,0.0,0.0,0.0,0.0,0.0,0.0,0.0,0.0,
1.6414,2.478788275670593,2.478788275670593,2.695167541078108,0.0,0.0,0.0,2.550914697473098,0.0,0.0,0.0,0.0,0.0,0.0,0.0,0.0,0.0,0.0,0.0,0.0,0.0,0.0,
1.6566,2.479384514505252,2.479384514505252,2.6958774528113367,0.0,0.0,0.0,2.551548827273947,0.0,0.0,0.0,0.0,0.0,0.0,0.0,0.0,0.0,0.0,0.0,0.0,0.0,0.0,
1.6718,2.479986967927256,2.479986967927256,2.6965947099639433,0.0,0.0,0.0,2.5521895486061514,0.0,0.0,0.0,0.0,0.0,0.0,0.0,0.0,0.0,0.0,0.0,0.0,0.0,0.0,
1.687,2.4805956573437182,2.4805956573437182,2.6973193361587935,0.0,0.0,0.0,2.55283688361541,0.0,0.0,0.0,0.0,0.0,0.0,0.0,0.0,0.0,0.0,0.0,0.0,0.0,0.0,
1.7022,2.4812106044371287,2.4812106044371287,2.6980513553099046,0.0,0.0,0.0,2.553490854728054,0.0,0.0,0.0,0.0,0.0,0.0,0.0,0.0,0.0,0.0,0.0,0.0,0.0,0.0,
1.7174,2.4818318311679644,2.4818318311679644,2.698790791624798,0.0,0.0,0.0,2.5541514846535756,0.0,0.0,0.0,0.0,0.0,0.0,0.0,0.0,0.0,0.0,0.0,0.0,0.0,0.0,
1.7326,2.482459359777276,2.482459359777276,2.6995376696069275,0.0,0.0,0.0,2.55481879638716,0.0,0.0,0.0,0.0,0.0,0.0,0.0,0.0,0.0,0.0,0.0,0.0,0.0,0.0,
1.7478,2.4830932127893153,2.4830932127893153,2.700292014058015,0.0,0.0,0.0,2.555492813212215,0.0,0.0,0.0,0.0,0.0,0.0,0.0,0.0,0.0,0.0,0.0,0.0,0.0,0.0,
1.763,2.483733413014276,2.483733413014276,2.7010538500806027,0.0,0.0,0.0,2.5561735587030516,0.0,0.0,0.0,0.0,0.0,0.0,0.0,0.0,0.0,0.0,0.0,0.0,0.0,0.0,
1.7782,2.4843799835510114,2.4843799835510114,2.701823203080503,0.0,0.0,0.0,2.556861056727509,0.0,0.0,0.0,0.0,0.0,0.0,0.0,0.0,0.0,0.0,0.0,0.0,0.0,0.0,
1.7934,2.4850329477898097,2.4850329477898097,2.7026000987693095,0.0,0.0,0.0,2.557555331449643,0.0,0.0,0.0,0.0,0.0,0.0,0.0,0.0,0.0,0.0,0.0,0.0,0.0,0.0,
1.8086,2.48569232941524,2.48569232941524,2.703384563167001,0.0,0.0,0.0,2.5582564073324936,0.0,0.0,0.0,0.0,0.0,0.0,0.0,0.0,0.0,0.0,0.0,0.0,0.0,0.0,
1.8238,2.48635815240902,2.48635815240902,2.704176622604561,0.0,0.0,0.0,2.558964309140867,0.0,0.0,0.0,0.0,0.0,0.0,0.0,0.0,0.0,0.0,0.0,0.0,0.0,0.0,
1.839,2.487030441052997,2.487030441052997,2.7049763037265864,0.0,0.0,0.0,2.5596790619441934,0.0,0.0,0.0,0.0,0.0,0.0,0.0,0.0,0.0,0.0,0.0,0.0,0.0,0.0,
1.8542,2.4877092199320163,2.4877092199320163,2.705783633494026,0.0,0.0,0.0,2.560400691119353,0.0,0.0,0.0,0.0,0.0,0.0,0.0,0.0,0.0,0.0,0.0,0.0,0.0,0.0,
1.8694,2.4883945139370653,2.4883945139370653,2.7065986391868604,0.0,0.0,0.0,2.5611292223536637,0.0,0.0,0.0,0.0,0.0,0.0,0.0,0.0,0.0,0.0,0.0,0.0,0.0,0.0,
1.8846,2.4890863482682875,2.4890863482682875,2.7074213484069407,0.0,0.0,0.0,2.5618646816478385,0.0,0.0,0.0,0.0,0.0,0.0,0.0,0.0,0.0,0.0,0.0,0.0,0.0,0.0,
1.8998,2.4897847484381264,2.4897847484381264,2.7082517890807116,0.0,0.0,0.0,2.562607095318988,0.0,0.0,0.0,0.0,0.0,0.0,0.0,0.0,0.0,0.0,0.0,0.0,0.0,0.0,
1.915,2.4904897402744943,2.4904897402744943,2.7090899894621505,0.0,0.0,0.0,2.563356490003713,0.0,0.0,0.0,0.0,0.0,0.0,0.0,0.0,0.0,0.0,0.0,0.0,0.0,0.0,
1.9302,2.4912013499240553,2.4912013499240553,2.7099359781356176,0.0,0.0,0.0,2.564112892661243,0.0,0.0,0.0,0.0,0.0,0.0,0.0,0.0,0.0,0.0,0.0,0.0,0.0,0.0,
1.9454,2.4919196038554476,2.4919196038554476,2.7107897840188246,0.0,0.0,0.0,2.5648763305765736,0.0,0.0,0.0,0.0,0.0,0.0,0.0,0.0,0.0,0.0,0.0,0.0,0.0,0.0,
1.9606,2.4926445288626615,2.4926445288626615,2.7116514363658206,0.0,0.0,0.0,2.5656468313637144,0.0,0.0,0.0,0.0,0.0,0.0,0.0,0.0,0.0,0.0,0.0,0.0,0.0,0.0,
1.9758,2.493376152068471,2.493376152068471,2.712520964769986,0.0,0.0,0.0,2.5664244229689763,0.0,0.0,0.0,0.0,0.0,0.0,0.0,0.0,0.0,0.0,0.0,0.0,0.0,0.0,
