energies(eV),real_xx,real_yy,real_zz,real_xy,real_yz,real_xz,real_ave,imag_xx,imag_yy,imag_zz,imag_xy,imag_yz,imag_xz,imag_ave,absorption_xx,absorption_yy,absorption_zz,absorption_xy,absorption_yz,absorption_xz,absorption_ave,band_gap
0.0,2.651120022292577,2.651120022292577,2.5705208770554697,0.0,0.0,0.0,2.624253640546874,0.0,0.0,0.0,0.0,0.0,0.0,0.0,0.0,0.0,0.0,0.0,0.0,0.0,0.0,7.7841000000000005
0.0173,2.6511228505707694,2.6511228505707694,2.5705234092359746,0.0,0.0,0.0,2.624256370125838,0.0,0.0,0.0,0.0,0.0,0.0,0.0,0.0,0.0,0.0,0.0,0.0,0.0,0.0,
0.0346,2.651131335483667,2.651131335483667,2.570531005842996,0.0,0.0,0.0,2.6242645589367766,0.0,0.0,0.0,0.0,0.0,0.0,0.0,0.0,0.0,0.0,0.0,0.0,0.0,0.0,
0.0518,2.651145379266251,2.651145379266251,2.570543579333169,0.0,0.0,0.0,2.6242781126218904,0.0,0.0,0.0,0.0,0.0,0.0,0.0,0.0,0.0,0.0,0.0,0.0,0.0,0.0,
0.0691,2.6511651456075604,2.6511651456075604,2.570561276235443,0.0,0.0,0.0,2.624297189150188,0.0,0.0,0.0,0.0,0.0,0.0,0.0,0.0,0.0,0.0,0.0,0.0,0.0,0.0,
0.0864,2.65119056975458,2.65119056975458,2.5705840385438647,0.0,0.0,0.0,2.624321726017675,0.0,0.0,0.0,0.0,0.0,0.0,0.0,0.0,0.0,0.0,0.0,0.0,0.0,0.0,
0.1037,2.651221652411343,2.651221652411343,2.5706118668473583,0.0,0.0,0.0,2.624351723890015,0.0,0.0,0.0,0.0,0.0,0.0,0.0,0.0,0.0,0.0,0.0,0.0,0.0,0.0,
0.1209,2.6512581657930276,2.6512581657930276,2.5706445571607706,0.0,0.0,0.0,2.6243869629156085,0.0,0.0,0.0,0.0,0.0,0.0,0.0,0.0,0.0,0.0,0.0,0.0,0.0,0.0,
0.1382,2.6513005354861092,2.6513005354861092,2.5706824904507988,0.0,0.0,0.0,2.6244278538076724,0.0,0.0,0.0,0.0,0.0,0.0,0.0,0.0,0.0,0.0,0.0,0.0,0.0,0.0,
0.1555,2.6513485667345207,2.6513485667345207,2.570725492283648,0.0,0.0,0.0,2.6244742085842296,0.0,0.0,0.0,0.0,0.0,0.0,0.0,0.0,0.0,0.0,0.0,0.0,0.0,0.0,
0.1728,2.6514022608688768,2.6514022608688768,2.5707735637724056,0.0,0.0,0.0,2.6245260285033862,0.0,0.0,0.0,0.0,0.0,0.0,0.0,0.0,0.0,0.0,0.0,0.0,0.0,0.0,
0.19,2.651461259984657,2.651461259984657,2.570826384406473,0.0,0.0,0.0,2.6245829681252624,0.0,0.0,0.0,0.0,0.0,0.0,0.0,0.0,0.0,0.0,0.0,0.0,0.0,0.0,
0.2073,2.65152625175466,2.65152625175466,2.570884569748255,0.0,0.0,0.0,2.6246456910858584,0.0,0.0,0.0,0.0,0.0,0.0,0.0,0.0,0.0,0.0,0.0,0.0,0.0,0.0,
0.2246,2.6515969113346927,2.6515969113346927,2.5709478288649277,0.0,0.0,0.0,2.624713883844771,0.0,0.0,0.0,0.0,0.0,0.0,0.0,0.0,0.0,0.0,0.0,0.0,0.0,0.0,
0.2419,2.6516732406836674,2.6516732406836674,2.571016163395055,0.0,0.0,0.0,2.62478754825413,0.0,0.0,0.0,0.0,0.0,0.0,0.0,0.0,0.0,0.0,0.0,0.0,0.0,0.0,
0.2591,2.651754751620339,2.651754751620339,2.5710891361712074,0.0,0.0,0.0,2.624866213137295,0.0,0.0,0.0,0.0,0.0,0.0,0.0,0.0,0.0,0.0,0.0,0.0,0.0,0.0,
0.2764,2.651842394209316,2.651842394209316,2.5711675976069177,0.0,0.0,0.0,2.62495079534185,0.0,0.0,0.0,0.0,0.0,0.0,0.0,0.0,0.0,0.0,0.0,0.0,0.0,0.0,
0.2937,2.6519357133761434,2.6519357133761434,2.5712511401513374,0.0,0.0,0.0,2.6250408556345413,0.0,0.0,0.0,0.0,0.0,0.0,0.0,0.0,0.0,0.0,0.0,0.0,0.0,0.0,
0.311,2.6520347117105776,2.6520347117105776,2.571339765970531,0.0,0.0,0.0,2.6251363964638954,0.0,0.0,0.0,0.0,0.0,0.0,0.0,0.0,0.0,0.0,0.0,0.0,0.0,0.0,
0.3282,2.6521387705403514,2.6521387705403514,2.571432921060897,0.0,0.0,0.0,2.6252368207138663,0.0,0.0,0.0,0.0,0.0,0.0,0.0,0.0,0.0,0.0,0.0,0.0,0.0,0.0,
0.3455,2.65224910274422,2.65224910274422,2.571531691040234,0.0,0.0,0.0,2.6253432988428913,0.0,0.0,0.0,0.0,0.0,0.0,0.0,0.0,0.0,0.0,0.0,0.0,0.0,0.0,
0.3628,2.6523651228181873,2.6523651228181873,2.5716355515728377,0.0,0.0,0.0,2.625455265736404,0.0,0.0,0.0,0.0,0.0,0.0,0.0,0.0,0.0,0.0,0.0,0.0,0.0,0.0,
0.3801,2.6524868339861856,2.6524868339861856,2.5717445053549532,0.0,0.0,0.0,2.6255727244424416,0.0,0.0,0.0,0.0,0.0,0.0,0.0,0.0,0.0,0.0,0.0,0.0,0.0,0.0,
0.3973,2.652613486813081,2.652613486813081,2.5718578813192567,0.0,0.0,0.0,2.625694951648473,0.0,0.0,0.0,0.0,0.0,0.0,0.0,0.0,0.0,0.0,0.0,0.0,0.0,0.0,
0.4146,2.652746557531649,2.652746557531649,2.5719770007391993,0.0,0.0,0.0,2.6258233719341657,0.0,0.0,0.0,0.0,0.0,0.0,0.0,0.0,0.0,0.0,0.0,0.0,0.0,0.0,
0.4319,2.6528853299515527,2.6528853299515527,2.572101222279299,0.0,0.0,0.0,2.6259572940608016,0.0,0.0,0.0,0.0,0.0,0.0,0.0,0.0,0.0,0.0,0.0,0.0,0.0,0.0,
0.4492,2.6530298079350336,2.6530298079350336,2.572230549169236,0.0,0.0,0.0,2.6260967216797675,0.0,0.0,0.0,0.0,0.0,0.0,0.0,0.0,0.0,0.0,0.0,0.0,0.0,0.0,
0.4664,2.6531791109544285,2.6531791109544285,2.572364193002141,0.0,0.0,0.0,2.6262408049703327,0.0,0.0,0.0,0.0,0.0,0.0,0.0,0.0,0.0,0.0,0.0,0.0,0.0,0.0,
0.4837,2.653334979254477,2.653334979254477,2.5725037112570956,0.0,0.0,0.0,2.62639122325535,0.0,0.0,0.0,0.0,0.0,0.0,0.0,0.0,0.0,0.0,0.0,0.0,0.0,0.0,
0.501,2.6534965656439544,2.6534965656439544,2.5726483453356135,0.0,0.0,0.0,2.6265471588745073,0.0,0.0,0.0,0.0,0.0,0.0,0.0,0.0,0.0,0.0,0.0,0.0,0.0,0.0,
0.5183,2.65366387462844,2.65366387462844,2.5727980990048023,0.0,0.0,0.0,2.6267086160872273,0.0,0.0,0.0,0.0,0.0,0.0,0.0,0.0,0.0,0.0,0.0,0.0,0.0,0.0,
0.5356,2.653836910875447,2.653836910875447,2.5729529761670946,0.0,0.0,0.0,2.6268755993059965,0.0,0.0,0.0,0.0,0.0,0.0,0.0,0.0,0.0,0.0,0.0,0.0,0.0,0.0,
0.5528,2.654014629391411,2.654014629391411,2.5731120412360875,0.0,0.0,0.0,2.6270471000063034,0.0,0.0,0.0,0.0,0.0,0.0,0.0,0.0,0.0,0.0,0.0,0.0,0.0,0.0,
0.5701,2.6541991016387576,2.6541991016387576,2.5732771479589744,0.0,0.0,0.0,2.62722511707883,0.0,0.0,0.0,0.0,0.0,0.0,0.0,0.0,0.0,0.0,0.0,0.0,0.0,0.0,
0.5874,2.6543893160965033,2.6543893160965033,2.573447390671431,0.0,0.0,0.0,2.6274086742881457,0.0,0.0,0.0,0.0,0.0,0.0,0.0,0.0,0.0,0.0,0.0,0.0,0.0,0.0,
0.6047,2.654585278082944,2.654585278082944,2.5736227738191997,0.0,0.0,0.0,2.627597776661696,0.0,0.0,0.0,0.0,0.0,0.0,0.0,0.0,0.0,0.0,0.0,0.0,0.0,0.0,
0.6219,2.6547858105559197,2.6547858105559197,2.5738022436765084,0.0,0.0,0.0,2.6277912882627827,0.0,0.0,0.0,0.0,0.0,0.0,0.0,0.0,0.0,0.0,0.0,0.0,0.0,0.0,
0.6392,2.6549932509074634,2.6549932509074634,2.573987891798925,0.0,0.0,0.0,2.6279914645379505,0.0,0.0,0.0,0.0,0.0,0.0,0.0,0.0,0.0,0.0,0.0,0.0,0.0,0.0,
0.6565,2.655206455694243,2.655206455694243,2.5741786944880793,0.0,0.0,0.0,2.628197201958855,0.0,0.0,0.0,0.0,0.0,0.0,0.0,0.0,0.0,0.0,0.0,0.0,0.0,0.0,
0.6738,2.6554254308922847,2.6554254308922847,2.5743746567386068,0.0,0.0,0.0,2.628408506174392,0.0,0.0,0.0,0.0,0.0,0.0,0.0,0.0,0.0,0.0,0.0,0.0,0.0,0.0,
0.691,2.6556488668897034,2.6556488668897034,2.574574606249403,0.0,0.0,0.0,2.6286241133429367,0.0,0.0,0.0,0.0,0.0,0.0,0.0,0.0,0.0,0.0,0.0,0.0,0.0,0.0,
0.7083,2.655879368056884,2.655879368056884,2.5747808732607425,0.0,0.0,0.0,2.62884653645817,0.0,0.0,0.0,0.0,0.0,0.0,0.0,0.0,0.0,0.0,0.0,0.0,0.0,0.0,
0.7256,2.6561156585226584,2.6561156585226584,2.5749923156173784,0.0,0.0,0.0,2.6290745442208983,0.0,0.0,0.0,0.0,0.0,0.0,0.0,0.0,0.0,0.0,0.0,0.0,0.0,0.0,
0.7429,2.6563577449285836,2.6563577449285836,2.575208938869002,0.0,0.0,0.0,2.629308142908723,0.0,0.0,0.0,0.0,0.0,0.0,0.0,0.0,0.0,0.0,0.0,0.0,0.0,0.0,
0.7601,2.656604184511633,2.656604184511633,2.5754294516529987,0.0,0.0,0.0,2.6295459402254213,0.0,0.0,0.0,0.0,0.0,0.0,0.0,0.0,0.0,0.0,0.0,0.0,0.0,0.0,
0.7774,2.6568578497923188,2.6568578497923188,2.5756564238732156,0.0,0.0,0.0,2.6297907078192844,0.0,0.0,0.0,0.0,0.0,0.0,0.0,0.0,0.0,0.0,0.0,0.0,0.0,0.0,
0.7947,2.657117331906042,2.657117331906042,2.5758885944445113,0.0,0.0,0.0,2.630041086085532,0.0,0.0,0.0,0.0,0.0,0.0,0.0,0.0,0.0,0.0,0.0,0.0,0.0,0.0,
0.812,2.6573826381686283,2.6573826381686283,2.576125969478576,0.0,0.0,0.0,2.6302970819386107,0.0,0.0,0.0,0.0,0.0,0.0,0.0,0.0,0.0,0.0,0.0,0.0,0.0,0.0,
0.8292,2.6576521920235576,2.6576521920235576,2.5763671380142332,0.0,0.0,0.0,2.6305571740204496,0.0,0.0,0.0,0.0,0.0,0.0,0.0,0.0,0.0,0.0,0.0,0.0,0.0,0.0,
0.8465,2.6579291354376684,2.6579291354376684,2.5766149107015153,0.0,0.0,0.0,2.630824393858951,0.0,0.0,0.0,0.0,0.0,0.0,0.0,0.0,0.0,0.0,0.0,0.0,0.0,0.0,
0.8638,2.6582119259266066,2.6582119259266066,2.5768679070016427,0.0,0.0,0.0,2.631097252951619,0.0,0.0,0.0,0.0,0.0,0.0,0.0,0.0,0.0,0.0,0.0,0.0,0.0,0.0,
0.8811,2.6585005714901353,2.6585005714901353,2.577126133595998,0.0,0.0,0.0,2.631375758858756,0.0,0.0,0.0,0.0,0.0,0.0,0.0,0.0,0.0,0.0,0.0,0.0,0.0,0.0,
0.8983,2.6587933610740953,2.6587933610740953,2.577388059336262,0.0,0.0,0.0,2.6316582604948175,0.0,0.0,0.0,0.0,0.0,0.0,0.0,0.0,0.0,0.0,0.0,0.0,0.0,0.0,
0.9156,2.659093707514039,2.659093707514039,2.5776567368063588,0.0,0.0,0.0,2.631948050611479,0.0,0.0,0.0,0.0,0.0,0.0,0.0,0.0,0.0,0.0,0.0,0.0,0.0,0.0,
0.9329,2.659399934017971,2.659399934017971,2.5779306654388456,0.0,0.0,0.0,2.6322435111582627,0.0,0.0,0.0,0.0,0.0,0.0,0.0,0.0,0.0,0.0,0.0,0.0,0.0,0.0,
0.9502,2.65971204928023,2.65971204928023,2.578209852493183,0.0,0.0,0.0,2.6325446503512144,0.0,0.0,0.0,0.0,0.0,0.0,0.0,0.0,0.0,0.0,0.0,0.0,0.0,0.0,
0.9674,2.660028206982151,2.660028206982151,2.578492645993119,0.0,0.0,0.0,2.6328496866524738,0.0,0.0,0.0,0.0,0.0,0.0,0.0,0.0,0.0,0.0,0.0,0.0,0.0,0.0,
0.9847,2.6603520923784454,2.6603520923784454,2.578782341750734,0.0,0.0,0.0,2.6331621755025414,0.0,0.0,0.0,0.0,0.0,0.0,0.0,0.0,0.0,0.0,0.0,0.0,0.0,0.0,
1.002,2.6606818936191696,2.6606818936191696,2.579077318542862,0.0,0.0,0.0,2.633480368593734,0.0,0.0,0.0,0.0,0.0,0.0,0.0,0.0,0.0,0.0,0.0,0.0,0.0,0.0,
1.0193,2.661017620104813,2.661017620104813,2.579377584216231,0.0,0.0,0.0,2.633804274808619,0.0,0.0,0.0,0.0,0.0,0.0,0.0,0.0,0.0,0.0,0.0,0.0,0.0,0.0,
1.0366,2.6613592814145823,2.6613592814145823,2.579683146766185,0.0,0.0,0.0,2.63413390319845,0.0,0.0,0.0,0.0,0.0,0.0,0.0,0.0,0.0,0.0,0.0,0.0,0.0,0.0,
1.0538,2.66170486092416,2.66170486092416,2.5799922021553106,0.0,0.0,0.0,2.6344673080012098,0.0,0.0,0.0,0.0,0.0,0.0,0.0,0.0,0.0,0.0,0.0,0.0,0.0,0.0,
1.0711,2.6620583868907044,2.6620583868907044,2.5803083523049573,0.0,0.0,0.0,2.634808375362122,0.0,0.0,0.0,0.0,0.0,0.0,0.0,0.0,0.0,0.0,0.0,0.0,0.0,0.0,
1.0884,2.66241787744056,2.66241787744056,2.5806298241658063,0.0,0.0,0.0,2.635155193015642,0.0,0.0,0.0,0.0,0.0,0.0,0.0,0.0,0.0,0.0,0.0,0.0,0.0,0.0,
1.1057,2.6627833428750076,2.6627833428750076,2.58095662633312,0.0,0.0,0.0,2.6355077706943786,0.0,0.0,0.0,0.0,0.0,0.0,0.0,0.0,0.0,0.0,0.0,0.0,0.0,0.0,
1.1229,2.6631526293448435,2.6631526293448435,2.5812868323040914,0.0,0.0,0.0,2.6358640303312595,0.0,0.0,0.0,0.0,0.0,0.0,0.0,0.0,0.0,0.0,0.0,0.0,0.0,0.0,
1.1402,2.6635300414949716,2.6635300414949716,2.5816242905395135,0.0,0.0,0.0,2.636228124509819,0.0,0.0,0.0,0.0,0.0,0.0,0.0,0.0,0.0,0.0,0.0,0.0,0.0,0.0,
1.1575,2.6639134604716217,2.6639134604716217,2.581967105728648,0.0,0.0,0.0,2.6365980088906302,0.0,0.0,0.0,0.0,0.0,0.0,0.0,0.0,0.0,0.0,0.0,0.0,0.0,0.0,
1.1748,2.6643028973121647,2.6643028973121647,2.5823152870777477,0.0,0.0,0.0,2.6369736939006923,0.0,0.0,0.0,0.0,0.0,0.0,0.0,0.0,0.0,0.0,0.0,0.0,0.0,0.0,
1.192,2.6646960599642875,2.6646960599642875,2.582666784802038,0.0,0.0,0.0,2.6373529682435377,0.0,0.0,0.0,0.0,0.0,0.0,0.0,0.0,0.0,0.0,0.0,0.0,0.0,0.0,
1.2093,2.6650975314428322,2.6650975314428322,2.5830256955547437,0.0,0.0,0.0,2.6377402528134692,0.0,0.0,0.0,0.0,0.0,0.0,0.0,0.0,0.0,0.0,0.0,0.0,0.0,0.0,
1.2266,2.6655050549532913,2.6655050549532913,2.5833900009616855,0.0,0.0,0.0,2.6381333702894225,0.0,0.0,0.0,0.0,0.0,0.0,0.0,0.0,0.0,0.0,0.0,0.0,0.0,0.0,
1.2439,2.6659186422841987,2.6659186422841987,2.583759710851983,0.0,0.0,0.0,2.6385323318067937,0.0,0.0,0.0,0.0,0.0,0.0,0.0,0.0,0.0,0.0,0.0,0.0,0.0,0.0,
1.2611,2.666335862134378,2.666335862134378,2.584132651286238,0.0,0.0,0.0,2.6389347918516646,0.0,0.0,0.0,0.0,0.0,0.0,0.0,0.0,0.0,0.0,0.0,0.0,0.0,0.0,
1.2784,2.6667615780089604,2.6667615780089604,2.5845131688776757,0.0,0.0,0.0,2.6393454416318654,0.0,0.0,0.0,0.0,0.0,0.0,0.0,0.0,0.0,0.0,0.0,0.0,0.0,0.0,
1.2957,2.6671933941448924,2.6671933941448924,2.5848991213307784,0.0,0.0,0.0,2.639761969873521,0.0,0.0,0.0,0.0,0.0,0.0,0.0,0.0,0.0,0.0,0.0,0.0,0.0,0.0,
1.313,2.6676313230980107,2.6676313230980107,2.585290519110419,0.0,0.0,0.0,2.6401843884354803,0.0,0.0,0.0,0.0,0.0,0.0,0.0,0.0,0.0,0.0,0.0,0.0,0.0,0.0,
1.3302,2.668072793203511,2.668072793203511,2.5856850631925523,0.0,0.0,0.0,2.6406102165331915,0.0,0.0,0.0,0.0,0.0,0.0,0.0,0.0,0.0,0.0,0.0,0.0,0.0,0.0,
1.3475,2.668522950718379,2.668522950718379,2.5860873520349896,0.0,0.0,0.0,2.641044417823916,0.0,0.0,0.0,0.0,0.0,0.0,0.0,0.0,0.0,0.0,0.0,0.0,0.0,0.0,
1.3648,2.6689792598145132,2.6689792598145132,2.586495118506056,0.0,0.0,0.0,2.6414845460450276,0.0,0.0,0.0,0.0,0.0,0.0,0.0,0.0,0.0,0.0,0.0,0.0,0.0,0.0,
1.3821,2.6694417338324303,2.6694417338324303,2.5869083737201284,0.0,0.0,0.0,2.641930613794996,0.0,0.0,0.0,0.0,0.0,0.0,0.0,0.0,0.0,0.0,0.0,0.0,0.0,0.0,
1.3993,2.6699076595583753,2.6699076595583753,2.587324692580009,0.0,0.0,0.0,2.64238000389892,0.0,0.0,0.0,0.0,0.0,0.0,0.0,0.0,0.0,0.0,0.0,0.0,0.0,0.0,
1.4166,2.6703824684070474,2.6703824684070474,2.5877489273922105,0.0,0.0,0.0,2.6428379547354353,0.0,0.0,0.0,0.0,0.0,0.0,0.0,0.0,0.0,0.0,0.0,0.0,0.0,0.0,
1.4339,2.6708634833186533,2.6708634833186533,2.5881786852159028,0.0,0.0,0.0,2.64330188395107,0.0,0.0,0.0,0.0,0.0,0.0,0.0,0.0,0.0,0.0,0.0,0.0,0.0,0.0,
1.4512,2.6713507184370737,2.6713507184370737,2.588613977829679,0.0,0.0,0.0,2.6437718049012755,0.0,0.0,0.0,0.0,0.0,0.0,0.0,0.0,0.0,0.0,0.0,0.0,0.0,0.0,
1.4684,2.671841317742013,2.671841317742013,2.5890522530150255,0.0,0.0,0.0,2.644244962833017,0.0,0.0,0.0,0.0,0.0,0.0,0.0,0.0,0.0,0.0,0.0,0.0,0.0,0.0,
1.4857,2.6723410003594554,2.6723410003594554,2.5894986190532734,0.0,0.0,0.0,2.6447268732573948,0.0,0.0,0.0,0.0,0.0,0.0,0.0,0.0,0.0,0.0,0.0,0.0,0.0,0.0,
1.503,2.6728469467596314,2.6728469467596314,2.5899505561620986,0.0,0.0,0.0,2.6452148165604537,0.0,0.0,0.0,0.0,0.0,0.0,0.0,0.0,0.0,0.0,0.0,0.0,0.0,0.0,
1.5203,2.673359171909663,2.673359171909663,2.5904080768000304,0.0,0.0,0.0,2.645708806873119,0.0,0.0,0.0,0.0,0.0,0.0,0.0,0.0,0.0,0.0,0.0,0.0,0.0,0.0,
1.5375,2.6738746756512826,2.6738746756512826,2.5908685005179404,0.0,0.0,0.0,2.646205950606835,0.0,0.0,0.0,0.0,0.0,0.0,0.0,0.0,0.0,0.0,0.0,0.0,0.0,0.0,
1.5548,2.6743994675266407,2.6743994675266407,2.591337193823092,0.0,0.0,0.0,2.646712042958791,0.0,0.0,0.0,0.0,0.0,0.0,0.0,0.0,0.0,0.0,0.0,0.0,0.0,0.0,
1.5721,2.6749305842242217,2.6749305842242217,2.59181150899858,0.0,0.0,0.0,2.6472242258156746,0.0,0.0,0.0,0.0,0.0,0.0,0.0,0.0,0.0,0.0,0.0,0.0,0.0,0.0,
1.5894,2.675468041555644,2.675468041555644,2.5922914591996635,0.0,0.0,0.0,2.647742514103651,0.0,0.0,0.0,0.0,0.0,0.0,0.0,0.0,0.0,0.0,0.0,0.0,0.0,0.0,
1.6067,2.6760118555475167,2.6760118555475167,2.592777057758802,0.0,0.0,0.0,2.6482669229512785,0.0,0.0,0.0,0.0,0.0,0.0,0.0,0.0,0.0,0.0,0.0,0.0,0.0,0.0,
1.6239,2.676558843828058,2.676558843828058,2.5932654622359013,0.0,0.0,0.0,2.6487943832973393,0.0,0.0,0.0,0.0,0.0,0.0,0.0,0.0,0.0,0.0,0.0,0.0,0.0,0.0,
1.6412,2.677115383107084,2.677115383107084,2.593762365376653,0.0,0.0,0.0,2.6493310438636066,0.0,0.0,0.0,0.0,0.0,0.0,0.0,0.0,0.0,0.0,0.0,0.0,0.0,0.0,
1.6585,2.6776783283334327,2.6776783283334327,2.594264957866806,0.0,0.0,0.0,2.649873871511224,0.0,0.0,0.0,0.0,0.0,0.0,0.0,0.0,0.0,0.0,0.0,0.0,0.0,0.0,
1.6758,2.6782476964068316,2.6782476964068316,2.594773253758144,0.0,0.0,0.0,2.650422882190602,0.0,0.0,0.0,0.0,0.0,0.0,0.0,0.0,0.0,0.0,0.0,0.0,0.0,0.0,
1.693,2.6788201575411,2.6788201575411,2.595284279652125,0.0,0.0,0.0,2.6509748649114417,0.0,0.0,0.0,0.0,0.0,0.0,0.0,0.0,0.0,0.0,0.0,0.0,0.0,0.0,
1.7103,2.679402385523044,2.679402385523044,2.5958039920595786,0.0,0.0,0.0,2.6515362543685557,0.0,0.0,0.0,0.0,0.0,0.0,0.0,0.0,0.0,0.0,0.0,0.0,0.0,0.0,
1.7276,2.679991088289534,2.679991088289534,2.5963294510419406,0.0,0.0,0.0,2.6521038758736695,0.0,0.0,0.0,0.0,0.0,0.0,0.0,0.0,0.0,0.0,0.0,0.0,0.0,0.0,
1.7449,2.6805862836379992,2.6805862836379992,2.596860671389679,0.0,0.0,0.0,2.6526777462218925,0.0,0.0,0.0,0.0,0.0,0.0,0.0,0.0,0.0,0.0,0.0,0.0,0.0,0.0,
1.7621,2.681184492782756,2.681184492782756,2.597394547427177,0.0,0.0,0.0,2.653254510997563,0.0,0.0,0.0,0.0,0.0,0.0,0.0,0.0,0.0,0.0,0.0,0.0,0.0,0.0,
1.7794,2.681792689812199,2.681792689812199,2.597937302109816,0.0,0.0,0.0,2.6538408939114047,0.0,0.0,0.0,0.0,0.0,0.0,0.0,0.0,0.0,0.0,0.0,0.0,0.0,0.0,
1.7967,2.682407434087672,2.682407434087672,2.598485863573768,0.0,0.0,0.0,2.654433577249704,0.0,0.0,0.0,0.0,0.0,0.0,0.0,0.0,0.0,0.0,0.0,0.0,0.0,0.0,
1.814,2.683028744330424,2.683028744330424,2.599040247368732,0.0,0.0,0.0,2.655032578676527,0.0,0.0,0.0,0.0,0.0,0.0,0.0,0.0,0.0,0.0,0.0,0.0,0.0,0.0,
1.8312,2.683652991087337,2.683652991087337,2.5995972141553265,0.0,0.0,0.0,2.655634398776667,0.0,0.0,0.0,0.0,0.0,0.0,0.0,0.0,0.0,0.0,0.0,0.0,0.0,0.0,
1.8485,2.68428745214279,2.68428745214279,2.600163256152351,0.0,0.0,0.0,2.6562460534793106,0.0,0.0,0.0,0.0,0.0,0.0,0.0,0.0,0.0,0.0,0.0,0.0,0.0,0.0,
1.8658,2.684928536636802,2.684928536636802,2.600735168202098,0.0,0.0,0.0,2.6568640804919004,0.0,0.0,0.0,0.0,0.0,0.0,0.0,0.0,0.0,0.0,0.0,0.0,0.0,0.0,
1.8831,2.6855762642422922,2.6855762642422922,2.6013129666354686,0.0,0.0,0.0,2.657488498373351,0.0,0.0,0.0,0.0,0.0,0.0,0.0,0.0,0.0,0.0,0.0,0.0,0.0,0.0,
1.9003,2.6862268530857243,2.6862268530857243,2.601893276992561,0.0,0.0,0.0,2.6581156610546697,0.0,0.0,0.0,0.0,0.0,0.0,0.0,0.0,0.0,0.0,0.0,0.0,0.0,0.0,
1.9176,2.6868878882163543,2.6868878882163543,2.6024828637178112,0.0,0.0,0.0,2.6587528800501734,0.0,0.0,0.0,0.0,0.0,0.0,0.0,0.0,0.0,0.0,0.0,0.0,0.0,0.0,
1.9349,2.687555626822799,2.687555626822799,2.6030783869217187,0.0,0.0,0.0,2.6593965468557723,0.0,0.0,0.0,0.0,0.0,0.0,0.0,0.0,0.0,0.0,0.0,0.0,0.0,0.0,
1.9522,2.68823008955913,2.68823008955913,2.6036798637395453,0.0,0.0,0.0,2.6600466809526018,0.0,0.0,0.0,0.0,0.0,0.0,0.0,0.0,0.0,0.0,0.0,0.0,0.0,0.0,
1.9694,2.6889073402907986,2.6889073402907986,2.604283783062222,0.0,0.0,0.0,2.660699487881273,0.0,0.0,0.0,0.0,0.0,0.0,0.0,0.0,0.0,0.0,0.0,0.0,0.0,0.0,
1.9867,2.6895952750808116,2.6895952750808116,2.604897184669642,0.0,0.0,0.0,2.6613625782770884,0.0,0.0,0.0,0.0,0.0,0.0,0.0,0.0,0.0,0.0,0.0,0.0,0.0,0.0,
2.004,2.6902899973493426,2.6902899973493426,2.605516592431065,0.0,0.0,0.0,2.6620321957099167,0.0,0.0,0.0,0.0,0.0,0.0,0.0,0.0,0.0,0.0,0.0,0.0,0.0,0.0,
2.0213,2.6909915287629893,2.6909915287629893,2.606142024310836,0.0,0.0,0.0,2.6627083606122715,0.0,0.0,0.0,0.0,0.0,0.0,0.0,0.0,0.0,0.0,0.0,0.0,0.0,0.0,
2.0385,2.6916957769950938,2.6916957769950938,2.606769830947827,0.0,0.0,0.0,2.6633871283126713,0.0,0.0,0.0,0.0,0.0,0.0,0.0,0.0,0.0,0.0,0.0,0.0,0.0,0.0,
2.0558,2.6924109530571076,2.6924109530571076,2.6074073307193193,0.0,0.0,0.0,2.664076412277845,0.0,0.0,0.0,0.0,0.0,0.0,0.0,0.0,0.0,0.0,0.0,0.0,0.0,0.0,
2.0731,2.69313300469397,2.69313300469397,2.6080509096703874,0.0,0.0,0.0,2.6647723063527757,0.0,0.0,0.0,0.0,0.0,0.0,0.0,0.0,0.0,0.0,0.0,0.0,0.0,0.0,
2.0904,2.6938619546181766,2.6938619546181766,2.6087005866206385,0.0,0.0,0.0,2.6654748319523307,0.0,0.0,0.0,0.0,0.0,0.0,0.0,0.0,0.0,0.0,0.0,0.0,0.0,0.0,
2.1077,2.694597825809567,2.694597825809567,2.6093563806080553,0.0,0.0,0.0,2.666184010742396,0.0,0.0,0.0,0.0,0.0,0.0,0.0,0.0,0.0,0.0,0.0,0.0,0.0,0.0,
2.1249,2.6953363277854394,2.6953363277854394,2.610014467034696,0.0,0.0,0.0,2.6668957075351916,0.0,0.0,0.0,0.0,0.0,0.0,0.0,0.0,0.0,0.0,0.0,0.0,0.0,0.0,
2.1422,2.696086071185324,2.696086071185324,2.610682517454058,0.0,0.0,0.0,2.6676182199415686,0.0,0.0,0.0,0.0,0.0,0.0,0.0,0.0,0.0,0.0,0.0,0.0,0.0,0.0,
2.1595,2.696842806279995,2.696842806279995,2.611356743238337,0.0,0.0,0.0,2.668347451932776,0.0,0.0,0.0,0.0,0.0,0.0,0.0,0.0,0.0,0.0,0.0,0.0,0.0,0.0,
2.1768,2.697606557139709,2.697606557139709,2.612037164315754,0.0,0.0,0.0,2.669083426198391,0.0,0.0,0.0,0.0,0.0,0.0,0.0,0.0,0.0,0.0,0.0,0.0,0.0,0.0,
2.194,2.6983728723980427,2.6983728723980427,2.6127198139460726,0.0,0.0,0.0,2.6698218529140525,0.0,0.0,0.0,0.0,0.0,0.0,0.0,0.0,0.0,0.0,0.0,0.0,0.0,0.0,
2.2113,2.6991506872086584,2.6991506872086584,2.6134126502020867,0.0,0.0,0.0,2.670571341539801,0.0,0.0,0.0,0.0,0.0,0.0,0.0,0.0,0.0,0.0,0.0,0.0,0.0,0.0,
2.2286,2.69993559153337,2.69993559153337,2.6141117427887015,0.0,0.0,0.0,2.6713276419518137,0.0,0.0,0.0,0.0,0.0,0.0,0.0,0.0,0.0,0.0,0.0,0.0,0.0,0.0,
2.2459,2.7007276105710147,2.7007276105710147,2.6148171125543107,0.0,0.0,0.0,2.6720907778987804,0.0,0.0,0.0,0.0,0.0,0.0,0.0,0.0,0.0,0.0,0.0,0.0,0.0,0.0,
