energies(eV),real_xx,real_yy,real_zz,real_xy,real_yz,real_xz,real_ave,imag_xx,imag_yy,imag_zz,imag_xy,imag_yz,imag_xz,imag_ave,absorption_xx,absorption_yy,absorption_zz,absorption_xy,absorption_yz,absorption_xz,absorption_ave,band_gap
0.0,2.8993233528711126,3.072531176543161,3.058847309803493,0.0,0.0,0.07065452498471407,3.010233946405922,0.0,0.0,0.0,0.0,0.0,0.0,0.0,0.0,0.0,0.0,0.0,0.0,0.0,0.0,3.8282
0.0135,2.899327885047322,3.0725369297557927,3.058852597135965,0.0,0.0,0.07065500219943247,3.0102391373130266,0.0,0.0,0.0,0.0,0.0,0.0,0.0,0.0,0.0,0.0,0.0,0.0,0.0,0.0,
0.0271,2.899341616363082,3.0725543605432977,3.0588686163916763,0.0,0.0,0.07065644805087866,3.010254864432685,0.0,0.0,0.0,0.0,0.0,0.0,0.0,0.0,0.0,0.0,0.0,0.0,0.0,0.0,
0.0406,2.8993643456360356,3.072583213666354,3.0588951329049117,0.0,0.0,0.07065884139971561,3.0102808974024335,0.0,0.0,0.0,0.0,0.0,0.0,0.0,0.0,0.0,0.0,0.0,0.0,0.0,0.0,
0.0541,2.899396141499564,3.0726235764901113,3.0589322268079266,0.0,0.0,0.07066218954620311,3.010317314932534,0.0,0.0,0.0,0.0,0.0,0.0,0.0,0.0,0.0,0.0,0.0,0.0,0.0,0.0,
0.0677,2.8994373422281297,3.0726758787768804,3.058980292830953,0.0,0.0,0.0706665282162044,3.0103645046119873,0.0,0.0,0.0,0.0,0.0,0.0,0.0,0.0,0.0,0.0,0.0,0.0,0.0,0.0,
0.0812,2.899487344176217,3.072739354664769,3.0590386268570335,0.0,0.0,0.07067179397555767,3.010421775232673,0.0,0.0,0.0,0.0,0.0,0.0,0.0,0.0,0.0,0.0,0.0,0.0,0.0,0.0,
0.0947,2.8995464194330594,3.0728143500857574,3.0591075464520636,0.0,0.0,0.07067801563797853,3.01048943865696,0.0,0.0,0.0,0.0,0.0,0.0,0.0,0.0,0.0,0.0,0.0,0.0,0.0,0.0,
0.1083,2.899615109929687,3.0729015536629487,3.059187684024275,0.0,0.0,0.07068525047586281,3.0105681158723034,0.0,0.0,0.0,0.0,0.0,0.0,0.0,0.0,0.0,0.0,0.0,0.0,0.0,0.0,
0.1218,2.899692409261868,3.072999688479849,3.0592778656456954,0.0,0.0,0.07069339271174375,3.010656654462471,0.0,0.0,0.0,0.0,0.0,0.0,0.0,0.0,0.0,0.0,0.0,0.0,0.0,0.0,
0.1353,2.899778793112332,3.0731093592374674,3.0593786464835584,0.0,0.0,0.07070249269563336,3.0107555996111195,0.0,0.0,0.0,0.0,0.0,0.0,0.0,0.0,0.0,0.0,0.0,0.0,0.0,0.0,
0.1489,2.8998750073405444,3.0732315138183757,3.0594908969551935,0.0,0.0,0.07071262929142082,3.0108658060380376,0.0,0.0,0.0,0.0,0.0,0.0,0.0,0.0,0.0,0.0,0.0,0.0,0.0,0.0,
0.1624,2.8999796422903668,3.0733643635306565,3.059612972721341,0.0,0.0,0.07072365429742983,3.0109856595141213,0.0,0.0,0.0,0.0,0.0,0.0,0.0,0.0,0.0,0.0,0.0,0.0,0.0,0.0,
0.1759,2.90009337747829,3.0735087721969476,3.0597456668431606,0.0,0.0,0.0707356396397855,3.0111159388394655,0.0,0.0,0.0,0.0,0.0,0.0,0.0,0.0,0.0,0.0,0.0,0.0,0.0,0.0,
0.1895,2.9002171630670928,3.073665947509413,3.0598900882037405,0.0,0.0,0.07074868583594121,3.0112577329267487,0.0,0.0,0.0,0.0,0.0,0.0,0.0,0.0,0.0,0.0,0.0,0.0,0.0,0.0,
0.203,2.9003491854572423,3.0738335879896055,3.060044121210739,0.0,0.0,0.070762602146499,3.0114089648858626,0.0,0.0,0.0,0.0,0.0,0.0,0.0,0.0,0.0,0.0,0.0,0.0,0.0,0.0,
0.2165,2.900490328342097,3.0740128170856114,3.0602087972372307,0.0,0.0,0.07077748213059332,3.0115706475549797,0.0,0.0,0.0,0.0,0.0,0.0,0.0,0.0,0.0,0.0,0.0,0.0,0.0,0.0,
0.2301,2.9006417466664507,3.0742051030017574,3.0603854642151362,0.0,0.0,0.07079344803853889,3.0117441046277817,0.0,0.0,0.0,0.0,0.0,0.0,0.0,0.0,0.0,0.0,0.0,0.0,0.0,0.0,
0.2436,2.900801221996288,3.074407630169942,3.0605715342143047,0.0,0.0,0.07081026644687889,3.011926795460178,0.0,0.0,0.0,0.0,0.0,0.0,0.0,0.0,0.0,0.0,0.0,0.0,0.0,0.0,
0.2571,2.9009698426485375,3.0746217823196003,3.0607682774638625,0.0,0.0,0.0708280526218407,3.0121199674773336,0.0,0.0,0.0,0.0,0.0,0.0,0.0,0.0,0.0,0.0,0.0,0.0,0.0,0.0,
0.2707,2.901148968933315,3.0748492890236068,3.06097728165507,0.0,0.0,0.0708469506433104,3.0123251798706643,0.0,0.0,0.0,0.0,0.0,0.0,0.0,0.0,0.0,0.0,0.0,0.0,0.0,0.0,
0.2842,2.90133597648994,3.0750868190265983,3.0611954851904106,0.0,0.0,0.07086668422429453,3.0125394269023165,0.0,0.0,0.0,0.0,0.0,0.0,0.0,0.0,0.0,0.0,0.0,0.0,0.0,0.0,
0.2977,2.90153215880997,3.0753360171486936,3.0614243978263436,0.0,0.0,0.07088739042955734,3.012764191261669,0.0,0.0,0.0,0.0,0.0,0.0,0.0,0.0,0.0,0.0,0.0,0.0,0.0,0.0,
0.3113,2.901739082257686,3.0755988753430805,3.0616658478526038,0.0,0.0,0.07090923528287818,3.013001268484457,0.0,0.0,0.0,0.0,0.0,0.0,0.0,0.0,0.0,0.0,0.0,0.0,0.0,0.0,
0.3248,2.901953715250781,3.075871544772199,3.061916298427798,0.0,0.0,0.07093189942074142,3.0132471861502594,0.0,0.0,0.0,0.0,0.0,0.0,0.0,0.0,0.0,0.0,0.0,0.0,0.0,0.0,
0.3383,2.9021775571117288,3.0761559323111154,3.0621774996352475,0.0,0.0,0.07095554181544465,3.013503663019364,0.0,0.0,0.0,0.0,0.0,0.0,0.0,0.0,0.0,0.0,0.0,0.0,0.0,0.0,
0.3519,2.9024123810547247,3.0764542934625325,3.0624515213325565,0.0,0.0,0.07098035056685818,3.013772731949938,0.0,0.0,0.0,0.0,0.0,0.0,0.0,0.0,0.0,0.0,0.0,0.0,0.0,0.0,
0.3654,2.9026547467757284,3.0767622596108053,3.0627343496080632,0.0,0.0,0.07100596298799483,3.0140504519981994,0.0,0.0,0.0,0.0,0.0,0.0,0.0,0.0,0.0,0.0,0.0,0.0,0.0,0.0,
0.3789,2.9029063601909297,3.0770820008070756,3.0630279758012984,0.0,0.0,0.07103256008548339,3.0143387789331015,0.0,0.0,0.0,0.0,0.0,0.0,0.0,0.0,0.0,0.0,0.0,0.0,0.0,0.0,
0.3925,2.903169202268325,3.077416037432395,3.063334712439026,0.0,0.0,0.07106035218563513,3.014639984046582,0.0,0.0,0.0,0.0,0.0,0.0,0.0,0.0,0.0,0.0,0.0,0.0,0.0,0.0,
0.406,2.903439422274518,3.0777594785922378,3.063650066460122,0.0,0.0,0.07108893299657076,3.014949655775626,0.0,0.0,0.0,0.0,0.0,0.0,0.0,0.0,0.0,0.0,0.0,0.0,0.0,0.0,
0.4195,2.903718933589995,3.0781147587938458,3.0639762715210197,0.0,0.0,0.07111850570411993,3.0152699879682867,0.0,0.0,0.0,0.0,0.0,0.0,0.0,0.0,0.0,0.0,0.0,0.0,0.0,0.0,
0.433,2.9040077517909815,3.078481900899678,3.0643133465942944,0.0,0.0,0.07114907288914199,3.0156009997616517,0.0,0.0,0.0,0.0,0.0,0.0,0.0,0.0,0.0,0.0,0.0,0.0,0.0,0.0,
0.4466,2.904308136274407,3.078863780590203,3.064663929509246,0.0,0.0,0.07118087476059003,3.0159452821246187,0.0,0.0,0.0,0.0,0.0,0.0,0.0,0.0,0.0,0.0,0.0,0.0,0.0,0.0,
0.4601,2.9046156863872272,3.079254806606019,3.0650228850577,0.0,0.0,0.07121344642454257,3.0162977926836483,0.0,0.0,0.0,0.0,0.0,0.0,0.0,0.0,0.0,0.0,0.0,0.0,0.0,0.0,
0.4736,2.904932593500558,3.079657768114045,3.065392771665225,0.0,0.0,0.07124702087783688,3.016661044426609,0.0,0.0,0.0,0.0,0.0,0.0,0.0,0.0,0.0,0.0,0.0,0.0,0.0,0.0,
0.4872,2.9052613273034327,3.0800758094084806,3.065776472923336,0.0,0.0,0.07128186097909443,3.0170378698784166,0.0,0.0,0.0,0.0,0.0,0.0,0.0,0.0,0.0,0.0,0.0,0.0,0.0,0.0,
0.5007,2.905597071906646,3.080502809905106,3.0661683686207937,0.0,0.0,0.07131745743559949,3.0174227501441817,0.0,0.0,0.0,0.0,0.0,0.0,0.0,0.0,0.0,0.0,0.0,0.0,0.0,0.0,
0.5142,2.9059422286042897,3.080941826845526,3.0665712624961508,0.0,0.0,0.07135406583344207,3.017818439315322,0.0,0.0,0.0,0.0,0.0,0.0,0.0,0.0,0.0,0.0,0.0,0.0,0.0,0.0,
0.5278,2.906299478654609,3.0813962750193267,3.0669882854597748,0.0,0.0,0.0713919718944325,3.0182280130445704,0.0,0.0,0.0,0.0,0.0,0.0,0.0,0.0,0.0,0.0,0.0,0.0,0.0,0.0,
0.5413,2.9066635885099164,3.0818595009630263,3.0674133293469223,0.0,0.0,0.07143062152600638,3.018645472939955,0.0,0.0,0.0,0.0,0.0,0.0,0.0,0.0,0.0,0.0,0.0,0.0,0.0,0.0,
0.5548,2.9070371706293185,3.0823348318229598,3.0678494447229956,0.0,0.0,0.07147029311117913,3.019073815725091,0.0,0.0,0.0,0.0,0.0,0.0,0.0,0.0,0.0,0.0,0.0,0.0,0.0,0.0,
0.5684,2.9074231192341937,3.082825954939158,3.068300011516311,0.0,0.0,0.07151129546840004,3.0195163618965544,0.0,0.0,0.0,0.0,0.0,0.0,0.0,0.0,0.0,0.0,0.0,0.0,0.0,0.0,
0.5819,2.907815780473067,3.0833256800847515,3.0687584303862865,0.0,0.0,0.07155302926656122,3.019966630314702,0.0,0.0,0.0,0.0,0.0,0.0,0.0,0.0,0.0,0.0,0.0,0.0,0.0,0.0,
0.5954,2.9082179793281373,3.0838376063131276,3.069228000380619,0.0,0.0,0.0715957959130728,3.020427862007294,0.0,0.0,0.0,0.0,0.0,0.0,0.0,0.0,0.0,0.0,0.0,0.0,0.0,0.0,
0.609,2.9086328244970363,3.08436569574742,3.069712352290174,0.0,0.0,0.07163992757692893,3.02090362417821,0.0,0.0,0.0,0.0,0.0,0.0,0.0,0.0,0.0,0.0,0.0,0.0,0.0,0.0,
0.6225,2.9090542389516356,3.084902217175985,3.0702043920986495,0.0,0.0,0.07168477921119214,3.021386949408756,0.0,0.0,0.0,0.0,0.0,0.0,0.0,0.0,0.0,0.0,0.0,0.0,0.0,0.0,
0.636,2.909485261673883,3.0854510437380407,3.07070766913619,0.0,0.0,0.07173067549544933,3.0218813248493714,0.0,0.0,0.0,0.0,0.0,0.0,0.0,0.0,0.0,0.0,0.0,0.0,0.0,0.0,
0.6496,2.9099292174726887,3.0860164147545706,3.0712260670497775,0.0,0.0,0.07177797222419253,3.022390566425679,0.0,0.0,0.0,0.0,0.0,0.0,0.0,0.0,0.0,0.0,0.0,0.0,0.0,0.0,
0.6631,2.9103796030379243,3.0865900534623756,3.0717519933637165,0.0,0.0,0.07182597811773088,3.022907216621339,0.0,0.0,0.0,0.0,0.0,0.0,0.0,0.0,0.0,0.0,0.0,0.0,0.0,0.0,
0.6766,2.910839672949024,3.087176109446109,3.072289249638651,0.0,0.0,0.0718750413964881,3.0234350106779275,0.0,0.0,0.0,0.0,0.0,0.0,0.0,0.0,0.0,0.0,0.0,0.0,0.0,0.0,
0.6902,2.9113129698863407,3.0877791018264755,3.0728419745241706,0.0,0.0,0.07192554177710543,3.023978015412329,0.0,0.0,0.0,0.0,0.0,0.0,0.0,0.0,0.0,0.0,0.0,0.0,0.0,0.0,
0.7037,2.911792560914267,3.088390203367564,3.0734020730107283,0.0,0.0,0.07197674118941984,3.02452827909752,0.0,0.0,0.0,0.0,0.0,0.0,0.0,0.0,0.0,0.0,0.0,0.0,0.0,0.0,
0.7172,2.9122819179317,3.089013842644727,3.0739736009893925,0.0,0.0,0.07202901168486896,3.0250897871886067,0.0,0.0,0.0,0.0,0.0,0.0,0.0,0.0,0.0,0.0,0.0,0.0,0.0,0.0,
0.7308,2.9127848033788832,3.0896548213728563,3.074560954415579,0.0,0.0,0.07208275722128903,3.0256668597224396,0.0,0.0,0.0,0.0,0.0,0.0,0.0,0.0,0.0,0.0,0.0,0.0,0.0,0.0,
0.7443,2.913293851107211,3.090303756557951,3.075155531373461,0.0,0.0,0.07213719233827899,3.0262510463462076,0.0,0.0,0.0,0.0,0.0,0.0,0.0,0.0,0.0,0.0,0.0,0.0,0.0,0.0,
0.7578,2.9138127521843966,3.0909653585024675,3.0757616443400404,0.0,0.0,0.07219271323067494,3.0268465850089683,0.0,0.0,0.0,0.0,0.0,0.0,0.0,0.0,0.0,0.0,0.0,0.0,0.0,0.0,
0.7714,2.9143454908309994,3.0916447145082313,3.0763839490412805,0.0,0.0,0.07224974843970305,3.0274580514601706,0.0,0.0,0.0,0.0,0.0,0.0,0.0,0.0,0.0,0.0,0.0,0.0,0.0,0.0,
0.7849,2.9148842638473176,3.092331880163201,3.0770133319764157,0.0,0.0,0.07230746447156415,3.0280764919956447,0.0,0.0,0.0,0.0,0.0,0.0,0.0,0.0,0.0,0.0,0.0,0.0,0.0,0.0,
0.7984,2.915432983450185,3.093031850429993,3.077654364624041,0.0,0.0,0.0723662819998152,3.028706399501406,0.0,0.0,0.0,0.0,0.0,0.0,0.0,0.0,0.0,0.0,0.0,0.0,0.0,0.0,
0.812,2.915995857796687,3.093750001395061,3.0783119651114776,0.0,0.0,0.07242665451526063,3.029352608101075,0.0,0.0,0.0,0.0,0.0,0.0,0.0,0.0,0.0,0.0,0.0,0.0,0.0,0.0,
0.8255,2.9165646425403526,3.094475821182067,3.078976503359524,0.0,0.0,0.07248769980266109,3.0300056556939814,0.0,0.0,0.0,0.0,0.0,0.0,0.0,0.0,0.0,0.0,0.0,0.0,0.0,0.0,
0.839,2.917143473162125,3.095214592549961,3.0796528124288787,0.0,0.0,0.07254986337338219,3.030670292713655,0.0,0.0,0.0,0.0,0.0,0.0,0.0,0.0,0.0,0.0,0.0,0.0,0.0,0.0,
0.8526,2.9177367840519532,3.09597198377911,3.0803460756503718,0.0,0.0,0.0726136240588783,3.0313516144938117,0.0,0.0,0.0,0.0,0.0,0.0,0.0,0.0,0.0,0.0,0.0,0.0,0.0,0.0,
0.8661,2.9183358853556967,3.0967369090842447,3.081046141048705,0.0,0.0,0.07267805018794751,3.0320396451628824,0.0,0.0,0.0,0.0,0.0,0.0,0.0,0.0,0.0,0.0,0.0,0.0,0.0,0.0,
0.8796,2.9189451380722806,3.0975149423665225,3.0817581060169967,0.0,0.0,0.07274361249349429,3.0327393954852666,0.0,0.0,0.0,0.0,0.0,0.0,0.0,0.0,0.0,0.0,0.0,0.0,0.0,0.0,
0.8932,2.9195692052652906,3.098312047728787,3.0824874220688523,0.0,0.0,0.07281081556455543,3.033456225020977,0.0,0.0,0.0,0.0,0.0,0.0,0.0,0.0,0.0,0.0,0.0,0.0,0.0,0.0,
0.9067,2.9201989469387764,3.0991165586201546,3.0832234096806848,0.0,0.0,0.0728786774912428,3.034179638413205,0.0,0.0,0.0,0.0,0.0,0.0,0.0,0.0,0.0,0.0,0.0,0.0,0.0,0.0,
0.9202,2.9208389520068025,3.0999343436471003,3.0839714335039288,0.0,0.0,0.07294769463732309,3.034914909719278,0.0,0.0,0.0,0.0,0.0,0.0,0.0,0.0,0.0,0.0,0.0,0.0,0.0,0.0,
0.9338,2.921494114796835,3.100771666590628,3.0847372163971722,0.0,0.0,0.0730183977932627,3.035667665928212,0.0,0.0,0.0,0.0,0.0,0.0,0.0,0.0,0.0,0.0,0.0,0.0,0.0,0.0,
0.9473,2.922154840254786,3.101616272851382,3.085509545291209,0.0,0.0,0.07308975397768888,3.036426886132459,0.0,0.0,0.0,0.0,0.0,0.0,0.0,0.0,0.0,0.0,0.0,0.0,0.0,0.0,
0.9608,2.9228259477550584,3.1024743295291906,3.0862940552029214,0.0,0.0,0.07316228562118796,3.0371981108290567,0.0,0.0,0.0,0.0,0.0,0.0,0.0,0.0,0.0,0.0,0.0,0.0,0.0,0.0,
0.9744,2.923512565633957,3.1033524041749465,3.087096743687765,0.0,0.0,0.07323655018755232,3.0379872378322226,0.0,0.0,0.0,0.0,0.0,0.0,0.0,0.0,0.0,0.0,0.0,0.0,0.0,0.0,
0.9879,2.9242046385713913,3.104237646416022,3.0879058577765086,0.0,0.0,0.07331146273904492,3.0387827142546406,0.0,0.0,0.0,0.0,0.0,0.0,0.0,0.0,0.0,0.0,0.0,0.0,0.0,0.0,
1.0014,2.9249072191005334,3.1051365258672514,3.088727306146465,0.0,0.0,0.07338757223677349,3.0395903503714163,0.0,0.0,0.0,0.0,0.0,0.0,0.0,0.0,0.0,0.0,0.0,0.0,0.0,0.0,
1.015,2.925625672471792,3.1060559181864127,3.0895673645984125,0.0,0.0,0.07346546331903857,3.0404163184188726,0.0,0.0,0.0,0.0,0.0,0.0,0.0,0.0,0.0,0.0,0.0,0.0,0.0,0.0,
1.0285,2.9263494775895014,3.1069823690443785,3.090413733539107,0.0,0.0,0.07354399815260194,3.041248526724329,0.0,0.0,0.0,0.0,0.0,0.0,0.0,0.0,0.0,0.0,0.0,0.0,0.0,0.0,
1.042,2.9270839230028085,3.107922654835364,3.091272598795935,0.0,0.0,0.0736237527217504,3.042093058878036,0.0,0.0,0.0,0.0,0.0,0.0,0.0,0.0,0.0,0.0,0.0,0.0,0.0,0.0,
1.0556,2.9278346139478773,3.1088839639163908,3.092150518167595,0.0,0.0,0.07370533937108435,3.0429563653439544,0.0,0.0,0.0,0.0,0.0,0.0,0.0,0.0,0.0,0.0,0.0,0.0,0.0,0.0,
1.0691,2.928590557731306,3.109852229342167,3.0930346383297547,0.0,0.0,0.07378756637613663,3.0438258084677425,0.0,0.0,0.0,0.0,0.0,0.0,0.0,0.0,0.0,0.0,0.0,0.0,0.0,0.0,
1.0826,2.929357281940165,3.110834538803332,3.093931425951588,0.0,0.0,0.07387103726728592,3.0447077488983614,0.0,0.0,0.0,0.0,0.0,0.0,0.0,0.0,0.0,0.0,0.0,0.0,0.0,0.0,
1.0962,2.9301406350409445,3.1118383982147995,3.0948477247945783,0.0,0.0,0.07395639265927217,3.0456089193501072,0.0,0.0,0.0,0.0,0.0,0.0,0.0,0.0,0.0,0.0,0.0,0.0,0.0,0.0,
1.1097,2.9309291465961005,3.1128491188597227,3.0957701202986256,0.0,0.0,0.0740423858815531,3.046516128584816,0.0,0.0,0.0,0.0,0.0,0.0,0.0,0.0,0.0,0.0,0.0,0.0,0.0,0.0,
1.1232,2.9317285864236826,3.1138741045055003,3.0967053638764517,0.0,0.0,0.0741296485651867,3.047436018268545,0.0,0.0,0.0,0.0,0.0,0.0,0.0,0.0,0.0,0.0,0.0,0.0,0.0,0.0,
1.1368,2.932545049645043,3.1149211837616257,3.097660589438194,0.0,0.0,0.07421885019248355,3.048375607614954,0.0,0.0,0.0,0.0,0.0,0.0,0.0,0.0,0.0,0.0,0.0,0.0,0.0,0.0,
1.1503,2.933366581595271,3.1159750364677525,3.098621813270112,0.0,0.0,0.07430868803015465,3.049321143777712,0.0,0.0,0.0,0.0,0.0,0.0,0.0,0.0,0.0,0.0,0.0,0.0,0.0,0.0,
1.1638,2.9341991976944763,3.1170433875233594,3.0995960756488454,0.0,0.0,0.07439982239770739,3.050279553622227,0.0,0.0,0.0,0.0,0.0,0.0,0.0,0.0,0.0,0.0,0.0,0.0,0.0,0.0,
1.1774,2.9350492433309228,3.1181343936596355,3.100590805049394,0.0,0.0,0.07449295227772641,3.051258147346651,0.0,0.0,0.0,0.0,0.0,0.0,0.0,0.0,0.0,0.0,0.0,0.0,0.0,0.0,
1.1909,2.9359042727788562,3.119232093062241,3.1015914402567337,0.0,0.0,0.07458671769274788,3.05224260203261,0.0,0.0,0.0,0.0,0.0,0.0,0.0,0.0,0.0,0.0,0.0,0.0,0.0,0.0,
1.2044,2.9367705506169886,3.1203445371050993,3.1026053147595754,0.0,0.0,0.07468180827333605,3.053240134160555,0.0,0.0,0.0,0.0,0.0,0.0,0.0,0.0,0.0,0.0,0.0,0.0,0.0,0.0,
1.218,2.937654676307986,3.121480216372487,3.1036401562543845,0.0,0.0,0.07477895317212224,3.0542583496449525,0.0,0.0,0.0,0.0,0.0,0.0,0.0,0.0,0.0,0.0,0.0,0.0,0.0,0.0,
1.2315,2.938543705867315,3.1226225166228523,3.1046808172295,0.0,0.0,0.07487673391814395,3.055282346573222,0.0,0.0,0.0,0.0,0.0,0.0,0.0,0.0,0.0,0.0,0.0,0.0,0.0,0.0,
1.245,2.939444156782133,3.123779821347606,3.105734928971582,0.0,0.0,0.07497587011222932,3.05631963570044,0.0,0.0,0.0,0.0,0.0,0.0,0.0,0.0,0.0,0.0,0.0,0.0,0.0,0.0,
1.2586,2.9403628866012834,3.124960961034176,3.1068105233063688,0.0,0.0,0.07507712178585693,3.057378123647276,0.0,0.0,0.0,0.0,0.0,0.0,0.0,0.0,0.0,0.0,0.0,0.0,0.0,0.0,
1.2721,2.9412864455034553,3.1261486576523407,3.107891857163344,0.0,0.0,0.07517901065394929,3.05844232010638,0.0,0.0,0.0,0.0,0.0,0.0,0.0,0.0,0.0,0.0,0.0,0.0,0.0,0.0,
1.2856,2.9422216078359984,3.127351632768829,3.1089868644612757,0.0,0.0,0.0752822869853324,3.059520035022034,0.0,0.0,0.0,0.0,0.0,0.0,0.0,0.0,0.0,0.0,0.0,0.0,0.0,0.0,
1.2991,2.943168436229602,3.128569980761915,3.1100956218114586,0.0,0.0,0.07538696182509005,3.0606113462676583,0.0,0.0,0.0,0.0,0.0,0.0,0.0,0.0,0.0,0.0,0.0,0.0,0.0,0.0,
1.3127,2.944134138740763,3.129812995026325,3.1112265743782745,0.0,0.0,0.07549383752398316,3.061724569381788,0.0,0.0,0.0,0.0,0.0,0.0,0.0,0.0,0.0,0.0,0.0,0.0,0.0,0.0,
1.3262,2.945104579050752,3.1310624943013767,3.1123631702630874,0.0,0.0,0.07560135391164742,3.062843414538405,0.0,0.0,0.0,0.0,0.0,0.0,0.0,0.0,0.0,0.0,0.0,0.0,0.0,0.0,
1.3397,2.9460868802833478,3.1323276604749957,3.113513754608434,0.0,0.0,0.07571030327710163,3.0639760984555924,0.0,0.0,0.0,0.0,0.0,0.0,0.0,0.0,0.0,0.0,0.0,0.0,0.0,0.0,
1.3533,2.9470885187862055,3.1336181422867253,3.1146870891988923,0.0,0.0,0.07582152066705515,3.0651312500906074,0.0,0.0,0.0,0.0,0.0,0.0,0.0,0.0,0.0,0.0,0.0,0.0,0.0,0.0,
1.3668,2.9480948331561936,3.1349150657409988,3.1158660030400416,0.0,0.0,0.07593338271856373,3.066291967312411,0.0,0.0,0.0,0.0,0.0,0.0,0.0,0.0,0.0,0.0,0.0,0.0,0.0,0.0,
1.3803,2.9491132134323044,3.1362279660111017,3.1170591562131857,0.0,0.0,0.07604671417777562,3.067466778552197,0.0,0.0,0.0,0.0,0.0,0.0,0.0,0.0,0.0,0.0,0.0,0.0,0.0,0.0,
1.3939,2.9501514090170504,3.1375668544144655,3.118275632957054,0.0,0.0,0.07616238364239794,3.0686646321295235,0.0,0.0,0.0,0.0,0.0,0.0,0.0,0.0,0.0,0.0,0.0,0.0,0.0,0.0,
1.4074,2.9511942244525016,3.138912150687526,3.1194976322064956,0.0,0.0,0.07627870297070878,3.069868002448841,0.0,0.0,0.0,0.0,0.0,0.0,0.0,0.0,0.0,0.0,0.0,0.0,0.0,0.0,
1.4209,2.952249321387541,3.140273750414913,3.1207341347307307,0.0,0.0,0.07639653020801628,3.0710857355110615,0.0,0.0,0.0,0.0,0.0,0.0,0.0,0.0,0.0,0.0,0.0,0.0,0.0,0.0,
1.4345,2.9533247272933485,3.141662035121617,3.1219945533649063,0.0,0.0,0.07651676840755763,3.0723271052599572,0.0,0.0,0.0,0.0,0.0,0.0,0.0,0.0,0.0,0.0,0.0,0.0,0.0,0.0,
1.448,2.9544047032260723,3.1430567040191213,3.1232604454308928,0.0,0.0,0.07663766297332882,3.0735739508920283,0.0,0.0,0.0,0.0,0.0,0.0,0.0,0.0,0.0,0.0,0.0,0.0,0.0,0.0,
1.4615,2.9554971873861122,3.144468020620711,3.12454111843937,0.0,0.0,0.07676010614063039,3.0748354421487307,0.0,0.0,0.0,0.0,0.0,0.0,0.0,0.0,0.0,0.0,0.0,0.0,0.0,0.0,
1.4751,2.956610490589865,3.1459067447067817,3.1258463202883955,0.0,0.0,0.07688503637520512,3.076121185195014,0.0,0.0,0.0,0.0,0.0,0.0,0.0,0.0,0.0,0.0,0.0,0.0,0.0,0.0,
1.4886,2.9577283204934024,3.1473518399454776,3.127156954549544,0.0,0.0,0.07701063085689588,3.077412371662808,0.0,0.0,0.0,0.0,0.0,0.0,0.0,0.0,0.0,0.0,0.0,0.0,0.0,0.0,
1.5021,2.958858897049735,3.1488139457087647,3.1284826618485533,0.0,0.0,0.07713781695353933,3.0787185015356844,0.0,0.0,0.0,0.0,0.0,0.0,0.0,0.0,0.0,0.0,0.0,0.0,0.0,0.0,
1.5157,2.9600108199735415,3.1503042085222326,3.129833531954323,0.0,0.0,0.07726756955602655,3.0800495201500326,0.0,0.0,0.0,0.0,0.0,0.0,0.0,0.0,0.0,0.0,0.0,0.0,0.0,0.0,
1.5292,2.961167233099667,3.1518008406900444,3.131189801925676,0.0,0.0,0.07739799575033289,3.0813859585717958,0.0,0.0,0.0,0.0,0.0,0.0,0.0,0.0,0.0,0.0,0.0,0.0,0.0,0.0,
1.5427,2.9623366436078165,3.153314865808816,3.132561452214113,0.0,0.0,0.07753005903425673,3.082737653876915,0.0,0.0,0.0,0.0,0.0,0.0,0.0,0.0,0.0,0.0,0.0,0.0,0.0,0.0,
1.5563,2.96352794595535,3.154857826106592,3.1339589216271695,0.0,0.0,0.07766477179563576,3.08411489789637,0.0,0.0,0.0,0.0,0.0,0.0,0.0,0.0,0.0,0.0,0.0,0.0,0.0,0.0,
1.5698,2.964723709201964,3.156407165856804,3.135361767291357,0.0,0.0,0.07780016905110505,3.0854975474500415,0.0,0.0,0.0,0.0,0.0,0.0,0.0,0.0,0.0,0.0,0.0,0.0,0.0,0.0,
1.5833,2.9659327335156256,3.1579743017078266,3.136780316549717,0.0,0.0,0.07793725148416093,3.086895783924389,0.0,0.0,0.0,0.0,0.0,0.0,0.0,0.0,0.0,0.0,0.0,0.0,0.0,0.0,
1.5969,2.9671642142482617,3.159571181042446,3.1382253647963014,0.0,0.0,0.07807707011435029,3.0883202533623364,0.0,0.0,0.0,0.0,0.0,0.0,0.0,0.0,0.0,0.0,0.0,0.0,0.0,0.0,
