energies(eV),real_xx,real_yy,real_zz,real_xy,real_yz,real_xz,real_ave,imag_xx,imag_yy,imag_zz,imag_xy,imag_yz,imag_xz,imag_ave,absorption_xx,absorption_yy,absorption_zz,absorption_xy,absorption_yz,absorption_xz,absorption_ave,band_gap
0.0,3.726315227654473,3.726315227654473,3.726315227654473,0.0,0.0,0.0,3.726315227654473,0.0,0.0,0.0,0.0,0.0,0.0,0.0,0.0,0.0,0.0,0.0,0.0,0.0,0.0,5.8529
0.0241,3.726329500649169,3.726329500649169,3.726329500649169,0.0,0.0,0.0,3.7263295006491695,0.0,0.0,0.0,0.0,0.0,0.0,0.0,0.0,0.0,0.0,0.0,0.0,0.0,0.0,
0.0482,3.7263723208581636,3.7263723208581636,3.7263723208581636,0.0,0.0,0.0,3.726372320858163,0.0,0.0,0.0,0.0,0.0,0.0,0.0,0.0,0.0,0.0,0.0,0.0,0.0,0.0,
0.0723,3.7264436919565407,3.7264436919565407,3.7264436919565407,0.0,0.0,0.0,3.726443691956541,0.0,0.0,0.0,0.0,0.0,0.0,0.0,0.0,0.0,0.0,0.0,0.0,0.0,0.0,
0.0964,3.726543620070395,3.726543620070395,3.726543620070395,0.0,0.0,0.0,3.726543620070395,0.0,0.0,0.0,0.0,0.0,0.0,0.0,0.0,0.0,0.0,0.0,0.0,0.0,0.0,
0.1204,3.7266715215764625,3.7266715215764625,3.7266715215764625,0.0,0.0,0.0,3.726671521576462,0.0,0.0,0.0,0.0,0.0,0.0,0.0,0.0,0.0,0.0,0.0,0.0,0.0,0.0,
0.1445,3.7268284733108987,3.7268284733108987,3.7268284733108987,0.0,0.0,0.0,3.7268284733108987,0.0,0.0,0.0,0.0,0.0,0.0,0.0,0.0,0.0,0.0,0.0,0.0,0.0,0.0,
0.1686,3.7270140151028706,3.7270140151028706,3.7270140151028706,0.0,0.0,0.0,3.7270140151028706,0.0,0.0,0.0,0.0,0.0,0.0,0.0,0.0,0.0,0.0,0.0,0.0,0.0,0.0,
0.1927,3.7272281628939647,3.7272281628939647,3.7272281628939647,0.0,0.0,0.0,3.7272281628939647,0.0,0.0,0.0,0.0,0.0,0.0,0.0,0.0,0.0,0.0,0.0,0.0,0.0,0.0,
0.2168,3.727470935090467,3.727470935090467,3.727470935090467,0.0,0.0,0.0,3.727470935090467,0.0,0.0,0.0,0.0,0.0,0.0,0.0,0.0,0.0,0.0,0.0,0.0,0.0,0.0,
0.2409,3.7277423525681486,3.7277423525681486,3.7277423525681486,0.0,0.0,0.0,3.7277423525681486,0.0,0.0,0.0,0.0,0.0,0.0,0.0,0.0,0.0,0.0,0.0,0.0,0.0,0.0,
0.265,3.7280424386772673,3.7280424386772673,3.7280424386772673,0.0,0.0,0.0,3.7280424386772673,0.0,0.0,0.0,0.0,0.0,0.0,0.0,0.0,0.0,0.0,0.0,0.0,0.0,0.0,
0.2891,3.728371219248563,3.728371219248563,3.728371219248563,0.0,0.0,0.0,3.728371219248563,0.0,0.0,0.0,0.0,0.0,0.0,0.0,0.0,0.0,0.0,0.0,0.0,0.0,0.0,
0.3132,3.72872872259967,3.72872872259967,3.72872872259967,0.0,0.0,0.0,3.7287287225996706,0.0,0.0,0.0,0.0,0.0,0.0,0.0,0.0,0.0,0.0,0.0,0.0,0.0,0.0,
0.3373,3.7291149795421346,3.7291149795421346,3.7291149795421346,0.0,0.0,0.0,3.729114979542134,0.0,0.0,0.0,0.0,0.0,0.0,0.0,0.0,0.0,0.0,0.0,0.0,0.0,0.0,
0.3613,3.729528241691171,3.729528241691171,3.729528241691171,0.0,0.0,0.0,3.729528241691171,0.0,0.0,0.0,0.0,0.0,0.0,0.0,0.0,0.0,0.0,0.0,0.0,0.0,0.0,
0.3854,3.729971988592334,3.729971988592334,3.729971988592334,0.0,0.0,0.0,3.729971988592334,0.0,0.0,0.0,0.0,0.0,0.0,0.0,0.0,0.0,0.0,0.0,0.0,0.0,0.0,
0.4095,3.7304445963994413,3.7304445963994413,3.7304445963994413,0.0,0.0,0.0,3.7304445963994417,0.0,0.0,0.0,0.0,0.0,0.0,0.0,0.0,0.0,0.0,0.0,0.0,0.0,0.0,
0.4336,3.730946105972962,3.730946105972962,3.730946105972962,0.0,0.0,0.0,3.730946105972962,0.0,0.0,0.0,0.0,0.0,0.0,0.0,0.0,0.0,0.0,0.0,0.0,0.0,0.0,
0.4577,3.7314765607122804,3.7314765607122804,3.7314765607122804,0.0,0.0,0.0,3.7314765607122804,0.0,0.0,0.0,0.0,0.0,0.0,0.0,0.0,0.0,0.0,0.0,0.0,0.0,0.0,
0.4818,3.7320360065666605,3.7320360065666605,3.7320360065666605,0.0,0.0,0.0,3.7320360065666605,0.0,0.0,0.0,0.0,0.0,0.0,0.0,0.0,0.0,0.0,0.0,0.0,0.0,0.0,
0.5059,3.732624492046826,3.732624492046826,3.732624492046826,0.0,0.0,0.0,3.732624492046826,0.0,0.0,0.0,0.0,0.0,0.0,0.0,0.0,0.0,0.0,0.0,0.0,0.0,0.0,
0.53,3.733242068237181,3.733242068237181,3.733242068237181,0.0,0.0,0.0,3.7332420682371805,0.0,0.0,0.0,0.0,0.0,0.0,0.0,0.0,0.0,0.0,0.0,0.0,0.0,0.0,
0.5541,3.7338887888088244,3.7338887888088244,3.7338887888088244,0.0,0.0,0.0,3.7338887888088244,0.0,0.0,0.0,0.0,0.0,0.0,0.0,0.0,0.0,0.0,0.0,0.0,0.0,0.0,
0.5781,3.7345618449698113,3.7345618449698113,3.7345618449698113,0.0,0.0,0.0,3.7345618449698113,0.0,0.0,0.0,0.0,0.0,0.0,0.0,0.0,0.0,0.0,0.0,0.0,0.0,0.0,
0.6022,3.735266904198631,3.735266904198631,3.735266904198631,0.0,0.0,0.0,3.7352669041986304,0.0,0.0,0.0,0.0,0.0,0.0,0.0,0.0,0.0,0.0,0.0,0.0,0.0,0.0,
0.6263,3.7360012842209485,3.7360012842209485,3.7360012842209485,0.0,0.0,0.0,3.7360012842209485,0.0,0.0,0.0,0.0,0.0,0.0,0.0,0.0,0.0,0.0,0.0,0.0,0.0,0.0,
0.6504,3.7367650491866344,3.7367650491866344,3.7367650491866344,0.0,0.0,0.0,3.736765049186635,0.0,0.0,0.0,0.0,0.0,0.0,0.0,0.0,0.0,0.0,0.0,0.0,0.0,0.0,
0.6745,3.7375582659072326,3.7375582659072326,3.7375582659072326,0.0,0.0,0.0,3.7375582659072326,0.0,0.0,0.0,0.0,0.0,0.0,0.0,0.0,0.0,0.0,0.0,0.0,0.0,0.0,
0.6986,3.738381003873025,3.738381003873025,3.738381003873025,0.0,0.0,0.0,3.738381003873025,0.0,0.0,0.0,0.0,0.0,0.0,0.0,0.0,0.0,0.0,0.0,0.0,0.0,0.0,
0.7227,3.739233335270955,3.739233335270955,3.739233335270955,0.0,0.0,0.0,3.739233335270955,0.0,0.0,0.0,0.0,0.0,0.0,0.0,0.0,0.0,0.0,0.0,0.0,0.0,0.0,
0.7468,3.740115335003207,3.740115335003207,3.740115335003207,0.0,0.0,0.0,3.740115335003207,0.0,0.0,0.0,0.0,0.0,0.0,0.0,0.0,0.0,0.0,0.0,0.0,0.0,0.0,
0.7709,3.7410270807065844,3.7410270807065844,3.7410270807065844,0.0,0.0,0.0,3.741027080706585,0.0,0.0,0.0,0.0,0.0,0.0,0.0,0.0,0.0,0.0,0.0,0.0,0.0,0.0,
0.7949,3.741964684097471,3.741964684097471,3.741964684097471,0.0,0.0,0.0,3.741964684097471,0.0,0.0,0.0,0.0,0.0,0.0,0.0,0.0,0.0,0.0,0.0,0.0,0.0,0.0,
0.819,3.7429360414114083,3.7429360414114083,3.7429360414114083,0.0,0.0,0.0,3.7429360414114083,0.0,0.0,0.0,0.0,0.0,0.0,0.0,0.0,0.0,0.0,0.0,0.0,0.0,0.0,
0.8431,3.743937393856703,3.743937393856703,3.743937393856703,0.0,0.0,0.0,3.743937393856703,0.0,0.0,0.0,0.0,0.0,0.0,0.0,0.0,0.0,0.0,0.0,0.0,0.0,0.0,
0.8672,3.744968830205517,3.744968830205517,3.744968830205517,0.0,0.0,0.0,3.744968830205517,0.0,0.0,0.0,0.0,0.0,0.0,0.0,0.0,0.0,0.0,0.0,0.0,0.0,0.0,
0.8913,3.7460304420728474,3.7460304420728474,3.7460304420728474,0.0,0.0,0.0,3.7460304420728474,0.0,0.0,0.0,0.0,0.0,0.0,0.0,0.0,0.0,0.0,0.0,0.0,0.0,0.0,
0.9154,3.7471223239405385,3.7471223239405385,3.7471223239405385,0.0,0.0,0.0,3.747122323940539,0.0,0.0,0.0,0.0,0.0,0.0,0.0,0.0,0.0,0.0,0.0,0.0,0.0,0.0,
0.9395,3.7482445731822662,3.7482445731822662,3.7482445731822662,0.0,0.0,0.0,3.7482445731822662,0.0,0.0,0.0,0.0,0.0,0.0,0.0,0.0,0.0,0.0,0.0,0.0,0.0,0.0,
0.9636,3.7493972900891426,3.7493972900891426,3.7493972900891426,0.0,0.0,0.0,3.7493972900891426,0.0,0.0,0.0,0.0,0.0,0.0,0.0,0.0,0.0,0.0,0.0,0.0,0.0,0.0,
0.9877,3.75058057789647,3.75058057789647,3.75058057789647,0.0,0.0,0.0,3.75058057789647,0.0,0.0,0.0,0.0,0.0,0.0,0.0,0.0,0.0,0.0,0.0,0.0,0.0,0.0,
1.0118,3.751794542810982,3.751794542810982,3.751794542810982,0.0,0.0,0.0,3.751794542810982,0.0,0.0,0.0,0.0,0.0,0.0,0.0,0.0,0.0,0.0,0.0,0.0,0.0,0.0,
1.0358,3.7530340653364047,3.7530340653364047,3.7530340653364047,0.0,0.0,0.0,3.7530340653364047,0.0,0.0,0.0,0.0,0.0,0.0,0.0,0.0,0.0,0.0,0.0,0.0,0.0,0.0,
1.0599,3.754309586668965,3.754309586668965,3.754309586668965,0.0,0.0,0.0,3.754309586668965,0.0,0.0,0.0,0.0,0.0,0.0,0.0,0.0,0.0,0.0,0.0,0.0,0.0,0.0,
1.084,3.755616121361909,3.755616121361909,3.755616121361909,0.0,0.0,0.0,3.755616121361909,0.0,0.0,0.0,0.0,0.0,0.0,0.0,0.0,0.0,0.0,0.0,0.0,0.0,0.0,
1.1081,3.7569537877881145,3.7569537877881145,3.7569537877881145,0.0,0.0,0.0,3.7569537877881145,0.0,0.0,0.0,0.0,0.0,0.0,0.0,0.0,0.0,0.0,0.0,0.0,0.0,0.0,
1.1322,3.758322707442801,3.758322707442801,3.758322707442801,0.0,0.0,0.0,3.758322707442801,0.0,0.0,0.0,0.0,0.0,0.0,0.0,0.0,0.0,0.0,0.0,0.0,0.0,0.0,
1.1563,3.759723004976717,3.759723004976717,3.759723004976717,0.0,0.0,0.0,3.759723004976717,0.0,0.0,0.0,0.0,0.0,0.0,0.0,0.0,0.0,0.0,0.0,0.0,0.0,0.0,
1.1804,3.7611548082300055,3.7611548082300055,3.7611548082300055,0.0,0.0,0.0,3.7611548082300055,0.0,0.0,0.0,0.0,0.0,0.0,0.0,0.0,0.0,0.0,0.0,0.0,0.0,0.0,
1.2045,3.762618248267354,3.762618248267354,3.762618248267354,0.0,0.0,0.0,3.7626182482673536,0.0,0.0,0.0,0.0,0.0,0.0,0.0,0.0,0.0,0.0,0.0,0.0,0.0,0.0,
1.2286,3.7641134594140593,3.7641134594140593,3.7641134594140593,0.0,0.0,0.0,3.7641134594140593,0.0,0.0,0.0,0.0,0.0,0.0,0.0,0.0,0.0,0.0,0.0,0.0,0.0,0.0,
1.2526,3.7656341765774903,3.7656341765774903,3.7656341765774903,0.0,0.0,0.0,3.7656341765774903,0.0,0.0,0.0,0.0,0.0,0.0,0.0,0.0,0.0,0.0,0.0,0.0,0.0,0.0,
1.2767,3.7671932128655974,3.7671932128655974,3.7671932128655974,0.0,0.0,0.0,3.7671932128655974,0.0,0.0,0.0,0.0,0.0,0.0,0.0,0.0,0.0,0.0,0.0,0.0,0.0,0.0,
1.3008,3.7687844425731156,3.7687844425731156,3.7687844425731156,0.0,0.0,0.0,3.7687844425731156,0.0,0.0,0.0,0.0,0.0,0.0,0.0,0.0,0.0,0.0,0.0,0.0,0.0,0.0,
1.3249,3.7704080134354925,3.7704080134354925,3.7704080134354925,0.0,0.0,0.0,3.7704080134354925,0.0,0.0,0.0,0.0,0.0,0.0,0.0,0.0,0.0,0.0,0.0,0.0,0.0,0.0,
1.349,3.7720640766452527,3.7720640766452527,3.7720640766452527,0.0,0.0,0.0,3.7720640766452527,0.0,0.0,0.0,0.0,0.0,0.0,0.0,0.0,0.0,0.0,0.0,0.0,0.0,0.0,
1.3731,3.773752786894577,3.773752786894577,3.773752786894577,0.0,0.0,0.0,3.7737527868945775,0.0,0.0,0.0,0.0,0.0,0.0,0.0,0.0,0.0,0.0,0.0,0.0,0.0,0.0,
1.3972,3.7754743024193522,3.7754743024193522,3.7754743024193522,0.0,0.0,0.0,3.7754743024193522,0.0,0.0,0.0,0.0,0.0,0.0,0.0,0.0,0.0,0.0,0.0,0.0,0.0,0.0,
1.4213,3.7772287850442745,3.7772287850442745,3.7772287850442745,0.0,0.0,0.0,3.7772287850442745,0.0,0.0,0.0,0.0,0.0,0.0,0.0,0.0,0.0,0.0,0.0,0.0,0.0,0.0,
1.4454,3.7790164002292084,3.7790164002292084,3.7790164002292084,0.0,0.0,0.0,3.7790164002292084,0.0,0.0,0.0,0.0,0.0,0.0,0.0,0.0,0.0,0.0,0.0,0.0,0.0,0.0,
1.4694,3.780829692404813,3.780829692404813,3.780829692404813,0.0,0.0,0.0,3.780829692404813,0.0,0.0,0.0,0.0,0.0,0.0,0.0,0.0,0.0,0.0,0.0,0.0,0.0,0.0,
1.4935,3.7826839446087495,3.7826839446087495,3.7826839446087495,0.0,0.0,0.0,3.7826839446087495,0.0,0.0,0.0,0.0,0.0,0.0,0.0,0.0,0.0,0.0,0.0,0.0,0.0,0.0,
1.5176,3.784571847305778,3.784571847305778,3.784571847305778,0.0,0.0,0.0,3.7845718473057786,0.0,0.0,0.0,0.0,0.0,0.0,0.0,0.0,0.0,0.0,0.0,0.0,0.0,0.0,
1.5417,3.7864935809704288,3.7864935809704288,3.7864935809704288,0.0,0.0,0.0,3.7864935809704288,0.0,0.0,0.0,0.0,0.0,0.0,0.0,0.0,0.0,0.0,0.0,0.0,0.0,0.0,
1.5658,3.7884493299638913,3.7884493299638913,3.7884493299638913,0.0,0.0,0.0,3.7884493299638913,0.0,0.0,0.0,0.0,0.0,0.0,0.0,0.0,0.0,0.0,0.0,0.0,0.0,0.0,
1.5899,3.790439282588604,3.790439282588604,3.790439282588604,0.0,0.0,0.0,3.790439282588604,0.0,0.0,0.0,0.0,0.0,0.0,0.0,0.0,0.0,0.0,0.0,0.0,0.0,0.0,
1.614,3.7924636311441113,3.7924636311441113,3.7924636311441113,0.0,0.0,0.0,3.7924636311441113,0.0,0.0,0.0,0.0,0.0,0.0,0.0,0.0,0.0,0.0,0.0,0.0,0.0,0.0,
1.6381,3.79452257198467,3.79452257198467,3.79452257198467,0.0,0.0,0.0,3.79452257198467,0.0,0.0,0.0,0.0,0.0,0.0,0.0,0.0,0.0,0.0,0.0,0.0,0.0,0.0,
1.6622,3.7966163055782136,3.7966163055782136,3.7966163055782136,0.0,0.0,0.0,3.7966163055782136,0.0,0.0,0.0,0.0,0.0,0.0,0.0,0.0,0.0,0.0,0.0,0.0,0.0,0.0,
1.6863,3.7987450365670385,3.7987450365670385,3.7987450365670385,0.0,0.0,0.0,3.798745036567039,0.0,0.0,0.0,0.0,0.0,0.0,0.0,0.0,0.0,0.0,0.0,0.0,0.0,0.0,
1.7103,3.8008999218066344,3.8008999218066344,3.8008999218066344,0.0,0.0,0.0,3.8008999218066344,0.0,0.0,0.0,0.0,0.0,0.0,0.0,0.0,0.0,0.0,0.0,0.0,0.0,0.0,
1.7344,3.8030991311076954,3.8030991311076954,3.8030991311076954,0.0,0.0,0.0,3.8030991311076954,0.0,0.0,0.0,0.0,0.0,0.0,0.0,0.0,0.0,0.0,0.0,0.0,0.0,0.0,
1.7585,3.8053339764955347,3.8053339764955347,3.8053339764955347,0.0,0.0,0.0,3.8053339764955347,0.0,0.0,0.0,0.0,0.0,0.0,0.0,0.0,0.0,0.0,0.0,0.0,0.0,0.0,
1.7826,3.8076046799302716,3.8076046799302716,3.8076046799302716,0.0,0.0,0.0,3.8076046799302716,0.0,0.0,0.0,0.0,0.0,0.0,0.0,0.0,0.0,0.0,0.0,0.0,0.0,0.0,
1.8067,3.8099114678743056,3.8099114678743056,3.8099114678743056,0.0,0.0,0.0,3.8099114678743056,0.0,0.0,0.0,0.0,0.0,0.0,0.0,0.0,0.0,0.0,0.0,0.0,0.0,0.0,
1.8308,3.8122545713631895,3.8122545713631895,3.8122545713631895,0.0,0.0,0.0,3.8122545713631895,0.0,0.0,0.0,0.0,0.0,0.0,0.0,0.0,0.0,0.0,0.0,0.0,0.0,0.0,
1.8549,3.814634226078629,3.814634226078629,3.814634226078629,0.0,0.0,0.0,3.814634226078629,0.0,0.0,0.0,0.0,0.0,0.0,0.0,0.0,0.0,0.0,0.0,0.0,0.0,0.0,
1.879,3.8170506724232185,3.8170506724232185,3.8170506724232185,0.0,0.0,0.0,3.817050672423219,0.0,0.0,0.0,0.0,0.0,0.0,0.0,0.0,0.0,0.0,0.0,0.0,0.0,0.0,
1.9031,3.819504155597249,3.819504155597249,3.819504155597249,0.0,0.0,0.0,3.819504155597249,0.0,0.0,0.0,0.0,0.0,0.0,0.0,0.0,0.0,0.0,0.0,0.0,0.0,0.0,
1.9271,3.8219845131454444,3.8219845131454444,3.8219845131454444,0.0,0.0,0.0,3.8219845131454444,0.0,0.0,0.0,0.0,0.0,0.0,0.0,0.0,0.0,0.0,0.0,0.0,0.0,0.0,
1.9512,3.824512668856928,3.824512668856928,3.824512668856928,0.0,0.0,0.0,3.824512668856928,0.0,0.0,0.0,0.0,0.0,0.0,0.0,0.0,0.0,0.0,0.0,0.0,0.0,0.0,
1.9753,3.827078625494426,3.827078625494426,3.827078625494426,0.0,0.0,0.0,3.827078625494426,0.0,0.0,0.0,0.0,0.0,0.0,0.0,0.0,0.0,0.0,0.0,0.0,0.0,0.0,
1.9994,3.8296826482373962,3.8296826482373962,3.8296826482373962,0.0,0.0,0.0,3.8296826482373962,0.0,0.0,0.0,0.0,0.0,0.0,0.0,0.0,0.0,0.0,0.0,0.0,0.0,0.0,
2.0235,3.832325007478609,3.832325007478609,3.832325007478609,0.0,0.0,0.0,3.832325007478609,0.0,0.0,0.0,0.0,0.0,0.0,0.0,0.0,0.0,0.0,0.0,0.0,0.0,0.0,
2.0476,3.835005978914038,3.835005978914038,3.835005978914038,0.0,0.0,0.0,3.835005978914038,0.0,0.0,0.0,0.0,0.0,0.0,0.0,0.0,0.0,0.0,0.0,0.0,0.0,0.0,
2.0717,3.837725843635098,3.837725843635098,3.837725843635098,0.0,0.0,0.0,3.837725843635098,0.0,0.0,0.0,0.0,0.0,0.0,0.0,0.0,0.0,0.0,0.0,0.0,0.0,0.0,
2.0958,3.8404848882236964,3.8404848882236964,3.8404848882236964,0.0,0.0,0.0,3.840484888223697,0.0,0.0,0.0,0.0,0.0,0.0,0.0,0.0,0.0,0.0,0.0,0.0,0.0,0.0,
2.1199,3.843283404849559,3.843283404849559,3.843283404849559,0.0,0.0,0.0,3.843283404849559,0.0,0.0,0.0,0.0,0.0,0.0,0.0,0.0,0.0,0.0,0.0,0.0,0.0,0.0,
2.144,3.846121691370192,3.846121691370192,3.846121691370192,0.0,0.0,0.0,3.846121691370192,0.0,0.0,0.0,0.0,0.0,0.0,0.0,0.0,0.0,0.0,0.0,0.0,0.0,0.0,
2.168,3.8489880248125115,3.8489880248125115,3.8489880248125115,0.0,0.0,0.0,3.8489880248125115,0.0,0.0,0.0,0.0,0.0,0.0,0.0,0.0,0.0,0.0,0.0,0.0,0.0,0.0,
2.1921,3.851906599750962,3.851906599750962,3.851906599750962,0.0,0.0,0.0,3.851906599750962,0.0,0.0,0.0,0.0,0.0,0.0,0.0,0.0,0.0,0.0,0.0,0.0,0.0,0.0,
2.2162,3.854865872003626,3.854865872003626,3.854865872003626,0.0,0.0,0.0,3.8548658720036264,0.0,0.0,0.0,0.0,0.0,0.0,0.0,0.0,0.0,0.0,0.0,0.0,0.0,0.0,
2.2403,3.8578661632095312,3.8578661632095312,3.8578661632095312,0.0,0.0,0.0,3.8578661632095312,0.0,0.0,0.0,0.0,0.0,0.0,0.0,0.0,0.0,0.0,0.0,0.0,0.0,0.0,
2.2644,3.860907801237605,3.860907801237605,3.860907801237605,0.0,0.0,0.0,3.860907801237605,0.0,0.0,0.0,0.0,0.0,0.0,0.0,0.0,0.0,0.0,0.0,0.0,0.0,0.0,
2.2885,3.8639911203039294,3.8639911203039294,3.8639911203039294,0.0,0.0,0.0,3.8639911203039294,0.0,0.0,0.0,0.0,0.0,0.0,0.0,0.0,0.0,0.0,0.0,0.0,0.0,0.0,
2.3126,3.8671164610927,3.8671164610927,3.8671164610927,0.0,0.0,0.0,3.8671164610927,0.0,0.0,0.0,0.0,0.0,0.0,0.0,0.0,0.0,0.0,0.0,0.0,0.0,0.0,
2.3367,3.8702841708801365,3.8702841708801365,3.8702841708801365,0.0,0.0,0.0,3.8702841708801365,0.0,0.0,0.0,0.0,0.0,0.0,0.0,0.0,0.0,0.0,0.0,0.0,0.0,0.0,
2.3608,3.873494603662089,3.873494603662089,3.873494603662089,0.0,0.0,0.0,3.8734946036620896,0.0,0.0,0.0,0.0,0.0,0.0,0.0,0.0,0.0,0.0,0.0,0.0,0.0,0.0,
2.3848,3.8767345306981276,3.8767345306981276,3.8767345306981276,0.0,0.0,0.0,3.8767345306981276,0.0,0.0,0.0,0.0,0.0,0.0,0.0,0.0,0.0,0.0,0.0,0.0,0.0,0.0,
2.4089,3.88003131792641,3.88003131792641,3.88003131792641,0.0,0.0,0.0,3.88003131792641,0.0,0.0,0.0,0.0,0.0,0.0,0.0,0.0,0.0,0.0,0.0,0.0,0.0,0.0,
2.433,3.883371930211853,3.883371930211853,3.883371930211853,0.0,0.0,0.0,3.883371930211853,0.0,0.0,0.0,0.0,0.0,0.0,0.0,0.0,0.0,0.0,0.0,0.0,0.0,0.0,
2.4571,3.8867567497453517,3.8867567497453517,3.8867567497453517,0.0,0.0,0.0,3.8867567497453517,0.0,0.0,0.0,0.0,0.0,0.0,0.0,0.0,0.0,0.0,0.0,0.0,0.0,0.0,
2.4812,3.8901861661294896,3.8901861661294896,3.8901861661294896,0.0,0.0,0.0,3.89018616612949,0.0,0.0,0.0,0.0,0.0,0.0,0.0,0.0,0.0,0.0,0.0,0.0,0.0,0.0,
2.5053,3.893660576528943,3.893660576528943,3.893660576528943,0.0,0.0,0.0,3.893660576528943,0.0,0.0,0.0,0.0,0.0,0.0,0.0,0.0,0.0,0.0,0.0,0.0,0.0,0.0,
2.5294,3.8971803858251777,3.8971803858251777,3.8971803858251777,0.0,0.0,0.0,3.897180385825178,0.0,0.0,0.0,0.0,0.0,0.0,0.0,0.0,0.0,0.0,0.0,0.0,0.0,0.0,
2.5535,3.9007460067754955,3.9007460067754955,3.9007460067754955,0.0,0.0,0.0,3.9007460067754955,0.0,0.0,0.0,0.0,0.0,0.0,0.0,0.0,0.0,0.0,0.0,0.0,0.0,0.0,
2.5776,3.9043578601767313,3.9043578601767313,3.9043578601767313,0.0,0.0,0.0,3.9043578601767313,0.0,0.0,0.0,0.0,0.0,0.0,0.0,0.0,0.0,0.0,0.0,0.0,0.0,0.0,
2.6016,3.9080010974693664,3.9080010974693664,3.9080010974693664,0.0,0.0,0.0,3.9080010974693664,0.0,0.0,0.0,0.0,0.0,0.0,0.0,0.0,0.0,0.0,0.0,0.0,0.0,0.0,
2.6257,3.9117065148210166,3.9117065148210166,3.9117065148210166,0.0,0.0,0.0,3.9117065148210166,0.0,0.0,0.0,0.0,0.0,0.0,0.0,0.0,0.0,0.0,0.0,0.0,0.0,0.0,
2.6498,3.915459475090213,3.915459475090213,3.915459475090213,0.0,0.0,0.0,3.915459475090213,0.0,0.0,0.0,0.0,0.0,0.0,0.0,0.0,0.0,0.0,0.0,0.0,0.0,0.0,
2.6739,3.9192604329275267,3.9192604329275267,3.9192604329275267,0.0,0.0,0.0,3.9192604329275267,0.0,0.0,0.0,0.0,0.0,0.0,0.0,0.0,0.0,0.0,0.0,0.0,0.0,0.0,
2.698,3.9231098519140235,3.9231098519140235,3.9231098519140235,0.0,0.0,0.0,3.9231098519140235,0.0,0.0,0.0,0.0,0.0,0.0,0.0,0.0,0.0,0.0,0.0,0.0,0.0,0.0,
2.7221,3.9270082047552624,3.9270082047552624,3.9270082047552624,0.0,0.0,0.0,3.9270082047552624,0.0,0.0,0.0,0.0,0.0,0.0,0.0,0.0,0.0,0.0,0.0,0.0,0.0,0.0,
2.7462,3.930955973481471,3.930955973481471,3.930955973481471,0.0,0.0,0.0,3.930955973481471,0.0,0.0,0.0,0.0,0.0,0.0,0.0,0.0,0.0,0.0,0.0,0.0,0.0,0.0,
2.7703,3.9349536496532918,3.9349536496532918,3.9349536496532918,0.0,0.0,0.0,3.9349536496532918,0.0,0.0,0.0,0.0,0.0,0.0,0.0,0.0,0.0,0.0,0.0,0.0,0.0,0.0,
2.7944,3.9390017345737682,3.9390017345737682,3.9390017345737682,0.0,0.0,0.0,3.9390017345737682,0.0,0.0,0.0,0.0,0.0,0.0,0.0,0.0,0.0,0.0,0.0,0.0,0.0,0.0,
2.8185,3.943100739506655,3.943100739506655,3.943100739506655,0.0,0.0,0.0,3.943100739506655,0.0,0.0,0.0,0.0,0.0,0.0,0.0,0.0,0.0,0.0,0.0,0.0,0.0,0.0,
2.8425,3.947233857122464,3.947233857122464,3.947233857122464,0.0,0.0,0.0,3.947233857122464,0.0,0.0,0.0,0.0,0.0,0.0,0.0,0.0,0.0,0.0,0.0,0.0,0.0,0.0,
2.8666,3.9514360600751623,3.9514360600751623,3.9514360600751623,0.0,0.0,0.0,3.9514360600751623,0.0,0.0,0.0,0.0,0.0,0.0,0.0,0.0,0.0,0.0,0.0,0.0,0.0,0.0,
2.8907,3.9556907766054064,3.9556907766054064,3.9556907766054064,0.0,0.0,0.0,3.9556907766054064,0.0,0.0,0.0,0.0,0.0,0.0,0.0,0.0,0.0,0.0,0.0,0.0,0.0,0.0,
2.9148,3.959998560092031,3.959998560092031,3.959998560092031,0.0,0.0,0.0,3.9599985600920307,0.0,0.0,0.0,0.0,0.0,0.0,0.0,0.0,0.0,0.0,0.0,0.0,0.0,0.0,
2.9389,3.9643599750682164,3.9643599750682164,3.9643599750682164,0.0,0.0,0.0,3.9643599750682164,0.0,0.0,0.0,0.0,0.0,0.0,0.0,0.0,0.0,0.0,0.0,0.0,0.0,0.0,
2.963,3.9687755974829,3.9687755974829,3.9687755974829,0.0,0.0,0.0,3.9687755974829,0.0,0.0,0.0,0.0,0.0,0.0,0.0,0.0,0.0,0.0,0.0,0.0,0.0,0.0,
2.9871,3.9732460149702034,3.9732460149702034,3.9732460149702034,0.0,0.0,0.0,3.973246014970203,0.0,0.0,0.0,0.0,0.0,0.0,0.0,0.0,0.0,0.0,0.0,0.0,0.0,0.0,
3.0112,3.977771827127105,3.977771827127105,3.977771827127105,0.0,0.0,0.0,3.977771827127105,0.0,0.0,0.0,0.0,0.0,0.0,0.0,0.0,0.0,0.0,0.0,0.0,0.0,0.0,
3.0353,3.9823536458001567,3.9823536458001567,3.9823536458001567,0.0,0.0,0.0,3.9823536458001567,0.0,0.0,0.0,0.0,0.0,0.0,0.0,0.0,0.0,0.0,0.0,0.0,0.0,0.0,
3.0593,3.98697273082671,3.98697273082671,3.98697273082671,0.0,0.0,0.0,3.9869727308267096,0.0,0.0,0.0,0.0,0.0,0.0,0.0,0.0,0.0,0.0,0.0,0.0,0.0,0.0,
3.0834,3.9916682095948874,3.9916682095948874,3.9916682095948874,0.0,0.0,0.0,3.9916682095948874,0.0,0.0,0.0,0.0,0.0,0.0,0.0,0.0,0.0,0.0,0.0,0.0,0.0,0.0,
3.1075,3.9964216041920357,3.9964216041920357,3.9964216041920357,0.0,0.0,0.0,3.9964216041920353,0.0,0.0,0.0,0.0,0.0,0.0,0.0,0.0,0.0,0.0,0.0,0.0,0.0,0.0,
3.1316,4.001233578457065,4.001233578457065,4.001233578457065,0.0,0.0,0.0,4.001233578457065,0.0,0.0,0.0,0.0,0.0,0.0,0.0,0.0,0.0,0.0,0.0,0.0,0.0,0.0,
