energies(eV),real_xx,real_yy,real_zz,real_xy,real_yz,real_xz,real_ave,imag_xx,imag_yy,imag_zz,imag_xy,imag_yz,imag_xz,imag_ave,absorption_xx,absorption_yy,absorption_zz,absorption_xy,absorption_yz,absorption_xz,absorption_ave,band_gap
0.0,2.8304886411734653,3.0747819464563078,3.0466690400316594,0.0,0.0,0.0,2.983979875887144,0.0,0.0,0.0,0.0,0.0,0.0,0.0,0.0,0.0,0.0,0.0,0.0,0.0,0.0,7.632
0.0193,2.8304924342452398,3.074786659902078,3.046673616896062,0.0,0.0,0.0,2.9839842370144596,0.0,0.0,0.0,0.0,0.0,0.0,0.0,0.0,0.0,0.0,0.0,0.0,0.0,0.0,
0.0386,2.830503813583877,3.0748008004123366,3.0466873476528464,0.0,0.0,0.0,2.983997320549687,0.0,0.0,0.0,0.0,0.0,0.0,0.0,0.0,0.0,0.0,0.0,0.0,0.0,0.0,
0.0579,2.8305227795594896,3.0748243685059067,3.046710232792783,0.0,0.0,0.0,2.984019126952726,0.0,0.0,0.0,0.0,0.0,0.0,0.0,0.0,0.0,0.0,0.0,0.0,0.0,0.0,
0.0771,2.830549175651745,3.0748571697795484,3.046742083524674,0.0,0.0,0.0,2.984049476318656,0.0,0.0,0.0,0.0,0.0,0.0,0.0,0.0,0.0,0.0,0.0,0.0,0.0,0.0,
0.0964,2.830583277679264,3.074899547117801,3.0467832327664657,0.0,0.0,0.0,2.9840886858545104,0.0,0.0,0.0,0.0,0.0,0.0,0.0,0.0,0.0,0.0,0.0,0.0,0.0,0.0,
0.1157,2.8306249689283813,3.074951355662756,3.04683353981898,0.0,0.0,0.0,2.9841366214700393,0.0,0.0,0.0,0.0,0.0,0.0,0.0,0.0,0.0,0.0,0.0,0.0,0.0,0.0,
0.135,2.830674250755359,3.0750125973157805,3.046893006480791,0.0,0.0,0.0,2.984193284850644,0.0,0.0,0.0,0.0,0.0,0.0,0.0,0.0,0.0,0.0,0.0,0.0,0.0,0.0,
0.1543,2.8307311247635925,3.075083274324817,3.0469616348783086,0.0,0.0,0.0,2.984258677988906,0.0,0.0,0.0,0.0,0.0,0.0,0.0,0.0,0.0,0.0,0.0,0.0,0.0,0.0,
0.1736,2.830795592803735,3.0751633892844747,3.047039427465851,0.0,0.0,0.0,2.984332803184687,0.0,0.0,0.0,0.0,0.0,0.0,0.0,0.0,0.0,0.0,0.0,0.0,0.0,0.0,
0.1929,2.8308676569739175,3.0752529451364463,3.047126387026022,0.0,0.0,0.0,2.984415663045462,0.0,0.0,0.0,0.0,0.0,0.0,0.0,0.0,0.0,0.0,0.0,0.0,0.0,0.0,
0.2121,2.8309468872725505,3.0753514078700843,3.047221994949482,0.0,0.0,0.0,2.9845067633640388,0.0,0.0,0.0,0.0,0.0,0.0,0.0,0.0,0.0,0.0,0.0,0.0,0.0,0.0,
0.2314,2.831034111597046,3.0754598067589205,3.0473272505763376,0.0,0.0,0.0,2.984607056310768,0.0,0.0,0.0,0.0,0.0,0.0,0.0,0.0,0.0,0.0,0.0,0.0,0.0,0.0,
0.2507,2.831128939817308,3.075577657428909,3.0474416834755136,0.0,0.0,0.0,2.98471609357391,0.0,0.0,0.0,0.0,0.0,0.0,0.0,0.0,0.0,0.0,0.0,0.0,0.0,0.0,
0.27,2.8312313750221683,3.075704964211396,3.0475652977439407,0.0,0.0,0.0,2.9848338789925015,0.0,0.0,0.0,0.0,0.0,0.0,0.0,0.0,0.0,0.0,0.0,0.0,0.0,0.0,
0.2893,2.8313414205490854,3.075841731786707,3.047698097808558,0.0,0.0,0.0,2.984960416714783,0.0,0.0,0.0,0.0,0.0,0.0,0.0,0.0,0.0,0.0,0.0,0.0,0.0,0.0,
0.3086,2.8314590799844916,3.0759879651845963,3.0478400884266774,0.0,0.0,0.0,2.985095711198588,0.0,0.0,0.0,0.0,0.0,0.0,0.0,0.0,0.0,0.0,0.0,0.0,0.0,0.0,
0.3279,2.8315843571641786,3.076143669784725,3.0479912746865363,0.0,0.0,0.0,2.9852397672118136,0.0,0.0,0.0,0.0,0.0,0.0,0.0,0.0,0.0,0.0,0.0,0.0,0.0,0.0,
0.3471,2.83171654792696,3.076307971019711,3.048150807262272,0.0,0.0,0.0,2.985391775402981,0.0,0.0,0.0,0.0,0.0,0.0,0.0,0.0,0.0,0.0,0.0,0.0,0.0,0.0,
0.3664,2.8318570335760755,3.0764825864149787,3.04832035367757,0.0,0.0,0.0,2.9855533245562076,0.0,0.0,0.0,0.0,0.0,0.0,0.0,0.0,0.0,0.0,0.0,0.0,0.0,0.0,
0.3857,2.8320051499518746,3.0766666912228393,3.048499112957746,0.0,0.0,0.0,2.9857236513774867,0.0,0.0,0.0,0.0,0.0,0.0,0.0,0.0,0.0,0.0,0.0,0.0,0.0,0.0,
0.405,2.8321609018898815,3.0768602922270145,3.048687091518518,0.0,0.0,0.0,2.9859027618784713,0.0,0.0,0.0,0.0,0.0,0.0,0.0,0.0,0.0,0.0,0.0,0.0,0.0,0.0,
0.4243,2.8323242944769706,3.077063396564359,3.0488842961094234,0.0,0.0,0.0,2.986090662383584,0.0,0.0,0.0,0.0,0.0,0.0,0.0,0.0,0.0,0.0,0.0,0.0,0.0,0.0,
0.4436,2.8324953330518228,3.07727601172564,3.049090733814524,0.0,0.0,0.0,2.986287359530662,0.0,0.0,0.0,0.0,0.0,0.0,0.0,0.0,0.0,0.0,0.0,0.0,0.0,0.0,
0.4629,2.832674023205436,3.0774981455563526,3.0493064120530775,0.0,0.0,0.0,2.9864928602716225,0.0,0.0,0.0,0.0,0.0,0.0,0.0,0.0,0.0,0.0,0.0,0.0,0.0,0.0,
0.4821,2.8328593855047535,3.0777285813753417,3.04953014930916,0.0,0.0,0.0,2.9867060387297517,0.0,0.0,0.0,0.0,0.0,0.0,0.0,0.0,0.0,0.0,0.0,0.0,0.0,0.0,
0.5014,2.833053356877347,3.0779697280753258,3.049764284235543,0.0,0.0,0.0,2.9869291230627386,0.0,0.0,0.0,0.0,0.0,0.0,0.0,0.0,0.0,0.0,0.0,0.0,0.0,0.0,
0.5207,2.8332549980875066,3.078220419070801,3.050007683928116,0.0,0.0,0.0,2.987161033695474,0.0,0.0,0.0,0.0,0.0,0.0,0.0,0.0,0.0,0.0,0.0,0.0,0.0,0.0,
0.54,2.8334643157396817,3.0784806636328983,3.050260357153382,0.0,0.0,0.0,2.987401778841987,0.0,0.0,0.0,0.0,0.0,0.0,0.0,0.0,0.0,0.0,0.0,0.0,0.0,0.0,
0.5593,2.833681316693555,3.0787504713920337,3.0505223130173196,0.0,0.0,0.0,2.987651367034303,0.0,0.0,0.0,0.0,0.0,0.0,0.0,0.0,0.0,0.0,0.0,0.0,0.0,0.0,
0.5786,2.833906008064654,3.0790298523388406,3.0507935609661647,0.0,0.0,0.0,2.98790980712322,0.0,0.0,0.0,0.0,0.0,0.0,0.0,0.0,0.0,0.0,0.0,0.0,0.0,0.0,
0.5979,2.8341383972250282,3.079318816825285,3.0510741107875265,0.0,0.0,0.0,2.9881771082792796,0.0,0.0,0.0,0.0,0.0,0.0,0.0,0.0,0.0,0.0,0.0,0.0,0.0,0.0,
0.6171,2.834377227918348,3.079615803883726,3.051362446719403,0.0,0.0,0.0,2.9884518261738258,0.0,0.0,0.0,0.0,0.0,0.0,0.0,0.0,0.0,0.0,0.0,0.0,0.0,0.0,
0.6364,2.83462499581685,3.079923918158637,3.0516615826882747,0.0,0.0,0.0,2.9887368322212544,0.0,0.0,0.0,0.0,0.0,0.0,0.0,0.0,0.0,0.0,0.0,0.0,0.0,0.0,
0.6557,2.834880485124074,3.080241649148159,3.0519700518935924,0.0,0.0,0.0,2.9890307287219415,0.0,0.0,0.0,0.0,0.0,0.0,0.0,0.0,0.0,0.0,0.0,0.0,0.0,0.0,
0.675,2.8351437042439795,3.0805690086591913,3.052287865496839,0.0,0.0,0.0,2.9893335261333362,0.0,0.0,0.0,0.0,0.0,0.0,0.0,0.0,0.0,0.0,0.0,0.0,0.0,0.0,
0.6943,2.835414661840831,3.08090600886579,3.0526150350062067,0.0,0.0,0.0,2.9896452352376097,0.0,0.0,0.0,0.0,0.0,0.0,0.0,0.0,0.0,0.0,0.0,0.0,0.0,0.0,
0.7136,2.8356933668399735,3.0812526623106513,3.0529515722778036,0.0,0.0,0.0,2.9899658671428093,0.0,0.0,0.0,0.0,0.0,0.0,0.0,0.0,0.0,0.0,0.0,0.0,0.0,0.0,
0.7329,2.8359798284286453,3.0816089819063373,3.053297489516873,0.0,0.0,0.0,2.990295433283952,0.0,0.0,0.0,0.0,0.0,0.0,0.0,0.0,0.0,0.0,0.0,0.0,0.0,0.0,
0.7521,2.83627251152988,3.0819730595990693,3.053650934066953,0.0,0.0,0.0,2.990632168398634,0.0,0.0,0.0,0.0,0.0,0.0,0.0,0.0,0.0,0.0,0.0,0.0,0.0,0.0,
0.7714,2.836574474597181,3.0823487014615156,3.0540156004928836,0.0,0.0,0.0,2.99097959218386,0.0,0.0,0.0,0.0,0.0,0.0,0.0,0.0,0.0,0.0,0.0,0.0,0.0,0.0,
0.7907,2.8368842233438887,3.0827340503722875,3.0543896855400288,0.0,0.0,0.0,2.991335986418735,0.0,0.0,0.0,0.0,0.0,0.0,0.0,0.0,0.0,0.0,0.0,0.0,0.0,0.0,
0.81,2.8372017680126573,3.0831291207358795,3.054773202821375,0.0,0.0,0.0,2.9917013638566377,0.0,0.0,0.0,0.0,0.0,0.0,0.0,0.0,0.0,0.0,0.0,0.0,0.0,0.0,
0.8293,2.837527119112683,3.0835339273340683,3.055166166305753,0.0,0.0,0.0,2.9920757375841682,0.0,0.0,0.0,0.0,0.0,0.0,0.0,0.0,0.0,0.0,0.0,0.0,0.0,0.0,
0.8486,2.837860287420769,3.0839484853274732,3.055568590319301,0.0,0.0,0.0,2.9924591210225144,0.0,0.0,0.0,0.0,0.0,0.0,0.0,0.0,0.0,0.0,0.0,0.0,0.0,0.0,
0.8679,2.83820128398232,3.0843728102572148,3.0559804895469704,0.0,0.0,0.0,2.992851527928835,0.0,0.0,0.0,0.0,0.0,0.0,0.0,0.0,0.0,0.0,0.0,0.0,0.0,0.0,
0.8871,2.838548292447057,3.0848046435427885,3.0563996711838013,0.0,0.0,0.0,2.993250869057882,0.0,0.0,0.0,0.0,0.0,0.0,0.0,0.0,0.0,0.0,0.0,0.0,0.0,0.0,
0.9064,2.838904939021693,3.0852484996834533,3.0568305170449994,0.0,0.0,0.0,2.993661318583382,0.0,0.0,0.0,0.0,0.0,0.0,0.0,0.0,0.0,0.0,0.0,0.0,0.0,0.0,
0.9257,2.839269448546364,3.085702171596424,3.0572708842609067,0.0,0.0,0.0,2.9940808348012315,0.0,0.0,0.0,0.0,0.0,0.0,0.0,0.0,0.0,0.0,0.0,0.0,0.0,0.0,
0.945,2.839641833150477,3.086165676360128,3.057720788965604,0.0,0.0,0.0,2.994509432825403,0.0,0.0,0.0,0.0,0.0,0.0,0.0,0.0,0.0,0.0,0.0,0.0,0.0,0.0,
0.9643,2.8400221052375656,3.086639031442343,3.0581802476600433,0.0,0.0,0.0,2.994947128113317,0.0,0.0,0.0,0.0,0.0,0.0,0.0,0.0,0.0,0.0,0.0,0.0,0.0,0.0,
0.9836,2.8404102774866677,3.087122254702147,3.058649277213814,0.0,0.0,0.0,2.995393936467543,0.0,0.0,0.0,0.0,0.0,0.0,0.0,0.0,0.0,0.0,0.0,0.0,0.0,0.0,
1.0029,2.8408063628534066,3.0876153643918984,3.059127894866951,0.0,0.0,0.0,2.9958498740374186,0.0,0.0,0.0,0.0,0.0,0.0,0.0,0.0,0.0,0.0,0.0,0.0,0.0,0.0,
1.0221,2.8412082607951405,3.0881157473046708,3.05961356378999,0.0,0.0,0.0,2.996312523963267,0.0,0.0,0.0,0.0,0.0,0.0,0.0,0.0,0.0,0.0,0.0,0.0,0.0,0.0,
1.0414,2.8416201712024756,3.0886286347241905,3.0601113609420683,0.0,0.0,0.0,2.996786722289578,0.0,0.0,0.0,0.0,0.0,0.0,0.0,0.0,0.0,0.0,0.0,0.0,0.0,0.0,
1.0607,2.842040035194775,3.089151465608588,3.0606188000584895,0.0,0.0,0.0,2.9972701002872846,0.0,0.0,0.0,0.0,0.0,0.0,0.0,0.0,0.0,0.0,0.0,0.0,0.0,0.0,
1.08,2.8424678668457,3.0896842598015994,3.0611358998776894,0.0,0.0,0.0,2.9977626755083295,0.0,0.0,0.0,0.0,0.0,0.0,0.0,0.0,0.0,0.0,0.0,0.0,0.0,0.0,
1.0993,2.8429036805121277,3.090227037550692,3.061662679518128,0.0,0.0,0.0,2.9982644658603164,0.0,0.0,0.0,0.0,0.0,0.0,0.0,0.0,0.0,0.0,0.0,0.0,0.0,0.0,
1.1186,2.8433474908355683,3.0907798195093354,3.0621991584802344,0.0,0.0,0.0,2.9987754896083794,0.0,0.0,0.0,0.0,0.0,0.0,0.0,0.0,0.0,0.0,0.0,0.0,0.0,0.0,
1.1379,2.843799312743644,3.0913426267392317,3.0627453566486005,0.0,0.0,0.0,2.9992957653771586,0.0,0.0,0.0,0.0,0.0,0.0,0.0,0.0,0.0,0.0,0.0,0.0,0.0,0.0,
1.1571,2.844256758102177,3.0919124866271486,3.063298388651764,0.0,0.0,0.0,2.9998225444603634,0.0,0.0,0.0,0.0,0.0,0.0,0.0,0.0,0.0,0.0,0.0,0.0,0.0,0.0,
1.1764,2.844724607403583,3.0924953570034583,3.063864035808907,0.0,0.0,0.0,3.000361333405316,0.0,0.0,0.0,0.0,0.0,0.0,0.0,0.0,0.0,0.0,0.0,0.0,0.0,0.0,
1.1957,2.8452005147211943,3.0930883181929394,3.064439464042151,0.0,0.0,0.0,3.0009094323187617,0.0,0.0,0.0,0.0,0.0,0.0,0.0,0.0,0.0,0.0,0.0,0.0,0.0,0.0,
1.215,2.845684496140446,3.0936913929122043,3.0650246947922386,0.0,0.0,0.0,3.0014668612816298,0.0,0.0,0.0,0.0,0.0,0.0,0.0,0.0,0.0,0.0,0.0,0.0,0.0,0.0,
1.2343,2.8461765680404856,3.094304604298348,3.0656197498952173,0.0,0.0,0.0,3.0020336407446835,0.0,0.0,0.0,0.0,0.0,0.0,0.0,0.0,0.0,0.0,0.0,0.0,0.0,0.0,
1.2536,2.846676747095864,3.0949279759115877,3.0662246515846503,0.0,0.0,0.0,3.0026097915307006,0.0,0.0,0.0,0.0,0.0,0.0,0.0,0.0,0.0,0.0,0.0,0.0,0.0,0.0,
1.2729,2.847185050278141,3.095561531737866,3.0668394224941373,0.0,0.0,0.0,3.0031953348367146,0.0,0.0,0.0,0.0,0.0,0.0,0.0,0.0,0.0,0.0,0.0,0.0,0.0,0.0,
1.2921,2.847698797966589,3.0962019342719254,3.0674608235282563,0.0,0.0,0.0,3.00378718525559,0.0,0.0,0.0,0.0,0.0,0.0,0.0,0.0,0.0,0.0,0.0,0.0,0.0,0.0,
1.3114,2.8482233591938018,3.0968558791108767,3.0680953509533526,0.0,0.0,0.0,3.0043915297526773,0.0,0.0,0.0,0.0,0.0,0.0,0.0,0.0,0.0,0.0,0.0,0.0,0.0,0.0,
1.3307,2.8487560971685326,3.0975200825705564,3.0687398177996768,0.0,0.0,0.0,3.0050053325129213,0.0,0.0,0.0,0.0,0.0,0.0,0.0,0.0,0.0,0.0,0.0,0.0,0.0,0.0,
1.35,2.8492970300662233,3.0981945703653606,3.0693942483238876,0.0,0.0,0.0,3.005628616251824,0.0,0.0,0.0,0.0,0.0,0.0,0.0,0.0,0.0,0.0,0.0,0.0,0.0,0.0,
1.3693,2.8498461763680663,3.0988793686494973,3.0700586671954473,0.0,0.0,0.0,3.006261404071003,0.0,0.0,0.0,0.0,0.0,0.0,0.0,0.0,0.0,0.0,0.0,0.0,0.0,0.0,
1.3886,2.8504035548629947,3.0995745040200284,3.0707330994993565,0.0,0.0,0.0,3.006903719460793,0.0,0.0,0.0,0.0,0.0,0.0,0.0,0.0,0.0,0.0,0.0,0.0,0.0,0.0,
1.4079,2.850969184649555,3.1002800035199134,3.071417570738945,0.0,0.0,0.0,3.007555586302804,0.0,0.0,0.0,0.0,0.0,0.0,0.0,0.0,0.0,0.0,0.0,0.0,0.0,0.0,
1.4271,2.851540090210815,3.1009921585311684,3.072108482221351,0.0,0.0,0.0,3.008213576987778,0.0,0.0,0.0,0.0,0.0,0.0,0.0,0.0,0.0,0.0,0.0,0.0,0.0,0.0,
1.4464,2.8521222381174027,3.101718415157553,3.072813057174839,0.0,0.0,0.0,3.0088845701499314,0.0,0.0,0.0,0.0,0.0,0.0,0.0,0.0,0.0,0.0,0.0,0.0,0.0,0.0,
1.4657,2.852712696383681,3.102455119600527,3.0735277499723335,0.0,0.0,0.0,3.0095651886521804,0.0,0.0,0.0,0.0,0.0,0.0,0.0,0.0,0.0,0.0,0.0,0.0,0.0,0.0,
1.485,2.85331148536471,3.1032023007158718,3.0742525878168228,0.0,0.0,0.0,3.010255457965801,0.0,0.0,0.0,0.0,0.0,0.0,0.0,0.0,0.0,0.0,0.0,0.0,0.0,0.0,
1.5043,2.853918625735086,3.1039599878213995,3.074987598344244,0.0,0.0,0.0,3.01095540396691,0.0,0.0,0.0,0.0,0.0,0.0,0.0,0.0,0.0,0.0,0.0,0.0,0.0,0.0,
1.5236,2.8545341384912435,3.104728210700349,3.075732809626555,0.0,0.0,0.0,3.011665052939382,0.0,0.0,0.0,0.0,0.0,0.0,0.0,0.0,0.0,0.0,0.0,0.0,0.0,0.0,
1.5429,2.8551580449534866,3.1055069996048728,3.076488250174859,0.0,0.0,0.0,3.0123844315777397,0.0,0.0,0.0,0.0,0.0,0.0,0.0,0.0,0.0,0.0,0.0,0.0,0.0,0.0,
1.5621,2.8557870687634397,3.1062922678146885,3.0772499551033525,0.0,0.0,0.0,3.013109763893827,0.0,0.0,0.0,0.0,0.0,0.0,0.0,0.0,0.0,0.0,0.0,0.0,0.0,0.0,
1.5814,2.856427784131604,3.1070922262718064,3.0780258881095386,0.0,0.0,0.0,3.0138486328376497,0.0,0.0,0.0,0.0,0.0,0.0,0.0,0.0,0.0,0.0,0.0,0.0,0.0,0.0,
1.6007,2.857076959016096,3.10790284419469,3.078812138426673,0.0,0.0,0.0,3.0145973138791526,0.0,0.0,0.0,0.0,0.0,0.0,0.0,0.0,0.0,0.0,0.0,0.0,0.0,0.0,
1.62,2.85773461605354,3.1087241537446597,3.0796087363528732,0.0,0.0,0.0,3.0153558353836907,0.0,0.0,0.0,0.0,0.0,0.0,0.0,0.0,0.0,0.0,0.0,0.0,0.0,0.0,
1.6393,2.858400778215901,3.1095561875702646,3.0804157126420715,0.0,0.0,0.0,3.0161242261427454,0.0,0.0,0.0,0.0,0.0,0.0,0.0,0.0,0.0,0.0,0.0,0.0,0.0,0.0,
1.6586,2.859075468812789,3.110398978811188,3.08123309850743,0.0,0.0,0.0,3.016902515377135,0.0,0.0,0.0,0.0,0.0,0.0,0.0,0.0,0.0,0.0,0.0,0.0,0.0,0.0,
1.6779,2.859758711493991,3.1112525611022166,3.0820609256250524,0.0,0.0,0.0,3.01769073274042,0.0,0.0,0.0,0.0,0.0,0.0,0.0,0.0,0.0,0.0,0.0,0.0,0.0,0.0,
1.6971,2.860446923554499,3.112112461823646,3.0828948555632554,0.0,0.0,0.0,3.018484746980467,0.0,0.0,0.0,0.0,0.0,0.0,0.0,0.0,0.0,0.0,0.0,0.0,0.0,0.0,
1.7164,2.8611472981016153,3.112987672760986,3.083743607563113,0.0,0.0,0.0,3.019292859475238,0.0,0.0,0.0,0.0,0.0,0.0,0.0,0.0,0.0,0.0,0.0,0.0,0.0,0.0,
1.7357,2.8618562976194424,3.113873778480301,3.0846028984845892,0.0,0.0,0.0,3.0201109915281115,0.0,0.0,0.0,0.0,0.0,0.0,0.0,0.0,0.0,0.0,0.0,0.0,0.0,0.0,
1.755,2.8625739471417475,3.1147708146348707,3.0854727618896773,0.0,0.0,0.0,3.0209391745554317,0.0,0.0,0.0,0.0,0.0,0.0,0.0,0.0,0.0,0.0,0.0,0.0,0.0,0.0,
1.7743,2.863300272055312,3.115678817393871,3.0863532318220575,0.0,0.0,0.0,3.021777440423747,0.0,0.0,0.0,0.0,0.0,0.0,0.0,0.0,0.0,0.0,0.0,0.0,0.0,0.0,
1.7936,2.8640352981025536,3.1165978234467406,3.087244342811015,0.0,0.0,0.0,3.0226258214534365,0.0,0.0,0.0,0.0,0.0,0.0,0.0,0.0,0.0,0.0,0.0,0.0,0.0,0.0,
1.8129,2.8647790513843363,3.1175278700075784,3.0881461298755024,0.0,0.0,0.0,3.0234843504224727,0.0,0.0,0.0,0.0,0.0,0.0,0.0,0.0,0.0,0.0,0.0,0.0,0.0,0.0,
1.8321,2.8655276367565983,3.118464089908653,3.089053872887941,0.0,0.0,0.0,3.0243485331843973,0.0,0.0,0.0,0.0,0.0,0.0,0.0,0.0,0.0,0.0,0.0,0.0,0.0,0.0,
1.8514,2.86628887869316,3.119416273551393,3.0899770633587145,0.0,0.0,0.0,3.0252274052010892,0.0,0.0,0.0,0.0,0.0,0.0,0.0,0.0,0.0,0.0,0.0,0.0,0.0,0.0,
1.8707,2.8670589282038303,3.12037961233615,3.0909110377505797,0.0,0.0,0.0,3.026116526096853,0.0,0.0,0.0,0.0,0.0,0.0,0.0,0.0,0.0,0.0,0.0,0.0,0.0,0.0,
1.89,2.867837812849736,3.121354145619338,3.0918558330801287,0.0,0.0,0.0,3.027015930516401,0.0,0.0,0.0,0.0,0.0,0.0,0.0,0.0,0.0,0.0,0.0,0.0,0.0,0.0,
1.9093,2.8686255605648663,3.1223399133055727,3.092811486874817,0.0,0.0,0.0,3.027925653581752,0.0,0.0,0.0,0.0,0.0,0.0,0.0,0.0,0.0,0.0,0.0,0.0,0.0,0.0,
1.9286,2.869422199659147,3.1233369558526585,3.093778037177428,0.0,0.0,0.0,3.028845730896411,0.0,0.0,0.0,0.0,0.0,0.0,0.0,0.0,0.0,0.0,0.0,0.0,0.0,0.0,
1.9479,2.870227758821489,3.124345314276589,3.094755522550529,0.0,0.0,0.0,3.0297761985495355,0.0,0.0,0.0,0.0,0.0,0.0,0.0,0.0,0.0,0.0,0.0,0.0,0.0,0.0,
1.9671,2.871038023758234,3.1253597173116963,3.0957388321783967,0.0,0.0,0.0,3.0307121910827757,0.0,0.0,0.0,0.0,0.0,0.0,0.0,0.0,0.0,0.0,0.0,0.0,0.0,0.0,
1.9864,2.8718614640574693,3.1263907736208982,3.0967382483136445,0.0,0.0,0.0,3.0316634953306707,0.0,0.0,0.0,0.0,0.0,0.0,0.0,0.0,0.0,0.0,0.0,0.0,0.0,0.0,
2.0057,2.8726939126416124,3.1274332720329854,3.0977487181634036,0.0,0.0,0.0,3.0326253009460005,0.0,0.0,0.0,0.0,0.0,0.0,0.0,0.0,0.0,0.0,0.0,0.0,0.0,0.0,
2.025,2.8735353997454895,3.128487255845923,3.0987702824137924,0.0,0.0,0.0,3.0335976460017346,0.0,0.0,0.0,0.0,0.0,0.0,0.0,0.0,0.0,0.0,0.0,0.0,0.0,0.0,
2.0443,2.8743859559991716,3.129552768942343,3.099802982294615,0.0,0.0,0.0,3.0345805690787095,0.0,0.0,0.0,0.0,0.0,0.0,0.0,0.0,0.0,0.0,0.0,0.0,0.0,0.0,
2.0636,2.875245612431349,3.130629855795186,3.100846859584413,0.0,0.0,0.0,3.035574109270316,0.0,0.0,0.0,0.0,0.0,0.0,0.0,0.0,0.0,0.0,0.0,0.0,0.0,0.0,
2.0829,2.8761144004728307,3.131718561473354,3.1019019566155137,0.0,0.0,0.0,3.036578306187233,0.0,0.0,0.0,0.0,0.0,0.0,0.0,0.0,0.0,0.0,0.0,0.0,0.0,0.0,
2.1021,2.8769877793169636,3.132813200106243,3.1029627619988043,0.0,0.0,0.0,3.037587913807337,0.0,0.0,0.0,0.0,0.0,0.0,0.0,0.0,0.0,0.0,0.0,0.0,0.0,0.0,
2.1214,2.87787487876552,3.133925220256638,3.104040369057083,0.0,0.0,0.0,3.038613489359747,0.0,0.0,0.0,0.0,0.0,0.0,0.0,0.0,0.0,0.0,0.0,0.0,0.0,0.0,
2.1407,2.8787712063934863,3.13504899782854,3.1051293259992945,0.0,0.0,0.0,3.039649843407107,0.0,0.0,0.0,0.0,0.0,0.0,0.0,0.0,0.0,0.0,0.0,0.0,0.0,0.0,
2.16,2.8796767952736326,3.136184580330199,3.106229677422809,0.0,0.0,0.0,3.0406970176755466,0.0,0.0,0.0,0.0,0.0,0.0,0.0,0.0,0.0,0.0,0.0,0.0,0.0,0.0,
2.1793,2.8805916788990373,3.137332015895681,3.1073414685056093,0.0,0.0,0.0,3.0417550544334424,0.0,0.0,0.0,0.0,0.0,0.0,0.0,0.0,0.0,0.0,0.0,0.0,0.0,0.0,
2.1986,2.8815158911868197,3.1384913532912226,3.10846474501191,0.0,0.0,0.0,3.042823996496651,0.0,0.0,0.0,0.0,0.0,0.0,0.0,0.0,0.0,0.0,0.0,0.0,0.0,0.0,
2.2179,2.8824494664820675,3.1396626419215,3.10959955329793,0.0,0.0,0.0,3.043903887233832,0.0,0.0,0.0,0.0,0.0,0.0,0.0,0.0,0.0,0.0,0.0,0.0,0.0,0.0,
2.2371,2.8833875294102733,3.1408397697834243,3.1107399705660375,0.0,0.0,0.0,3.0449890899199112,0.0,0.0,0.0,0.0,0.0,0.0,0.0,0.0,0.0,0.0,0.0,0.0,0.0,0.0,
2.2564,2.88433988652022,3.1420350491064983,3.111897923513825,0.0,0.0,0.0,3.0460909530468476,0.0,0.0,0.0,0.0,0.0,0.0,0.0,0.0,0.0,0.0,0.0,0.0,0.0,0.0,
2.2757,2.885301712094558,3.1432424315071046,3.1130675506694216,0.0,0.0,0.0,3.0472038980903613,0.0,0.0,0.0,0.0,0.0,0.0,0.0,0.0,0.0,0.0,0.0,0.0,0.0,0.0,
2.295,2.8862730422280247,3.144461969006613,3.114248900813065,0.0,0.0,0.0,3.0483279706825677,0.0,0.0,0.0,0.0,0.0,0.0,0.0,0.0,0.0,0.0,0.0,0.0,0.0,0.0,
2.3143,2.887253913463612,3.14569371429847,3.1154420233469495,0.0,0.0,0.0,3.049463217036344,0.0,0.0,0.0,0.0,0.0,0.0,0.0,0.0,0.0,0.0,0.0,0.0,0.0,0.0,
2.3336,2.8882443627969274,3.146937720755339,3.116646968301775,0.0,0.0,0.0,3.050609683951347,0.0,0.0,0.0,0.0,0.0,0.0,0.0,0.0,0.0,0.0,0.0,0.0,0.0,0.0,
2.3529,2.889244427680531,3.1481940424362596,3.117863786343045,0.0,0.0,0.0,3.0517674188199453,0.0,0.0,0.0,0.0,0.0,0.0,0.0,0.0,0.0,0.0,0.0,0.0,0.0,0.0,
2.3721,2.8902488893820255,3.149456128586776,3.11908613141559,0.0,0.0,0.0,3.0529303831281305,0.0,0.0,0.0,0.0,0.0,0.0,0.0,0.0,0.0,0.0,0.0,0.0,0.0,0.0,
2.3914,2.8912682492570787,3.150737181150552,3.120326788009731,0.0,0.0,0.0,3.054110739472454,0.0,0.0,0.0,0.0,0.0,0.0,0.0,0.0,0.0,0.0,0.0,0.0,0.0,0.0,
2.4107,2.8922973396235676,3.1520307150147673,3.121579473287485,0.0,0.0,0.0,3.0553025093086066,0.0,0.0,0.0,0.0,0.0,0.0,0.0,0.0,0.0,0.0,0.0,0.0,0.0,0.0,
2.43,2.893336199804108,3.153336787054756,3.1228442405167987,0.0,0.0,0.0,3.056505742458554,0.0,0.0,0.0,0.0,0.0,0.0,0.0,0.0,0.0,0.0,0.0,0.0,0.0,0.0,
2.4493,2.894384869601034,3.154655454870045,3.1241211436342056,0.0,0.0,0.0,3.057720489368428,0.0,0.0,0.0,0.0,0.0,0.0,0.0,0.0,0.0,0.0,0.0,0.0,0.0,0.0,
2.4686,2.895443389301178,3.1559867767923895,3.125410237251963,0.0,0.0,0.0,3.0589468011151766,0.0,0.0,0.0,0.0,0.0,0.0,0.0,0.0,0.0,0.0,0.0,0.0,0.0,0.0,
2.4879,2.8965117996807077,3.1573308118938463,3.126711576665325,0.0,0.0,0.0,3.0601847294132933,0.0,0.0,0.0,0.0,0.0,0.0,0.0,0.0,0.0,0.0,0.0,0.0,0.0,0.0,
2.5071,2.897584529075636,3.1586805568784975,3.1280183796271372,0.0,0.0,0.0,3.0614278218604234,0.0,0.0,0.0,0.0,0.0,0.0,0.0,0.0,0.0,0.0,0.0,0.0,0.0,0.0,
2.5264,2.898672793338844,3.1600501319042404,3.1293443151052083,0.0,0.0,0.0,3.0626890801160975,0.0,0.0,0.0,0.0,0.0,0.0,0.0,0.0,0.0,0.0,0.0,0.0,0.0,0.0,
