energies(eV),real_xx,real_yy,real_zz,real_xy,real_yz,real_xz,real_ave,imag_xx,imag_yy,imag_zz,imag_xy,imag_yz,imag_xz,imag_ave,absorption_xx,absorption_yy,absorption_zz,absorption_xy,absorption_yz,absorption_xz,absorption_ave,band_gap
0.0,3.6496174154176986,3.6496174154176986,3.6496174154176986,0.0,0.0,0.0,3.649617415417699,0.0,0.0,0.0,0.0,0.0,0.0,0.0,0.0,0.0,0.0,0.0,0.0,0.0,0.0,2.8916000000000004
0.015,3.6496333550317277,3.6496333550317277,3.6496333550317277,0.0,0.0,0.0,3.6496333550317277,0.0,0.0,0.0,0.0,0.0,0.0,0.0,0.0,0.0,0.0,0.0,0.0,0.0,0.0,
0.03,3.6496811757377894,3.6496811757377894,3.6496811757377894,0.0,0.0,0.0,3.6496811757377894,0.0,0.0,0.0,0.0,0.0,0.0,0.0,0.0,0.0,0.0,0.0,0.0,0.0,0.0,
0.045,3.6497608831283306,3.6497608831283306,3.6497608831283306,0.0,0.0,0.0,3.6497608831283306,0.0,0.0,0.0,0.0,0.0,0.0,0.0,0.0,0.0,0.0,0.0,0.0,0.0,0.0,
0.0601,3.6498733376051624,3.6498733376051624,3.6498733376051624,0.0,0.0,0.0,3.6498733376051624,0.0,0.0,0.0,0.0,0.0,0.0,0.0,0.0,0.0,0.0,0.0,0.0,0.0,0.0,
0.0751,3.65001706284719,3.65001706284719,3.65001706284719,0.0,0.0,0.0,3.65001706284719,0.0,0.0,0.0,0.0,0.0,0.0,0.0,0.0,0.0,0.0,0.0,0.0,0.0,0.0,
0.0901,3.650192714074271,3.650192714074271,3.650192714074271,0.0,0.0,0.0,3.650192714074271,0.0,0.0,0.0,0.0,0.0,0.0,0.0,0.0,0.0,0.0,0.0,0.0,0.0,0.0,
0.1051,3.6504003118520574,3.6504003118520574,3.6504003118520574,0.0,0.0,0.0,3.650400311852058,0.0,0.0,0.0,0.0,0.0,0.0,0.0,0.0,0.0,0.0,0.0,0.0,0.0,0.0,
0.1201,3.650639880498881,3.650639880498881,3.650639880498881,0.0,0.0,0.0,3.650639880498881,0.0,0.0,0.0,0.0,0.0,0.0,0.0,0.0,0.0,0.0,0.0,0.0,0.0,0.0,
0.1351,3.650911448094333,3.650911448094333,3.650911448094333,0.0,0.0,0.0,3.6509114480943325,0.0,0.0,0.0,0.0,0.0,0.0,0.0,0.0,0.0,0.0,0.0,0.0,0.0,0.0,
0.1501,3.651215046489818,3.651215046489818,3.651215046489818,0.0,0.0,0.0,3.6512150464898183,0.0,0.0,0.0,0.0,0.0,0.0,0.0,0.0,0.0,0.0,0.0,0.0,0.0,0.0,
0.1652,3.651553056772738,3.651553056772738,3.651553056772738,0.0,0.0,0.0,3.651553056772738,0.0,0.0,0.0,0.0,0.0,0.0,0.0,0.0,0.0,0.0,0.0,0.0,0.0,0.0,
0.1802,3.651921041649083,3.651921041649083,3.651921041649083,0.0,0.0,0.0,3.6519210416490835,0.0,0.0,0.0,0.0,0.0,0.0,0.0,0.0,0.0,0.0,0.0,0.0,0.0,0.0,
0.1952,3.6523211759349556,3.6523211759349556,3.6523211759349556,0.0,0.0,0.0,3.6523211759349556,0.0,0.0,0.0,0.0,0.0,0.0,0.0,0.0,0.0,0.0,0.0,0.0,0.0,0.0,
0.2102,3.6527535067251984,3.6527535067251984,3.6527535067251984,0.0,0.0,0.0,3.652753506725199,0.0,0.0,0.0,0.0,0.0,0.0,0.0,0.0,0.0,0.0,0.0,0.0,0.0,0.0,
0.2252,3.6532180849591827,3.6532180849591827,3.6532180849591827,0.0,0.0,0.0,3.653218084959183,0.0,0.0,0.0,0.0,0.0,0.0,0.0,0.0,0.0,0.0,0.0,0.0,0.0,0.0,
0.2402,3.653714965439624,3.653714965439624,3.653714965439624,0.0,0.0,0.0,3.653714965439624,0.0,0.0,0.0,0.0,0.0,0.0,0.0,0.0,0.0,0.0,0.0,0.0,0.0,0.0,
0.2552,3.654244206852894,3.654244206852894,3.654244206852894,0.0,0.0,0.0,3.654244206852894,0.0,0.0,0.0,0.0,0.0,0.0,0.0,0.0,0.0,0.0,0.0,0.0,0.0,0.0,
0.2703,3.6548097251698164,3.6548097251698164,3.6548097251698164,0.0,0.0,0.0,3.6548097251698164,0.0,0.0,0.0,0.0,0.0,0.0,0.0,0.0,0.0,0.0,0.0,0.0,0.0,0.0,
0.2853,3.655404096985428,3.655404096985428,3.655404096985428,0.0,0.0,0.0,3.655404096985428,0.0,0.0,0.0,0.0,0.0,0.0,0.0,0.0,0.0,0.0,0.0,0.0,0.0,0.0,
0.3003,3.6560310298037715,3.6560310298037715,3.6560310298037715,0.0,0.0,0.0,3.656031029803772,0.0,0.0,0.0,0.0,0.0,0.0,0.0,0.0,0.0,0.0,0.0,0.0,0.0,0.0,
0.3153,3.656690598105723,3.656690598105723,3.656690598105723,0.0,0.0,0.0,3.656690598105723,0.0,0.0,0.0,0.0,0.0,0.0,0.0,0.0,0.0,0.0,0.0,0.0,0.0,0.0,
0.3303,3.6573828803803057,3.6573828803803057,3.6573828803803057,0.0,0.0,0.0,3.6573828803803057,0.0,0.0,0.0,0.0,0.0,0.0,0.0,0.0,0.0,0.0,0.0,0.0,0.0,0.0,
0.3453,3.658107959154172,3.658107959154172,3.658107959154172,0.0,0.0,0.0,3.658107959154172,0.0,0.0,0.0,0.0,0.0,0.0,0.0,0.0,0.0,0.0,0.0,0.0,0.0,0.0,
0.3603,3.6588659210228553,3.6588659210228553,3.6588659210228553,0.0,0.0,0.0,3.6588659210228553,0.0,0.0,0.0,0.0,0.0,0.0,0.0,0.0,0.0,0.0,0.0,0.0,0.0,0.0,
0.3754,3.6596622404438026,3.6596622404438026,3.6596622404438026,0.0,0.0,0.0,3.6596622404438026,0.0,0.0,0.0,0.0,0.0,0.0,0.0,0.0,0.0,0.0,0.0,0.0,0.0,0.0,
0.3904,3.6604864655145692,3.6604864655145692,3.6604864655145692,0.0,0.0,0.0,3.6604864655145692,0.0,0.0,0.0,0.0,0.0,0.0,0.0,0.0,0.0,0.0,0.0,0.0,0.0,0.0,
0.4054,3.661343858889919,3.661343858889919,3.661343858889919,0.0,0.0,0.0,3.661343858889919,0.0,0.0,0.0,0.0,0.0,0.0,0.0,0.0,0.0,0.0,0.0,0.0,0.0,0.0,
0.4204,3.6622345238134493,3.6622345238134493,3.6622345238134493,0.0,0.0,0.0,3.6622345238134493,0.0,0.0,0.0,0.0,0.0,0.0,0.0,0.0,0.0,0.0,0.0,0.0,0.0,0.0,
0.4354,3.6631585677787606,3.6631585677787606,3.6631585677787606,0.0,0.0,0.0,3.6631585677787606,0.0,0.0,0.0,0.0,0.0,0.0,0.0,0.0,0.0,0.0,0.0,0.0,0.0,0.0,
0.4504,3.6641161025707727,3.6641161025707727,3.6641161025707727,0.0,0.0,0.0,3.6641161025707727,0.0,0.0,0.0,0.0,0.0,0.0,0.0,0.0,0.0,0.0,0.0,0.0,0.0,0.0,
0.4654,3.6651072443090507,3.6651072443090507,3.6651072443090507,0.0,0.0,0.0,3.6651072443090507,0.0,0.0,0.0,0.0,0.0,0.0,0.0,0.0,0.0,0.0,0.0,0.0,0.0,0.0,
0.4805,3.666139059406307,3.666139059406307,3.666139059406307,0.0,0.0,0.0,3.666139059406307,0.0,0.0,0.0,0.0,0.0,0.0,0.0,0.0,0.0,0.0,0.0,0.0,0.0,0.0,
0.4955,3.6671980070732983,3.6671980070732983,3.6671980070732983,0.0,0.0,0.0,3.667198007073298,0.0,0.0,0.0,0.0,0.0,0.0,0.0,0.0,0.0,0.0,0.0,0.0,0.0,0.0,
0.5105,3.668290937391212,3.668290937391212,3.668290937391212,0.0,0.0,0.0,3.668290937391212,0.0,0.0,0.0,0.0,0.0,0.0,0.0,0.0,0.0,0.0,0.0,0.0,0.0,0.0,
0.5255,3.669417984318568,3.669417984318568,3.669417984318568,0.0,0.0,0.0,3.6694179843185686,0.0,0.0,0.0,0.0,0.0,0.0,0.0,0.0,0.0,0.0,0.0,0.0,0.0,0.0,
0.5405,3.6705792863938176,3.6705792863938176,3.6705792863938176,0.0,0.0,0.0,3.6705792863938176,0.0,0.0,0.0,0.0,0.0,0.0,0.0,0.0,0.0,0.0,0.0,0.0,0.0,0.0,
0.5555,3.67177498679022,3.67177498679022,3.67177498679022,0.0,0.0,0.0,3.67177498679022,0.0,0.0,0.0,0.0,0.0,0.0,0.0,0.0,0.0,0.0,0.0,0.0,0.0,0.0,
0.5705,3.673005233373185,3.673005233373185,3.673005233373185,0.0,0.0,0.0,3.673005233373185,0.0,0.0,0.0,0.0,0.0,0.0,0.0,0.0,0.0,0.0,0.0,0.0,0.0,0.0,
0.5856,3.6742787285130882,3.6742787285130882,3.6742787285130882,0.0,0.0,0.0,3.6742787285130887,0.0,0.0,0.0,0.0,0.0,0.0,0.0,0.0,0.0,0.0,0.0,0.0,0.0,0.0,
0.6006,3.6755787630463375,3.6755787630463375,3.6755787630463375,0.0,0.0,0.0,3.6755787630463375,0.0,0.0,0.0,0.0,0.0,0.0,0.0,0.0,0.0,0.0,0.0,0.0,0.0,0.0,
0.6156,3.6769138172175455,3.6769138172175455,3.6769138172175455,0.0,0.0,0.0,3.6769138172175455,0.0,0.0,0.0,0.0,0.0,0.0,0.0,0.0,0.0,0.0,0.0,0.0,0.0,0.0,
0.6306,3.6782840583092202,3.6782840583092202,3.6782840583092202,0.0,0.0,0.0,3.6782840583092202,0.0,0.0,0.0,0.0,0.0,0.0,0.0,0.0,0.0,0.0,0.0,0.0,0.0,0.0,
0.6456,3.6796896586159353,3.6796896586159353,3.6796896586159353,0.0,0.0,0.0,3.6796896586159353,0.0,0.0,0.0,0.0,0.0,0.0,0.0,0.0,0.0,0.0,0.0,0.0,0.0,0.0,
0.6606,3.68113079551513,3.68113079551513,3.68113079551513,0.0,0.0,0.0,3.6811307955151293,0.0,0.0,0.0,0.0,0.0,0.0,0.0,0.0,0.0,0.0,0.0,0.0,0.0,0.0,
0.6756,3.6826076515409607,3.6826076515409607,3.6826076515409607,0.0,0.0,0.0,3.6826076515409607,0.0,0.0,0.0,0.0,0.0,0.0,0.0,0.0,0.0,0.0,0.0,0.0,0.0,0.0,
0.6907,3.6841306204643627,3.6841306204643627,3.6841306204643627,0.0,0.0,0.0,3.6841306204643627,0.0,0.0,0.0,0.0,0.0,0.0,0.0,0.0,0.0,0.0,0.0,0.0,0.0,0.0,
0.7057,3.6856797246820845,3.6856797246820845,3.6856797246820845,0.0,0.0,0.0,3.685679724682084,0.0,0.0,0.0,0.0,0.0,0.0,0.0,0.0,0.0,0.0,0.0,0.0,0.0,0.0,
0.7207,3.687265128684871,3.687265128684871,3.687265128684871,0.0,0.0,0.0,3.687265128684871,0.0,0.0,0.0,0.0,0.0,0.0,0.0,0.0,0.0,0.0,0.0,0.0,0.0,0.0,
0.7357,3.688887036458885,3.688887036458885,3.688887036458885,0.0,0.0,0.0,3.688887036458885,0.0,0.0,0.0,0.0,0.0,0.0,0.0,0.0,0.0,0.0,0.0,0.0,0.0,0.0,
0.7507,3.6905456575557545,3.6905456575557545,3.6905456575557545,0.0,0.0,0.0,3.6905456575557545,0.0,0.0,0.0,0.0,0.0,0.0,0.0,0.0,0.0,0.0,0.0,0.0,0.0,0.0,
0.7657,3.6922412071829984,3.6922412071829984,3.6922412071829984,0.0,0.0,0.0,3.6922412071829984,0.0,0.0,0.0,0.0,0.0,0.0,0.0,0.0,0.0,0.0,0.0,0.0,0.0,0.0,
0.7807,3.6939739062974626,3.6939739062974626,3.6939739062974626,0.0,0.0,0.0,3.693973906297463,0.0,0.0,0.0,0.0,0.0,0.0,0.0,0.0,0.0,0.0,0.0,0.0,0.0,0.0,
0.7957,3.6957439817018134,3.6957439817018134,3.6957439817018134,0.0,0.0,0.0,3.6957439817018134,0.0,0.0,0.0,0.0,0.0,0.0,0.0,0.0,0.0,0.0,0.0,0.0,0.0,0.0,
0.8108,3.697563844105925,3.697563844105925,3.697563844105925,0.0,0.0,0.0,3.697563844105925,0.0,0.0,0.0,0.0,0.0,0.0,0.0,0.0,0.0,0.0,0.0,0.0,0.0,0.0,
0.8258,3.6994096295183647,3.6994096295183647,3.6994096295183647,0.0,0.0,0.0,3.699409629518365,0.0,0.0,0.0,0.0,0.0,0.0,0.0,0.0,0.0,0.0,0.0,0.0,0.0,0.0,
0.8408,3.701293509373666,3.701293509373666,3.701293509373666,0.0,0.0,0.0,3.701293509373666,0.0,0.0,0.0,0.0,0.0,0.0,0.0,0.0,0.0,0.0,0.0,0.0,0.0,0.0,
0.8558,3.703215734933099,3.703215734933099,3.703215734933099,0.0,0.0,0.0,3.703215734933099,0.0,0.0,0.0,0.0,0.0,0.0,0.0,0.0,0.0,0.0,0.0,0.0,0.0,0.0,
0.8708,3.7051765638388185,3.7051765638388185,3.7051765638388185,0.0,0.0,0.0,3.7051765638388185,0.0,0.0,0.0,0.0,0.0,0.0,0.0,0.0,0.0,0.0,0.0,0.0,0.0,0.0,
0.8858,3.7071762602315768,3.7071762602315768,3.7071762602315768,0.0,0.0,0.0,3.7071762602315768,0.0,0.0,0.0,0.0,0.0,0.0,0.0,0.0,0.0,0.0,0.0,0.0,0.0,0.0,
0.9008,3.7092150948726945,3.7092150948726945,3.7092150948726945,0.0,0.0,0.0,3.7092150948726945,0.0,0.0,0.0,0.0,0.0,0.0,0.0,0.0,0.0,0.0,0.0,0.0,0.0,0.0,
0.9159,3.7113073331686626,3.7113073331686626,3.7113073331686626,0.0,0.0,0.0,3.7113073331686626,0.0,0.0,0.0,0.0,0.0,0.0,0.0,0.0,0.0,0.0,0.0,0.0,0.0,0.0,
0.9309,3.7134255493436163,3.7134255493436163,3.7134255493436163,0.0,0.0,0.0,3.7134255493436163,0.0,0.0,0.0,0.0,0.0,0.0,0.0,0.0,0.0,0.0,0.0,0.0,0.0,0.0,
0.9459,3.715583759020612,3.715583759020612,3.715583759020612,0.0,0.0,0.0,3.715583759020612,0.0,0.0,0.0,0.0,0.0,0.0,0.0,0.0,0.0,0.0,0.0,0.0,0.0,0.0,
0.9609,3.7177822607931397,3.7177822607931397,3.7177822607931397,0.0,0.0,0.0,3.7177822607931397,0.0,0.0,0.0,0.0,0.0,0.0,0.0,0.0,0.0,0.0,0.0,0.0,0.0,0.0,
0.9759,3.7200213605494308,3.7200213605494308,3.7200213605494308,0.0,0.0,0.0,3.7200213605494308,0.0,0.0,0.0,0.0,0.0,0.0,0.0,0.0,0.0,0.0,0.0,0.0,0.0,0.0,
0.9909,3.722301371621019,3.722301371621019,3.722301371621019,0.0,0.0,0.0,3.7223013716210196,0.0,0.0,0.0,0.0,0.0,0.0,0.0,0.0,0.0,0.0,0.0,0.0,0.0,0.0,
1.0059,3.724622614936341,3.724622614936341,3.724622614936341,0.0,0.0,0.0,3.7246226149363415,0.0,0.0,0.0,0.0,0.0,0.0,0.0,0.0,0.0,0.0,0.0,0.0,0.0,0.0,
1.021,3.72700131141878,3.72700131141878,3.72700131141878,0.0,0.0,0.0,3.72700131141878,0.0,0.0,0.0,0.0,0.0,0.0,0.0,0.0,0.0,0.0,0.0,0.0,0.0,0.0,
1.036,3.729406293658031,3.729406293658031,3.729406293658031,0.0,0.0,0.0,3.729406293658031,0.0,0.0,0.0,0.0,0.0,0.0,0.0,0.0,0.0,0.0,0.0,0.0,0.0,0.0,
1.051,3.7318535204478667,3.7318535204478667,3.7318535204478667,0.0,0.0,0.0,3.7318535204478667,0.0,0.0,0.0,0.0,0.0,0.0,0.0,0.0,0.0,0.0,0.0,0.0,0.0,0.0,
1.066,3.7343433448025327,3.7343433448025327,3.7343433448025327,0.0,0.0,0.0,3.7343433448025327,0.0,0.0,0.0,0.0,0.0,0.0,0.0,0.0,0.0,0.0,0.0,0.0,0.0,0.0,
1.081,3.736876128184023,3.736876128184023,3.736876128184023,0.0,0.0,0.0,3.7368761281840235,0.0,0.0,0.0,0.0,0.0,0.0,0.0,0.0,0.0,0.0,0.0,0.0,0.0,0.0,
1.096,3.7394522406899395,3.7394522406899395,3.7394522406899395,0.0,0.0,0.0,3.7394522406899395,0.0,0.0,0.0,0.0,0.0,0.0,0.0,0.0,0.0,0.0,0.0,0.0,0.0,0.0,
1.111,3.7420720612477454,3.7420720612477454,3.7420720612477454,0.0,0.0,0.0,3.7420720612477454,0.0,0.0,0.0,0.0,0.0,0.0,0.0,0.0,0.0,0.0,0.0,0.0,0.0,0.0,
1.1261,3.7447538861123726,3.7447538861123726,3.7447538861123726,0.0,0.0,0.0,3.7447538861123726,0.0,0.0,0.0,0.0,0.0,0.0,0.0,0.0,0.0,0.0,0.0,0.0,0.0,0.0,
1.1411,3.7474625938627417,3.7474625938627417,3.7474625938627417,0.0,0.0,0.0,3.7474625938627413,0.0,0.0,0.0,0.0,0.0,0.0,0.0,0.0,0.0,0.0,0.0,0.0,0.0,0.0,
1.1561,3.7502162042143854,3.7502162042143854,3.7502162042143854,0.0,0.0,0.0,3.7502162042143854,0.0,0.0,0.0,0.0,0.0,0.0,0.0,0.0,0.0,0.0,0.0,0.0,0.0,0.0,
1.1711,3.7530151335601682,3.7530151335601682,3.7530151335601682,0.0,0.0,0.0,3.7530151335601682,0.0,0.0,0.0,0.0,0.0,0.0,0.0,0.0,0.0,0.0,0.0,0.0,0.0,0.0,
1.1861,3.7558598082017043,3.7558598082017043,3.7558598082017043,0.0,0.0,0.0,3.7558598082017043,0.0,0.0,0.0,0.0,0.0,0.0,0.0,0.0,0.0,0.0,0.0,0.0,0.0,0.0,
1.2011,3.7587506645880806,3.7587506645880806,3.7587506645880806,0.0,0.0,0.0,3.75875066458808,0.0,0.0,0.0,0.0,0.0,0.0,0.0,0.0,0.0,0.0,0.0,0.0,0.0,0.0,
1.2161,3.76168814956319,3.76168814956319,3.76168814956319,0.0,0.0,0.0,3.76168814956319,0.0,0.0,0.0,0.0,0.0,0.0,0.0,0.0,0.0,0.0,0.0,0.0,0.0,0.0,
1.2312,3.764692776807146,3.764692776807146,3.764692776807146,0.0,0.0,0.0,3.7646927768071463,0.0,0.0,0.0,0.0,0.0,0.0,0.0,0.0,0.0,0.0,0.0,0.0,0.0,0.0,
1.2462,3.7677252209863394,3.7677252209863394,3.7677252209863394,0.0,0.0,0.0,3.7677252209863394,0.0,0.0,0.0,0.0,0.0,0.0,0.0,0.0,0.0,0.0,0.0,0.0,0.0,0.0,
1.2612,3.770805702496774,3.770805702496774,3.770805702496774,0.0,0.0,0.0,3.7708057024967743,0.0,0.0,0.0,0.0,0.0,0.0,0.0,0.0,0.0,0.0,0.0,0.0,0.0,0.0,
1.2762,3.7739347124932503,3.7739347124932503,3.7739347124932503,0.0,0.0,0.0,3.7739347124932503,0.0,0.0,0.0,0.0,0.0,0.0,0.0,0.0,0.0,0.0,0.0,0.0,0.0,0.0,
1.2912,3.777112753903588,3.777112753903588,3.777112753903588,0.0,0.0,0.0,3.777112753903588,0.0,0.0,0.0,0.0,0.0,0.0,0.0,0.0,0.0,0.0,0.0,0.0,0.0,0.0,
1.3062,3.780340341734631,3.780340341734631,3.780340341734631,0.0,0.0,0.0,3.780340341734631,0.0,0.0,0.0,0.0,0.0,0.0,0.0,0.0,0.0,0.0,0.0,0.0,0.0,0.0,
1.3212,3.783618003389942,3.783618003389942,3.783618003389942,0.0,0.0,0.0,3.783618003389942,0.0,0.0,0.0,0.0,0.0,0.0,0.0,0.0,0.0,0.0,0.0,0.0,0.0,0.0,
1.3363,3.7869686385751646,3.7869686385751646,3.7869686385751646,0.0,0.0,0.0,3.7869686385751646,0.0,0.0,0.0,0.0,0.0,0.0,0.0,0.0,0.0,0.0,0.0,0.0,0.0,0.0,
1.3513,3.7903484243354013,3.7903484243354013,3.7903484243354013,0.0,0.0,0.0,3.790348424335401,0.0,0.0,0.0,0.0,0.0,0.0,0.0,0.0,0.0,0.0,0.0,0.0,0.0,0.0,
1.3663,3.7937799476888077,3.7937799476888077,3.7937799476888077,0.0,0.0,0.0,3.7937799476888077,0.0,0.0,0.0,0.0,0.0,0.0,0.0,0.0,0.0,0.0,0.0,0.0,0.0,0.0,
1.3813,3.797263789137898,3.797263789137898,3.797263789137898,0.0,0.0,0.0,3.7972637891378986,0.0,0.0,0.0,0.0,0.0,0.0,0.0,0.0,0.0,0.0,0.0,0.0,0.0,0.0,
1.3963,3.8008005433601832,3.8008005433601832,3.8008005433601832,0.0,0.0,0.0,3.8008005433601837,0.0,0.0,0.0,0.0,0.0,0.0,0.0,0.0,0.0,0.0,0.0,0.0,0.0,0.0,
1.4113,3.8043908196049934,3.8043908196049934,3.8043908196049934,0.0,0.0,0.0,3.8043908196049934,0.0,0.0,0.0,0.0,0.0,0.0,0.0,0.0,0.0,0.0,0.0,0.0,0.0,0.0,
1.4263,3.808035242105962,3.808035242105962,3.808035242105962,0.0,0.0,0.0,3.808035242105962,0.0,0.0,0.0,0.0,0.0,0.0,0.0,0.0,0.0,0.0,0.0,0.0,0.0,0.0,
1.4414,3.8117592971983516,3.8117592971983516,3.8117592971983516,0.0,0.0,0.0,3.8117592971983516,0.0,0.0,0.0,0.0,0.0,0.0,0.0,0.0,0.0,0.0,0.0,0.0,0.0,0.0,
1.4564,3.815514318854671,3.815514318854671,3.815514318854671,0.0,0.0,0.0,3.815514318854671,0.0,0.0,0.0,0.0,0.0,0.0,0.0,0.0,0.0,0.0,0.0,0.0,0.0,0.0,
1.4714,3.819325458279364,3.819325458279364,3.819325458279364,0.0,0.0,0.0,3.819325458279364,0.0,0.0,0.0,0.0,0.0,0.0,0.0,0.0,0.0,0.0,0.0,0.0,0.0,0.0,
1.4864,3.823193404215545,3.823193404215545,3.823193404215545,0.0,0.0,0.0,3.823193404215545,0.0,0.0,0.0,0.0,0.0,0.0,0.0,0.0,0.0,0.0,0.0,0.0,0.0,0.0,
1.5014,3.8271188627143156,3.8271188627143156,3.8271188627143156,0.0,0.0,0.0,3.827118862714316,0.0,0.0,0.0,0.0,0.0,0.0,0.0,0.0,0.0,0.0,0.0,0.0,0.0,0.0,
1.5164,3.8311025576563495,3.8311025576563495,3.8311025576563495,0.0,0.0,0.0,3.8311025576563495,0.0,0.0,0.0,0.0,0.0,0.0,0.0,0.0,0.0,0.0,0.0,0.0,0.0,0.0,
1.5314,3.835145231295318,3.835145231295318,3.835145231295318,0.0,0.0,0.0,3.835145231295318,0.0,0.0,0.0,0.0,0.0,0.0,0.0,0.0,0.0,0.0,0.0,0.0,0.0,0.0,
1.5465,3.8392751964489196,3.8392751964489196,3.8392751964489196,0.0,0.0,0.0,3.8392751964489196,0.0,0.0,0.0,0.0,0.0,0.0,0.0,0.0,0.0,0.0,0.0,0.0,0.0,0.0,
1.5615,3.8434385367224566,3.8434385367224566,3.8434385367224566,0.0,0.0,0.0,3.843438536722457,0.0,0.0,0.0,0.0,0.0,0.0,0.0,0.0,0.0,0.0,0.0,0.0,0.0,0.0,
1.5765,3.8476632038771403,3.8476632038771403,3.8476632038771403,0.0,0.0,0.0,3.8476632038771403,0.0,0.0,0.0,0.0,0.0,0.0,0.0,0.0,0.0,0.0,0.0,0.0,0.0,0.0,
1.5915,3.8519500196999434,3.8519500196999434,3.8519500196999434,0.0,0.0,0.0,3.8519500196999434,0.0,0.0,0.0,0.0,0.0,0.0,0.0,0.0,0.0,0.0,0.0,0.0,0.0,0.0,
1.6065,3.856299827433478,3.856299827433478,3.856299827433478,0.0,0.0,0.0,3.856299827433478,0.0,0.0,0.0,0.0,0.0,0.0,0.0,0.0,0.0,0.0,0.0,0.0,0.0,0.0,
1.6215,3.860713492473418,3.860713492473418,3.860713492473418,0.0,0.0,0.0,3.8607134924734177,0.0,0.0,0.0,0.0,0.0,0.0,0.0,0.0,0.0,0.0,0.0,0.0,0.0,0.0,
1.6365,3.865191903096168,3.865191903096168,3.865191903096168,0.0,0.0,0.0,3.865191903096168,0.0,0.0,0.0,0.0,0.0,0.0,0.0,0.0,0.0,0.0,0.0,0.0,0.0,0.0,
1.6516,3.869766487411541,3.869766487411541,3.869766487411541,0.0,0.0,0.0,3.869766487411541,0.0,0.0,0.0,0.0,0.0,0.0,0.0,0.0,0.0,0.0,0.0,0.0,0.0,0.0,
1.6666,3.8743775965436194,3.8743775965436194,3.8743775965436194,0.0,0.0,0.0,3.8743775965436194,0.0,0.0,0.0,0.0,0.0,0.0,0.0,0.0,0.0,0.0,0.0,0.0,0.0,0.0,
1.6816,3.8790562676419875,3.8790562676419875,3.8790562676419875,0.0,0.0,0.0,3.8790562676419875,0.0,0.0,0.0,0.0,0.0,0.0,0.0,0.0,0.0,0.0,0.0,0.0,0.0,0.0,
1.6966,3.8838034886329424,3.8838034886329424,3.8838034886329424,0.0,0.0,0.0,3.8838034886329424,0.0,0.0,0.0,0.0,0.0,0.0,0.0,0.0,0.0,0.0,0.0,0.0,0.0,0.0,
1.7116,3.8886202744890297,3.8886202744890297,3.8886202744890297,0.0,0.0,0.0,3.8886202744890297,0.0,0.0,0.0,0.0,0.0,0.0,0.0,0.0,0.0,0.0,0.0,0.0,0.0,0.0,
1.7266,3.893507668179246,3.893507668179246,3.893507668179246,0.0,0.0,0.0,3.893507668179246,0.0,0.0,0.0,0.0,0.0,0.0,0.0,0.0,0.0,0.0,0.0,0.0,0.0,0.0,
1.7416,3.8984667416639893,3.8984667416639893,3.8984667416639893,0.0,0.0,0.0,3.8984667416639893,0.0,0.0,0.0,0.0,0.0,0.0,0.0,0.0,0.0,0.0,0.0,0.0,0.0,0.0,
1.7567,3.9035323893880807,3.9035323893880807,3.9035323893880807,0.0,0.0,0.0,3.9035323893880807,0.0,0.0,0.0,0.0,0.0,0.0,0.0,0.0,0.0,0.0,0.0,0.0,0.0,0.0,
1.7717,3.908638656210443,3.908638656210443,3.908638656210443,0.0,0.0,0.0,3.9086386562104436,0.0,0.0,0.0,0.0,0.0,0.0,0.0,0.0,0.0,0.0,0.0,0.0,0.0,0.0,
1.7867,3.9138200112139225,3.9138200112139225,3.9138200112139225,0.0,0.0,0.0,3.913820011213923,0.0,0.0,0.0,0.0,0.0,0.0,0.0,0.0,0.0,0.0,0.0,0.0,0.0,0.0,
1.8017,3.919077653491533,3.919077653491533,3.919077653491533,0.0,0.0,0.0,3.919077653491533,0.0,0.0,0.0,0.0,0.0,0.0,0.0,0.0,0.0,0.0,0.0,0.0,0.0,0.0,
1.8167,3.9244128168803076,3.9244128168803076,3.9244128168803076,0.0,0.0,0.0,3.9244128168803076,0.0,0.0,0.0,0.0,0.0,0.0,0.0,0.0,0.0,0.0,0.0,0.0,0.0,0.0,
1.8317,3.9298267712871757,3.9298267712871757,3.9298267712871757,0.0,0.0,0.0,3.929826771287176,0.0,0.0,0.0,0.0,0.0,0.0,0.0,0.0,0.0,0.0,0.0,0.0,0.0,0.0,
1.8467,3.935320824082206,3.935320824082206,3.935320824082206,0.0,0.0,0.0,3.935320824082206,0.0,0.0,0.0,0.0,0.0,0.0,0.0,0.0,0.0,0.0,0.0,0.0,0.0,0.0,
1.8618,3.9409337679286636,3.9409337679286636,3.9409337679286636,0.0,0.0,0.0,3.9409337679286636,0.0,0.0,0.0,0.0,0.0,0.0,0.0,0.0,0.0,0.0,0.0,0.0,0.0,0.0,
1.8768,3.946592653822002,3.946592653822002,3.946592653822002,0.0,0.0,0.0,3.946592653822002,0.0,0.0,0.0,0.0,0.0,0.0,0.0,0.0,0.0,0.0,0.0,0.0,0.0,0.0,
1.8918,3.952335809703141,3.952335809703141,3.952335809703141,0.0,0.0,0.0,3.952335809703141,0.0,0.0,0.0,0.0,0.0,0.0,0.0,0.0,0.0,0.0,0.0,0.0,0.0,0.0,
1.9068,3.958164708535466,3.958164708535466,3.958164708535466,0.0,0.0,0.0,3.9581647085354654,0.0,0.0,0.0,0.0,0.0,0.0,0.0,0.0,0.0,0.0,0.0,0.0,0.0,0.0,
1.9218,3.964080868901329,3.964080868901329,3.964080868901329,0.0,0.0,0.0,3.964080868901329,0.0,0.0,0.0,0.0,0.0,0.0,0.0,0.0,0.0,0.0,0.0,0.0,0.0,0.0,
1.9368,3.970085856904609,3.970085856904609,3.970085856904609,0.0,0.0,0.0,3.970085856904609,0.0,0.0,0.0,0.0,0.0,0.0,0.0,0.0,0.0,0.0,0.0,0.0,0.0,0.0,
1.9518,3.976181288179733,3.976181288179733,3.976181288179733,0.0,0.0,0.0,3.976181288179733,0.0,0.0,0.0,0.0,0.0,0.0,0.0,0.0,0.0,0.0,0.0,0.0,0.0,0.0,
