energies(eV),real_xx,real_yy,real_zz,real_xy,real_yz,real_xz,real_ave,imag_xx,imag_yy,imag_zz,imag_xy,imag_yz,imag_xz,imag_ave,absorption_xx,absorption_yy,absorption_zz,absorption_xy,absorption_yz,absorption_xz,absorption_ave,band_gap
0.0,3.2422253646936405,3.2422253646936405,3.1699769280298926,0.0,0.0,0.0,3.2181425524723912,0.0,0.0,0.0,0.0,0.0,0.0,0.0,0.0,0.0,0.0,0.0,0.0,0.0,0.0,5.362699999999999
0.0194,3.242234709796803,3.242234709796803,3.1699858815939073,0.0,0.0,0.0,3.2181517670625044,0.0,0.0,0.0,0.0,0.0,0.0,0.0,0.0,0.0,0.0,0.0,0.0,0.0,0.0,
0.0389,3.2422629387906556,3.2422629387906556,3.170012927854886,0.0,0.0,0.0,3.2181796018120656,0.0,0.0,0.0,0.0,0.0,0.0,0.0,0.0,0.0,0.0,0.0,0.0,0.0,0.0,
0.0583,3.242309764394337,3.242309764394337,3.170057791566954,0.0,0.0,0.0,3.2182257734518758,0.0,0.0,0.0,0.0,0.0,0.0,0.0,0.0,0.0,0.0,0.0,0.0,0.0,0.0,
0.0778,3.242375673119074,3.242375673119074,3.1701209388551783,0.0,0.0,0.0,3.218290761697775,0.0,0.0,0.0,0.0,0.0,0.0,0.0,0.0,0.0,0.0,0.0,0.0,0.0,0.0,
0.0972,3.2424599942261727,3.2424599942261727,3.1702017270800424,0.0,0.0,0.0,3.218373905177463,0.0,0.0,0.0,0.0,0.0,0.0,0.0,0.0,0.0,0.0,0.0,0.0,0.0,0.0,
0.1167,3.2425636038022936,3.2425636038022936,3.1703009956176516,0.0,0.0,0.0,3.2184760677407467,0.0,0.0,0.0,0.0,0.0,0.0,0.0,0.0,0.0,0.0,0.0,0.0,0.0,0.0,
0.1361,3.2426854474393876,3.2426854474393876,3.1704177342322732,0.0,0.0,0.0,3.218596209703683,0.0,0.0,0.0,0.0,0.0,0.0,0.0,0.0,0.0,0.0,0.0,0.0,0.0,0.0,
0.1556,3.2428267910846222,3.2428267910846222,3.1705531558239617,0.0,0.0,0.0,3.2187355793310686,0.0,0.0,0.0,0.0,0.0,0.0,0.0,0.0,0.0,0.0,0.0,0.0,0.0,0.0,
0.175,3.242986196327801,3.242986196327801,3.1707058822421814,0.0,0.0,0.0,3.2188927582992606,0.0,0.0,0.0,0.0,0.0,0.0,0.0,0.0,0.0,0.0,0.0,0.0,0.0,0.0,
0.1944,3.2431643524582356,3.2431643524582356,3.1708765738880484,0.0,0.0,0.0,3.2190684262681732,0.0,0.0,0.0,0.0,0.0,0.0,0.0,0.0,0.0,0.0,0.0,0.0,0.0,0.0,
0.2139,3.243362337401348,3.243362337401348,3.1710662635140716,0.0,0.0,0.0,3.2192636461055897,0.0,0.0,0.0,0.0,0.0,0.0,0.0,0.0,0.0,0.0,0.0,0.0,0.0,0.0,
0.2333,3.2435781363488236,3.2435781363488236,3.1712730207195894,0.0,0.0,0.0,3.219476431139079,0.0,0.0,0.0,0.0,0.0,0.0,0.0,0.0,0.0,0.0,0.0,0.0,0.0,0.0,
0.2528,3.243813991478845,3.243813991478845,3.171498993726664,0.0,0.0,0.0,3.2197089922281186,0.0,0.0,0.0,0.0,0.0,0.0,0.0,0.0,0.0,0.0,0.0,0.0,0.0,0.0,
0.2722,3.2440675026173635,3.2440675026173635,3.171741882914204,0.0,0.0,0.0,3.2199589627163103,0.0,0.0,0.0,0.0,0.0,0.0,0.0,0.0,0.0,0.0,0.0,0.0,0.0,0.0,
0.2917,3.244341303804275,3.244341303804275,3.1720042119441416,0.0,0.0,0.0,3.2202289398508968,0.0,0.0,0.0,0.0,0.0,0.0,0.0,0.0,0.0,0.0,0.0,0.0,0.0,0.0,
0.3111,3.2446326087398702,3.2446326087398702,3.172283311247261,0.0,0.0,0.0,3.220516176242334,0.0,0.0,0.0,0.0,0.0,0.0,0.0,0.0,0.0,0.0,0.0,0.0,0.0,0.0,
0.3306,3.2449444441868485,3.2449444441868485,3.172582080749872,0.0,0.0,0.0,3.2208236563745225,0.0,0.0,0.0,0.0,0.0,0.0,0.0,0.0,0.0,0.0,0.0,0.0,0.0,0.0,
0.35,3.245273636836369,3.245273636836369,3.1728974800886975,0.0,0.0,0.0,3.221148251253812,0.0,0.0,0.0,0.0,0.0,0.0,0.0,0.0,0.0,0.0,0.0,0.0,0.0,0.0,
0.3695,3.2456236071650255,3.2456236071650255,3.173232786403233,0.0,0.0,0.0,3.2214933335777616,0.0,0.0,0.0,0.0,0.0,0.0,0.0,0.0,0.0,0.0,0.0,0.0,0.0,0.0,
0.3889,3.2459907938471164,3.2459907938471164,3.173584587571208,0.0,0.0,0.0,3.221855391755147,0.0,0.0,0.0,0.0,0.0,0.0,0.0,0.0,0.0,0.0,0.0,0.0,0.0,0.0,
0.4083,3.2463769723308773,3.2463769723308773,3.173954584628892,0.0,0.0,0.0,3.2222361764302154,0.0,0.0,0.0,0.0,0.0,0.0,0.0,0.0,0.0,0.0,0.0,0.0,0.0,0.0,
0.4278,3.246784311733221,3.246784311733221,3.1743448557820027,0.0,0.0,0.0,3.222637826416148,0.0,0.0,0.0,0.0,0.0,0.0,0.0,0.0,0.0,0.0,0.0,0.0,0.0,0.0,
0.4472,3.2472086670409177,3.2472086670409177,3.174751429678652,0.0,0.0,0.0,3.223056254586829,0.0,0.0,0.0,0.0,0.0,0.0,0.0,0.0,0.0,0.0,0.0,0.0,0.0,0.0,
0.4667,3.2476544477024065,3.2476544477024065,3.175178530978294,0.0,0.0,0.0,3.2234958087943695,0.0,0.0,0.0,0.0,0.0,0.0,0.0,0.0,0.0,0.0,0.0,0.0,0.0,0.0,
0.4861,3.248117117619423,3.248117117619423,3.1756218136323637,0.0,0.0,0.0,3.223952016290403,0.0,0.0,0.0,0.0,0.0,0.0,0.0,0.0,0.0,0.0,0.0,0.0,0.0,0.0,
0.5056,3.24860148445991,3.24860148445991,3.1760858838270436,0.0,0.0,0.0,3.2244296175822877,0.0,0.0,0.0,0.0,0.0,0.0,0.0,0.0,0.0,0.0,0.0,0.0,0.0,0.0,
0.525,3.2491026195894896,3.2491026195894896,3.1765660194277383,0.0,0.0,0.0,3.224923752868906,0.0,0.0,0.0,0.0,0.0,0.0,0.0,0.0,0.0,0.0,0.0,0.0,0.0,0.0,
0.5445,3.249625730485411,3.249625730485411,3.1770672096693886,0.0,0.0,0.0,3.2254395568800702,0.0,0.0,0.0,0.0,0.0,0.0,0.0,0.0,0.0,0.0,0.0,0.0,0.0,0.0,
0.5639,3.250165494396543,3.250165494396543,3.1775843548179337,0.0,0.0,0.0,3.2259717812036732,0.0,0.0,0.0,0.0,0.0,0.0,0.0,0.0,0.0,0.0,0.0,0.0,0.0,0.0,
0.5833,3.2507245882547,3.2507245882547,3.1781200195996298,0.0,0.0,0.0,3.2265230653696766,0.0,0.0,0.0,0.0,0.0,0.0,0.0,0.0,0.0,0.0,0.0,0.0,0.0,0.0,
0.6028,3.251306089725031,3.251306089725031,3.178677152673913,0.0,0.0,0.0,3.2270964440413246,0.0,0.0,0.0,0.0,0.0,0.0,0.0,0.0,0.0,0.0,0.0,0.0,0.0,0.0,
0.6222,3.251904082141456,3.251904082141456,3.1792500852845915,0.0,0.0,0.0,3.227686083189168,0.0,0.0,0.0,0.0,0.0,0.0,0.0,0.0,0.0,0.0,0.0,0.0,0.0,0.0,
0.6417,3.252524779842489,3.252524779842489,3.1798447713130606,0.0,0.0,0.0,3.228298110332679,0.0,0.0,0.0,0.0,0.0,0.0,0.0,0.0,0.0,0.0,0.0,0.0,0.0,0.0,
0.6611,3.253161867519106,3.253161867519106,3.1804551600700766,0.0,0.0,0.0,3.2289262983694296,0.0,0.0,0.0,0.0,0.0,0.0,0.0,0.0,0.0,0.0,0.0,0.0,0.0,0.0,
0.6806,3.253821965971651,3.253821965971651,3.181087594854433,0.0,0.0,0.0,3.229577175599245,0.0,0.0,0.0,0.0,0.0,0.0,0.0,0.0,0.0,0.0,0.0,0.0,0.0,0.0,
0.7,3.2544983592012575,3.2544983592012575,3.181735641084123,0.0,0.0,0.0,3.2302441198288796,0.0,0.0,0.0,0.0,0.0,0.0,0.0,0.0,0.0,0.0,0.0,0.0,0.0,0.0,
0.7195,3.255198076691194,3.255198076691194,3.182406033601531,0.0,0.0,0.0,3.230934062327973,0.0,0.0,0.0,0.0,0.0,0.0,0.0,0.0,0.0,0.0,0.0,0.0,0.0,0.0,
0.7389,3.2559139995685187,3.2559139995685187,3.183091951840573,0.0,0.0,0.0,3.2316399836592034,0.0,0.0,0.0,0.0,0.0,0.0,0.0,0.0,0.0,0.0,0.0,0.0,0.0,0.0,
0.7584,3.2566535683664113,3.2566535683664113,3.1838005244532557,0.0,0.0,0.0,3.232369220395359,0.0,0.0,0.0,0.0,0.0,0.0,0.0,0.0,0.0,0.0,0.0,0.0,0.0,0.0,
0.7778,3.2574092590140276,3.2574092590140276,3.1845245426645223,0.0,0.0,0.0,3.233114353564192,0.0,0.0,0.0,0.0,0.0,0.0,0.0,0.0,0.0,0.0,0.0,0.0,0.0,0.0,
0.7972,3.2581848758533054,3.2581848758533054,3.185267651324989,0.0,0.0,0.0,3.233879134343867,0.0,0.0,0.0,0.0,0.0,0.0,0.0,0.0,0.0,0.0,0.0,0.0,0.0,0.0,
0.8167,3.2589846364201467,3.2589846364201467,3.18603389114723,0.0,0.0,0.0,3.234667721329174,0.0,0.0,0.0,0.0,0.0,0.0,0.0,0.0,0.0,0.0,0.0,0.0,0.0,0.0,
0.8361,3.259800404705735,3.259800404705735,3.186815467078553,0.0,0.0,0.0,3.235472092163341,0.0,0.0,0.0,0.0,0.0,0.0,0.0,0.0,0.0,0.0,0.0,0.0,0.0,0.0,
0.8556,3.26064065966686,3.26064065966686,3.1876205026315985,0.0,0.0,0.0,3.236300607321773,0.0,0.0,0.0,0.0,0.0,0.0,0.0,0.0,0.0,0.0,0.0,0.0,0.0,0.0,
0.875,3.2614968536643585,3.2614968536643585,3.188440808386517,0.0,0.0,0.0,3.2371448385717443,0.0,0.0,0.0,0.0,0.0,0.0,0.0,0.0,0.0,0.0,0.0,0.0,0.0,0.0,
0.8945,3.262377886173366,3.262377886173366,3.1892849107290195,0.0,0.0,0.0,3.2380135610252503,0.0,0.0,0.0,0.0,0.0,0.0,0.0,0.0,0.0,0.0,0.0,0.0,0.0,0.0,
0.9139,3.263274795093076,3.263274795093076,3.1901442231614556,0.0,0.0,0.0,3.2388979377825358,0.0,0.0,0.0,0.0,0.0,0.0,0.0,0.0,0.0,0.0,0.0,0.0,0.0,0.0,
0.9334,3.2641969034739087,3.2641969034739087,3.1910276778688793,0.0,0.0,0.0,3.2398071616055653,0.0,0.0,0.0,0.0,0.0,0.0,0.0,0.0,0.0,0.0,0.0,0.0,0.0,0.0,
0.9528,3.26513483177098,3.26513483177098,3.1919262884205457,0.0,0.0,0.0,3.2407319839875015,0.0,0.0,0.0,0.0,0.0,0.0,0.0,0.0,0.0,0.0,0.0,0.0,0.0,0.0,
0.9722,3.2660933356436535,3.2660933356436535,3.192844611059337,0.0,0.0,0.0,3.241677094115548,0.0,0.0,0.0,0.0,0.0,0.0,0.0,0.0,0.0,0.0,0.0,0.0,0.0,0.0,
0.9917,3.2670775975216984,3.2670775975216984,3.193787610885937,0.0,0.0,0.0,3.242647601976445,0.0,0.0,0.0,0.0,0.0,0.0,0.0,0.0,0.0,0.0,0.0,0.0,0.0,0.0,
1.0111,3.2680776063085974,3.2680776063085974,3.194745696414797,0.0,0.0,0.0,3.243633636343997,0.0,0.0,0.0,0.0,0.0,0.0,0.0,0.0,0.0,0.0,0.0,0.0,0.0,0.0,
1.0306,3.2691037578801185,3.2691037578801185,3.1957288276209654,0.0,0.0,0.0,3.2446454477937343,0.0,0.0,0.0,0.0,0.0,0.0,0.0,0.0,0.0,0.0,0.0,0.0,0.0,0.0,
1.05,3.270145615562248,3.270145615562248,3.196727005299727,0.0,0.0,0.0,3.245672745474741,0.0,0.0,0.0,0.0,0.0,0.0,0.0,0.0,0.0,0.0,0.0,0.0,0.0,0.0,
1.0695,3.2712140107978303,3.2712140107978303,3.197750606703304,0.0,0.0,0.0,3.2467262094329885,0.0,0.0,0.0,0.0,0.0,0.0,0.0,0.0,0.0,0.0,0.0,0.0,0.0,0.0,
1.0889,3.27229807779912,3.27229807779912,3.1987892215225298,0.0,0.0,0.0,3.2477951257069235,0.0,0.0,0.0,0.0,0.0,0.0,0.0,0.0,0.0,0.0,0.0,0.0,0.0,0.0,
1.1084,3.273409087389169,3.273409087389169,3.1998536479364406,0.0,0.0,0.0,3.2488906075715924,0.0,0.0,0.0,0.0,0.0,0.0,0.0,0.0,0.0,0.0,0.0,0.0,0.0,0.0,
1.1278,3.27453574096409,3.27453574096409,3.200933060987282,0.0,0.0,0.0,3.250001514305154,0.0,0.0,0.0,0.0,0.0,0.0,0.0,0.0,0.0,0.0,0.0,0.0,0.0,0.0,
1.1473,3.2756897527192668,3.2756897527192668,3.2020386836015513,0.0,0.0,0.0,3.251139396346695,0.0,0.0,0.0,0.0,0.0,0.0,0.0,0.0,0.0,0.0,0.0,0.0,0.0,0.0,
1.1667,3.276859387362103,3.276859387362103,3.203159272465967,0.0,0.0,0.0,3.252292682396724,0.0,0.0,0.0,0.0,0.0,0.0,0.0,0.0,0.0,0.0,0.0,0.0,0.0,0.0,
1.1861,3.2780506102050886,3.2780506102050886,3.2043005426648032,0.0,0.0,0.0,3.253467254358327,0.0,0.0,0.0,0.0,0.0,0.0,0.0,0.0,0.0,0.0,0.0,0.0,0.0,0.0,
1.2056,3.279269834512632,3.279269834512632,3.2054686384133575,0.0,0.0,0.0,3.254669435812874,0.0,0.0,0.0,0.0,0.0,0.0,0.0,0.0,0.0,0.0,0.0,0.0,0.0,0.0,
1.225,3.28050466288772,3.28050466288772,3.2066516820968105,0.0,0.0,0.0,3.2558870026240836,0.0,0.0,0.0,0.0,0.0,0.0,0.0,0.0,0.0,0.0,0.0,0.0,0.0,0.0,
1.2445,3.2817679360508913,3.2817679360508913,3.2078619758264173,0.0,0.0,0.0,3.2571326159760665,0.0,0.0,0.0,0.0,0.0,0.0,0.0,0.0,0.0,0.0,0.0,0.0,0.0,0.0,
1.2639,3.2830468094692327,3.2830468094692327,3.2090872136318156,0.0,0.0,0.0,3.2583936108567606,0.0,0.0,0.0,0.0,0.0,0.0,0.0,0.0,0.0,0.0,0.0,0.0,0.0,0.0,
1.2834,3.284354582677839,3.284354582677839,3.2103401371499336,0.0,0.0,0.0,3.259683100835204,0.0,0.0,0.0,0.0,0.0,0.0,0.0,0.0,0.0,0.0,0.0,0.0,0.0,0.0,
1.3028,3.285677959506663,3.285677959506663,3.2116080077465345,0.0,0.0,0.0,3.26098797558662,0.0,0.0,0.0,0.0,0.0,0.0,0.0,0.0,0.0,0.0,0.0,0.0,0.0,0.0,
1.3223,3.2870307031613444,3.2870307031613444,3.212904011230952,0.0,0.0,0.0,3.262321805851214,0.0,0.0,0.0,0.0,0.0,0.0,0.0,0.0,0.0,0.0,0.0,0.0,0.0,0.0,
1.3417,3.2883990611430667,3.2883990611430667,3.2142149718146555,0.0,0.0,0.0,3.2636710313669295,0.0,0.0,0.0,0.0,0.0,0.0,0.0,0.0,0.0,0.0,0.0,0.0,0.0,0.0,
1.3611,3.289790036603503,3.289790036603503,3.2155475987753848,0.0,0.0,0.0,3.2650425573274635,0.0,0.0,0.0,0.0,0.0,0.0,0.0,0.0,0.0,0.0,0.0,0.0,0.0,0.0,
1.3806,3.2912111021894246,3.2912111021894246,3.216909051138074,0.0,0.0,0.0,3.2664437518389744,0.0,0.0,0.0,0.0,0.0,0.0,0.0,0.0,0.0,0.0,0.0,0.0,0.0,0.0,
1.4,3.292647812282454,3.292647812282454,3.2182854891270676,0.0,0.0,0.0,3.267860371230659,0.0,0.0,0.0,0.0,0.0,0.0,0.0,0.0,0.0,0.0,0.0,0.0,0.0,0.0,
1.4195,3.2941151112642015,3.2941151112642015,3.2196912300327005,0.0,0.0,0.0,3.269307150853701,0.0,0.0,0.0,0.0,0.0,0.0,0.0,0.0,0.0,0.0,0.0,0.0,0.0,0.0,
1.4389,3.295598084598206,3.295598084598206,3.221111984876167,0.0,0.0,0.0,3.2707693846908596,0.0,0.0,0.0,0.0,0.0,0.0,0.0,0.0,0.0,0.0,0.0,0.0,0.0,0.0,
1.4584,3.297112158992698,3.297112158992698,3.2225625329710232,0.0,0.0,0.0,3.2722622836521396,0.0,0.0,0.0,0.0,0.0,0.0,0.0,0.0,0.0,0.0,0.0,0.0,0.0,0.0,
1.4778,3.2986419455932445,3.2986419455932445,3.2240281309675543,0.0,0.0,0.0,3.2737706740513475,0.0,0.0,0.0,0.0,0.0,0.0,0.0,0.0,0.0,0.0,0.0,0.0,0.0,0.0,
1.4973,3.3002033592695508,3.3002033592695508,3.2255240257849103,0.0,0.0,0.0,3.275310248108004,0.0,0.0,0.0,0.0,0.0,0.0,0.0,0.0,0.0,0.0,0.0,0.0,0.0,0.0,
1.5167,3.3017805312335695,3.3017805312335695,3.2270350143284143,0.0,0.0,0.0,3.276865358931851,0.0,0.0,0.0,0.0,0.0,0.0,0.0,0.0,0.0,0.0,0.0,0.0,0.0,0.0,
1.5362,3.303389870587542,3.303389870587542,3.228576816930959,0.0,0.0,0.0,3.278452186035348,0.0,0.0,0.0,0.0,0.0,0.0,0.0,0.0,0.0,0.0,0.0,0.0,0.0,0.0,
1.5556,3.305015022771791,3.305015022771791,3.230133765166334,0.0,0.0,0.0,3.2800546035699725,0.0,0.0,0.0,0.0,0.0,0.0,0.0,0.0,0.0,0.0,0.0,0.0,0.0,0.0,
1.575,3.306664332982758,3.306664332982758,3.2317138538289756,0.0,0.0,0.0,3.281680839931497,0.0,0.0,0.0,0.0,0.0,0.0,0.0,0.0,0.0,0.0,0.0,0.0,0.0,0.0,
1.5945,3.3083466481813724,3.3083466481813724,3.233325558334876,0.0,0.0,0.0,3.28333961823254,0.0,0.0,0.0,0.0,0.0,0.0,0.0,0.0,0.0,0.0,0.0,0.0,0.0,0.0,
1.6139,3.310044874341627,3.310044874341627,3.2349525019182708,0.0,0.0,0.0,3.2850140835338415,0.0,0.0,0.0,0.0,0.0,0.0,0.0,0.0,0.0,0.0,0.0,0.0,0.0,0.0,
1.6334,3.311776683666237,3.311776683666237,3.2366116147706405,0.0,0.0,0.0,3.2867216607010383,0.0,0.0,0.0,0.0,0.0,0.0,0.0,0.0,0.0,0.0,0.0,0.0,0.0,0.0,
1.6528,3.313524480753147,3.313524480753147,3.2382860398632416,0.0,0.0,0.0,3.288445000456512,0.0,0.0,0.0,0.0,0.0,0.0,0.0,0.0,0.0,0.0,0.0,0.0,0.0,0.0,
1.6723,3.315306455249377,3.315306455249377,3.2399932030050436,0.0,0.0,0.0,3.290202037834599,0.0,0.0,0.0,0.0,0.0,0.0,0.0,0.0,0.0,0.0,0.0,0.0,0.0,0.0,
1.6917,3.3171045037052633,3.3171045037052633,3.2417157605210822,0.0,0.0,0.0,3.29197492264387,0.0,0.0,0.0,0.0,0.0,0.0,0.0,0.0,0.0,0.0,0.0,0.0,0.0,0.0,
1.7112,3.3189373404448763,3.3189373404448763,3.2434716407554247,0.0,0.0,0.0,3.293782107215059,0.0,0.0,0.0,0.0,0.0,0.0,0.0,0.0,0.0,0.0,0.0,0.0,0.0,0.0,
1.7306,3.320786347043422,3.320786347043422,3.2452430067590443,0.0,0.0,0.0,3.295605233615296,0.0,0.0,0.0,0.0,0.0,0.0,0.0,0.0,0.0,0.0,0.0,0.0,0.0,0.0,
1.75,3.3226610397898395,3.3226610397898395,3.2470389749896342,0.0,0.0,0.0,3.2974536848564378,0.0,0.0,0.0,0.0,0.0,0.0,0.0,0.0,0.0,0.0,0.0,0.0,0.0,0.0,
1.7695,3.3245714687761105,3.3245714687761105,3.2488691731719603,0.0,0.0,0.0,3.299337370241394,0.0,0.0,0.0,0.0,0.0,0.0,0.0,0.0,0.0,0.0,0.0,0.0,0.0,0.0,
1.7889,3.3264982302256976,3.3264982302256976,3.2507150121157258,0.0,0.0,0.0,3.301237157522374,0.0,0.0,0.0,0.0,0.0,0.0,0.0,0.0,0.0,0.0,0.0,0.0,0.0,0.0,
1.8084,3.3284613829757967,3.3284613829757967,3.2525957078898475,0.0,0.0,0.0,3.3031728246138137,0.0,0.0,0.0,0.0,0.0,0.0,0.0,0.0,0.0,0.0,0.0,0.0,0.0,0.0,
1.8278,3.3304409897896305,3.3304409897896305,3.2544921603458805,0.0,0.0,0.0,3.3051247133083805,0.0,0.0,0.0,0.0,0.0,0.0,0.0,0.0,0.0,0.0,0.0,0.0,0.0,0.0,
1.8473,3.332457661780593,3.332457661780593,3.256424114480922,0.0,0.0,0.0,3.307113146014036,0.0,0.0,0.0,0.0,0.0,0.0,0.0,0.0,0.0,0.0,0.0,0.0,0.0,0.0,
1.8667,3.3344909203588813,3.3344909203588813,3.258371951638456,0.0,0.0,0.0,3.309117930785406,0.0,0.0,0.0,0.0,0.0,0.0,0.0,0.0,0.0,0.0,0.0,0.0,0.0,0.0,
1.8862,3.3365619375023825,3.3365619375023825,3.2603559539553646,0.0,0.0,0.0,3.3111599429867096,0.0,0.0,0.0,0.0,0.0,0.0,0.0,0.0,0.0,0.0,0.0,0.0,0.0,0.0,
1.9056,3.3386496850775877,3.3386496850775877,3.262355976432515,0.0,0.0,0.0,3.3132184488625636,0.0,0.0,0.0,0.0,0.0,0.0,0.0,0.0,0.0,0.0,0.0,0.0,0.0,0.0,
1.9251,3.340775904847712,3.340775904847712,3.264392846875529,0.0,0.0,0.0,3.315314885523651,0.0,0.0,0.0,0.0,0.0,0.0,0.0,0.0,0.0,0.0,0.0,0.0,0.0,0.0,
1.9445,3.3429190106361877,3.3429190106361877,3.2664458858134022,0.0,0.0,0.0,3.317427969028593,0.0,0.0,0.0,0.0,0.0,0.0,0.0,0.0,0.0,0.0,0.0,0.0,0.0,0.0,
1.9639,3.3450900595007207,3.3450900595007207,3.2685256852604994,0.0,0.0,0.0,3.319568601420647,0.0,0.0,0.0,0.0,0.0,0.0,0.0,0.0,0.0,0.0,0.0,0.0,0.0,0.0,
1.9834,3.3473006896736504,3.3473006896736504,3.270643393794452,0.0,0.0,0.0,3.3217482577139172,0.0,0.0,0.0,0.0,0.0,0.0,0.0,0.0,0.0,0.0,0.0,0.0,0.0,0.0,
2.0028,3.349528462014856,3.349528462014856,3.2727775150320313,0.0,0.0,0.0,3.323944813020581,0.0,0.0,0.0,0.0,0.0,0.0,0.0,0.0,0.0,0.0,0.0,0.0,0.0,0.0,
2.0223,3.3517965833098065,3.3517965833098065,3.2749502797212964,0.0,0.0,0.0,3.3261811487803032,0.0,0.0,0.0,0.0,0.0,0.0,0.0,0.0,0.0,0.0,0.0,0.0,0.0,0.0,
2.0417,3.354082033713266,3.354082033713266,3.2771396353345286,0.0,0.0,0.0,3.32843456758702,0.0,0.0,0.0,0.0,0.0,0.0,0.0,0.0,0.0,0.0,0.0,0.0,0.0,0.0,
2.0612,3.356408623815478,3.356408623815478,3.279368390806637,0.0,0.0,0.0,3.3307285461458647,0.0,0.0,0.0,0.0,0.0,0.0,0.0,0.0,0.0,0.0,0.0,0.0,0.0,0.0,
2.0806,3.3587527433940316,3.3587527433940316,3.2816139282168653,0.0,0.0,0.0,3.333039805001643,0.0,0.0,0.0,0.0,0.0,0.0,0.0,0.0,0.0,0.0,0.0,0.0,0.0,0.0,
2.1001,3.3611388174292456,3.3611388174292456,3.2838996448029993,0.0,0.0,0.0,3.3353924265538297,0.0,0.0,0.0,0.0,0.0,0.0,0.0,0.0,0.0,0.0,0.0,0.0,0.0,0.0,
2.1195,3.363542635285113,3.363542635285113,3.2862023476549034,0.0,0.0,0.0,3.3377625394083767,0.0,0.0,0.0,0.0,0.0,0.0,0.0,0.0,0.0,0.0,0.0,0.0,0.0,0.0,
2.1389,3.3659766223809133,3.3659766223809133,3.288533939024986,0.0,0.0,0.0,3.340162394595604,0.0,0.0,0.0,0.0,0.0,0.0,0.0,0.0,0.0,0.0,0.0,0.0,0.0,0.0,
2.1584,3.368453832097645,3.368453832097645,3.2909069224472245,0.0,0.0,0.0,3.3426048622141717,0.0,0.0,0.0,0.0,0.0,0.0,0.0,0.0,0.0,0.0,0.0,0.0,0.0,0.0,
2.1778,3.37094913432744,3.37094913432744,3.2932972245055243,0.0,0.0,0.0,3.3450651643868015,0.0,0.0,0.0,0.0,0.0,0.0,0.0,0.0,0.0,0.0,0.0,0.0,0.0,0.0,
2.1973,3.373488538249481,3.373488538249481,3.2957297592714863,0.0,0.0,0.0,3.3475689452568163,0.0,0.0,0.0,0.0,0.0,0.0,0.0,0.0,0.0,0.0,0.0,0.0,0.0,0.0,
2.2167,3.376046286576243,3.376046286576243,3.2981798527510633,0.0,0.0,0.0,3.350090808634516,0.0,0.0,0.0,0.0,0.0,0.0,0.0,0.0,0.0,0.0,0.0,0.0,0.0,0.0,
2.2362,3.3786490432699785,3.3786490432699785,3.3006730459112545,0.0,0.0,0.0,3.3526570441504036,0.0,0.0,0.0,0.0,0.0,0.0,0.0,0.0,0.0,0.0,0.0,0.0,0.0,0.0,
2.2556,3.381270412435065,3.381270412435065,3.303184053255968,0.0,0.0,0.0,3.3552416260420324,0.0,0.0,0.0,0.0,0.0,0.0,0.0,0.0,0.0,0.0,0.0,0.0,0.0,0.0,
2.2751,3.3839377253977863,3.3839377253977863,3.305739054664477,0.0,0.0,0.0,3.3578715018200165,0.0,0.0,0.0,0.0,0.0,0.0,0.0,0.0,0.0,0.0,0.0,0.0,0.0,0.0,
2.2945,3.3866239357911225,3.3866239357911225,3.308312141800166,0.0,0.0,0.0,3.360520004460804,0.0,0.0,0.0,0.0,0.0,0.0,0.0,0.0,0.0,0.0,0.0,0.0,0.0,0.0,
2.314,3.3893570553840298,3.3893570553840298,3.3109301459452674,0.0,0.0,0.0,3.3632147522377758,0.0,0.0,0.0,0.0,0.0,0.0,0.0,0.0,0.0,0.0,0.0,0.0,0.0,0.0,
2.3334,3.392109375021849,3.392109375021849,3.3135665241521584,0.0,0.0,0.0,3.3659284247319525,0.0,0.0,0.0,0.0,0.0,0.0,0.0,0.0,0.0,0.0,0.0,0.0,0.0,0.0,
2.3528,3.3948951535769054,3.3948951535769054,3.316234933871305,0.0,0.0,0.0,3.368675080341705,0.0,0.0,0.0,0.0,0.0,0.0,0.0,0.0,0.0,0.0,0.0,0.0,0.0,0.0,
2.3723,3.3977293471319734,3.3977293471319734,3.3189496999842527,0.0,0.0,0.0,3.3714694647493997,0.0,0.0,0.0,0.0,0.0,0.0,0.0,0.0,0.0,0.0,0.0,0.0,0.0,0.0,
2.3917,3.400583229105284,3.400583229105284,3.3216833054160313,0.0,0.0,0.0,3.3742832545422003,0.0,0.0,0.0,0.0,0.0,0.0,0.0,0.0,0.0,0.0,0.0,0.0,0.0,0.0,
2.4112,3.4034865721319805,3.4034865721319805,3.3244642670148115,0.0,0.0,0.0,3.377145803759591,0.0,0.0,0.0,0.0,0.0,0.0,0.0,0.0,0.0,0.0,0.0,0.0,0.0,0.0,
2.4306,3.4064099539601904,3.4064099539601904,3.327264401675529,0.0,0.0,0.0,3.3800281031986366,0.0,0.0,0.0,0.0,0.0,0.0,0.0,0.0,0.0,0.0,0.0,0.0,0.0,0.0,
2.4501,3.409383877674739,3.409383877674739,3.3301129253924038,0.0,0.0,0.0,3.3829602269139607,0.0,0.0,0.0,0.0,0.0,0.0,0.0,0.0,0.0,0.0,0.0,0.0,0.0,0.0,
2.4695,3.412378211295068,3.412378211295068,3.3329809756000666,0.0,0.0,0.0,3.385912466063401,0.0,0.0,0.0,0.0,0.0,0.0,0.0,0.0,0.0,0.0,0.0,0.0,0.0,0.0,
2.489,3.4154242039675644,3.4154242039675644,3.3358984823385867,0.0,0.0,0.0,3.3889156300912386,0.0,0.0,0.0,0.0,0.0,0.0,0.0,0.0,0.0,0.0,0.0,0.0,0.0,0.0,
2.5084,3.4184909993766706,3.4184909993766706,3.338835889630406,0.0,0.0,0.0,3.391939296127916,0.0,0.0,0.0,0.0,0.0,0.0,0.0,0.0,0.0,0.0,0.0,0.0,0.0,0.0,
2.5278,3.4215945156571905,3.4215945156571905,3.3418084429226873,0.0,0.0,0.0,3.3949991580790226,0.0,0.0,0.0,0.0,0.0,0.0,0.0,0.0,0.0,0.0,0.0,0.0,0.0,0.0,
