energies(eV),real_xx,real_yy,real_zz,real_xy,real_yz,real_xz,real_ave,imag_xx,imag_yy,imag_zz,imag_xy,imag_yz,imag_xz,imag_ave,absorption_xx,absorption_yy,absorption_zz,absorption_xy,absorption_yz,absorption_xz,absorption_ave,band_gap
0.0,3.2044219459662773,3.2044219459662773,3.139303496256998,0.0,0.0,0.0,3.1827157960631838,0.0,0.0,0.0,0.0,0.0,0.0,0.0,0.0,0.0,0.0,0.0,0.0,0.0,0.0,6.802899999999999
0.0203,3.204429561912831,3.204429561912831,3.1393107330202716,0.0,0.0,0.0,3.1827232856153116,0.0,0.0,0.0,0.0,0.0,0.0,0.0,0.0,0.0,0.0,0.0,0.0,0.0,0.0,
0.0406,3.2044524101929484,3.2044524101929484,3.139332443726545,0.0,0.0,0.0,3.182745754704147,0.0,0.0,0.0,0.0,0.0,0.0,0.0,0.0,0.0,0.0,0.0,0.0,0.0,0.0,
0.0609,3.2044904921281194,3.2044904921281194,3.139368629625267,0.0,0.0,0.0,3.1827832046271687,0.0,0.0,0.0,0.0,0.0,0.0,0.0,0.0,0.0,0.0,0.0,0.0,0.0,0.0,
0.0812,3.2045438099210055,3.2045438099210055,3.1394192927991806,0.0,0.0,0.0,3.1828356375470634,0.0,0.0,0.0,0.0,0.0,0.0,0.0,0.0,0.0,0.0,0.0,0.0,0.0,0.0,
0.1015,3.204612366655891,3.204612366655891,3.1394844361645218,0.0,0.0,0.0,3.1829030564921013,0.0,0.0,0.0,0.0,0.0,0.0,0.0,0.0,0.0,0.0,0.0,0.0,0.0,0.0,
0.1218,3.2046961662991613,3.2046961662991613,3.139564063471646,0.0,0.0,0.0,3.1829854653566563,0.0,0.0,0.0,0.0,0.0,0.0,0.0,0.0,0.0,0.0,0.0,0.0,0.0,0.0,
0.1421,3.20479521370004,3.20479521370004,3.1396581793055613,0.0,0.0,0.0,3.183082868901881,0.0,0.0,0.0,0.0,0.0,0.0,0.0,0.0,0.0,0.0,0.0,0.0,0.0,0.0,
0.1624,3.2049095145913147,3.2049095145913147,3.139766789086838,0.0,0.0,0.0,3.183195272756489,0.0,0.0,0.0,0.0,0.0,0.0,0.0,0.0,0.0,0.0,0.0,0.0,0.0,0.0,
0.1827,3.2050390755904026,3.2050390755904026,3.139889899072405,0.0,0.0,0.0,3.1833226834177366,0.0,0.0,0.0,0.0,0.0,0.0,0.0,0.0,0.0,0.0,0.0,0.0,0.0,0.0,
0.203,3.2051839042003762,3.2051839042003762,3.1400275163567124,0.0,0.0,0.0,3.1834651082524883,0.0,0.0,0.0,0.0,0.0,0.0,0.0,0.0,0.0,0.0,0.0,0.0,0.0,0.0,
0.2233,3.2053440088113643,3.2053440088113643,3.1401796488728295,0.0,0.0,0.0,3.1836225554985194,0.0,0.0,0.0,0.0,0.0,0.0,0.0,0.0,0.0,0.0,0.0,0.0,0.0,0.0,
0.2436,3.2055193987018447,3.2055193987018447,3.1403463053939618,0.0,0.0,0.0,3.183795034265884,0.0,0.0,0.0,0.0,0.0,0.0,0.0,0.0,0.0,0.0,0.0,0.0,0.0,0.0,
0.2639,3.205710084040327,3.205710084040327,3.14052749553479,0.0,0.0,0.0,3.1839825545384812,0.0,0.0,0.0,0.0,0.0,0.0,0.0,0.0,0.0,0.0,0.0,0.0,0.0,0.0,
0.2842,3.2059160758870187,3.2059160758870187,3.1407232297532173,0.0,0.0,0.0,3.1841851271757515,0.0,0.0,0.0,0.0,0.0,0.0,0.0,0.0,0.0,0.0,0.0,0.0,0.0,0.0,
0.3045,3.2061373861957425,3.2061373861957425,3.140933519352056,0.0,0.0,0.0,3.184402763914514,0.0,0.0,0.0,0.0,0.0,0.0,0.0,0.0,0.0,0.0,0.0,0.0,0.0,0.0,
0.3248,3.2063740278159507,3.2063740278159507,3.141158376481101,0.0,0.0,0.0,3.184635477371001,0.0,0.0,0.0,0.0,0.0,0.0,0.0,0.0,0.0,0.0,0.0,0.0,0.0,0.0,
0.3451,3.206626014494927,3.206626014494927,3.141397814139091,0.0,0.0,0.0,3.184883281042982,0.0,0.0,0.0,0.0,0.0,0.0,0.0,0.0,0.0,0.0,0.0,0.0,0.0,0.0,
0.3654,3.206893360880131,3.206893360880131,3.1416518461759924,0.0,0.0,0.0,3.185146189312085,0.0,0.0,0.0,0.0,0.0,0.0,0.0,0.0,0.0,0.0,0.0,0.0,0.0,0.0,
0.3857,3.20717608252175,3.20717608252175,3.1419204872953346,0.0,0.0,0.0,3.1854242174462777,0.0,0.0,0.0,0.0,0.0,0.0,0.0,0.0,0.0,0.0,0.0,0.0,0.0,0.0,
0.406,3.2074741958752297,3.2074741958752297,3.142203753056791,0.0,0.0,0.0,3.185717381602417,0.0,0.0,0.0,0.0,0.0,0.0,0.0,0.0,0.0,0.0,0.0,0.0,0.0,0.0,
0.4263,3.207787718304229,3.207787718304229,3.1425016598788207,0.0,0.0,0.0,3.186025698829093,0.0,0.0,0.0,0.0,0.0,0.0,0.0,0.0,0.0,0.0,0.0,0.0,0.0,0.0,
0.4466,3.2081166680835413,3.2081166680835413,3.142814225041514,0.0,0.0,0.0,3.1863491870695326,0.0,0.0,0.0,0.0,0.0,0.0,0.0,0.0,0.0,0.0,0.0,0.0,0.0,0.0,
0.4669,3.2084610644021905,3.2084610644021905,3.1431414666894804,0.0,0.0,0.0,3.1866878651646204,0.0,0.0,0.0,0.0,0.0,0.0,0.0,0.0,0.0,0.0,0.0,0.0,0.0,0.0,
0.4872,3.2088209273667996,3.2088209273667996,3.14348340383513,0.0,0.0,0.0,3.1870417528562434,0.0,0.0,0.0,0.0,0.0,0.0,0.0,0.0,0.0,0.0,0.0,0.0,0.0,0.0,
0.5075,3.2091962780050274,3.2091962780050274,3.1438400563618636,0.0,0.0,0.0,3.1874108707906394,0.0,0.0,0.0,0.0,0.0,0.0,0.0,0.0,0.0,0.0,0.0,0.0,0.0,0.0,
0.5278,3.2095871382691485,3.2095871382691485,3.1442114450274925,0.0,0.0,0.0,3.1877952405219303,0.0,0.0,0.0,0.0,0.0,0.0,0.0,0.0,0.0,0.0,0.0,0.0,0.0,0.0,
0.5481,3.20999353103988,3.20999353103988,3.1445975914679085,0.0,0.0,0.0,3.1881948845158896,0.0,0.0,0.0,0.0,0.0,0.0,0.0,0.0,0.0,0.0,0.0,0.0,0.0,0.0,
0.5683,3.2104133633961194,3.2104133633961194,3.1449965069291466,0.0,0.0,0.0,3.1886077445737953,0.0,0.0,0.0,0.0,0.0,0.0,0.0,0.0,0.0,0.0,0.0,0.0,0.0,0.0,
0.5886,3.2108508167397103,3.2108508167397103,3.1454121643744477,0.0,0.0,0.0,3.1890379326179557,0.0,0.0,0.0,0.0,0.0,0.0,0.0,0.0,0.0,0.0,0.0,0.0,0.0,0.0,
0.6089,3.211303876714205,3.211303876714205,3.1458426496868963,0.0,0.0,0.0,3.1894834677051023,0.0,0.0,0.0,0.0,0.0,0.0,0.0,0.0,0.0,0.0,0.0,0.0,0.0,0.0,
0.6292,3.211772569950603,3.211772569950603,3.146287988049249,0.0,0.0,0.0,3.189944375983485,0.0,0.0,0.0,0.0,0.0,0.0,0.0,0.0,0.0,0.0,0.0,0.0,0.0,0.0,
0.6495,3.2122569240297727,3.2122569240297727,3.146748205542655,0.0,0.0,0.0,3.190420684534067,0.0,0.0,0.0,0.0,0.0,0.0,0.0,0.0,0.0,0.0,0.0,0.0,0.0,0.0,
0.6698,3.21275696748726,3.21275696748726,3.1472233291512337,0.0,0.0,0.0,3.1909124213752507,0.0,0.0,0.0,0.0,0.0,0.0,0.0,0.0,0.0,0.0,0.0,0.0,0.0,0.0,
0.6901,3.2132727298182386,3.2132727298182386,3.1477133867667506,0.0,0.0,0.0,3.1914196154677428,0.0,0.0,0.0,0.0,0.0,0.0,0.0,0.0,0.0,0.0,0.0,0.0,0.0,0.0,
0.7104,3.2138042414827166,3.2138042414827166,3.1482184071935806,0.0,0.0,0.0,3.1919422967196716,0.0,0.0,0.0,0.0,0.0,0.0,0.0,0.0,0.0,0.0,0.0,0.0,0.0,0.0,
0.7307,3.214351533910834,3.214351533910834,3.1487384201537347,0.0,0.0,0.0,3.1924804959918007,0.0,0.0,0.0,0.0,0.0,0.0,0.0,0.0,0.0,0.0,0.0,0.0,0.0,0.0,
0.751,3.2149146395083434,3.2149146395083434,3.149273456292116,0.0,0.0,0.0,3.1930342451029343,0.0,0.0,0.0,0.0,0.0,0.0,0.0,0.0,0.0,0.0,0.0,0.0,0.0,0.0,
0.7713,3.215493591662416,3.215493591662416,3.1498235471818985,0.0,0.0,0.0,3.1936035768355766,0.0,0.0,0.0,0.0,0.0,0.0,0.0,0.0,0.0,0.0,0.0,0.0,0.0,0.0,
0.7916,3.216088424747423,3.216088424747423,3.1503887253301714,0.0,0.0,0.0,3.194188524941673,0.0,0.0,0.0,0.0,0.0,0.0,0.0,0.0,0.0,0.0,0.0,0.0,0.0,0.0,
0.8119,3.216699174131055,3.216699174131055,3.150969024183657,0.0,0.0,0.0,3.194789124148589,0.0,0.0,0.0,0.0,0.0,0.0,0.0,0.0,0.0,0.0,0.0,0.0,0.0,0.0,
0.8322,3.2173258761805794,3.2173258761805794,3.1515644781346928,0.0,0.0,0.0,3.195405410165284,0.0,0.0,0.0,0.0,0.0,0.0,0.0,0.0,0.0,0.0,0.0,0.0,0.0,0.0,
0.8525,3.2179685682692862,3.2179685682692862,3.152175122527311,0.0,0.0,0.0,3.196037419688628,0.0,0.0,0.0,0.0,0.0,0.0,0.0,0.0,0.0,0.0,0.0,0.0,0.0,0.0,
0.8728,3.218627288783122,3.218627288783122,3.1528009936636208,0.0,0.0,0.0,3.196685190409955,0.0,0.0,0.0,0.0,0.0,0.0,0.0,0.0,0.0,0.0,0.0,0.0,0.0,0.0,
0.8931,3.2193020771275496,3.2193020771275496,3.153442128810235,0.0,0.0,0.0,3.1973487610217783,0.0,0.0,0.0,0.0,0.0,0.0,0.0,0.0,0.0,0.0,0.0,0.0,0.0,0.0,
0.9134,3.2199929737346102,3.2199929737346102,3.1540985662050223,0.0,0.0,0.0,3.1980281712247476,0.0,0.0,0.0,0.0,0.0,0.0,0.0,0.0,0.0,0.0,0.0,0.0,0.0,0.0,
0.9337,3.2207000200700904,3.2207000200700904,3.1547703450639757,0.0,0.0,0.0,3.198723461734719,0.0,0.0,0.0,0.0,0.0,0.0,0.0,0.0,0.0,0.0,0.0,0.0,0.0,0.0,
0.954,3.2214232586410674,3.2214232586410674,3.155457505588199,0.0,0.0,0.0,3.1994346742901114,0.0,0.0,0.0,0.0,0.0,0.0,0.0,0.0,0.0,0.0,0.0,0.0,0.0,0.0,
0.9743,3.2221627330034908,3.2221627330034908,3.156160088971319,0.0,0.0,0.0,3.2001618516594337,0.0,0.0,0.0,0.0,0.0,0.0,0.0,0.0,0.0,0.0,0.0,0.0,0.0,0.0,
0.9946,3.2229184877700976,3.2229184877700976,3.1568781374068875,0.0,0.0,0.0,3.2009050376490276,0.0,0.0,0.0,0.0,0.0,0.0,0.0,0.0,0.0,0.0,0.0,0.0,0.0,0.0,
1.0149,3.22369056861841,3.22369056861841,3.157611694095998,0.0,0.0,0.0,3.2016642771109396,0.0,0.0,0.0,0.0,0.0,0.0,0.0,0.0,0.0,0.0,0.0,0.0,0.0,0.0,
1.0352,3.224479022299157,3.224479022299157,3.158360803255323,0.0,0.0,0.0,3.2024396159512123,0.0,0.0,0.0,0.0,0.0,0.0,0.0,0.0,0.0,0.0,0.0,0.0,0.0,0.0,
1.0555,3.2252838966446484,3.2252838966446484,3.15912551012499,0.0,0.0,0.0,3.203231101138096,0.0,0.0,0.0,0.0,0.0,0.0,0.0,0.0,0.0,0.0,0.0,0.0,0.0,0.0,
1.0758,3.2261052405775845,3.2261052405775845,3.159905860977079,0.0,0.0,0.0,3.2040387807107495,0.0,0.0,0.0,0.0,0.0,0.0,0.0,0.0,0.0,0.0,0.0,0.0,0.0,0.0,
1.0961,3.2269431041200414,3.2269431041200414,3.1607019031240107,0.0,0.0,0.0,3.204862703788031,0.0,0.0,0.0,0.0,0.0,0.0,0.0,0.0,0.0,0.0,0.0,0.0,0.0,0.0,
1.1164,3.227797538402595,3.227797538402595,3.1615136849273426,0.0,0.0,0.0,3.205702920577511,0.0,0.0,0.0,0.0,0.0,0.0,0.0,0.0,0.0,0.0,0.0,0.0,0.0,0.0,
1.1367,3.228668595673758,3.228668595673758,3.162341255806659,0.0,0.0,0.0,3.206559482384725,0.0,0.0,0.0,0.0,0.0,0.0,0.0,0.0,0.0,0.0,0.0,0.0,0.0,0.0,
1.157,3.229556329309673,3.229556329309673,3.1631846662488394,0.0,0.0,0.0,3.2074324416227284,0.0,0.0,0.0,0.0,0.0,0.0,0.0,0.0,0.0,0.0,0.0,0.0,0.0,0.0,
1.1773,3.2304607938239696,3.2304607938239696,3.1640439678173977,0.0,0.0,0.0,3.208321851821779,0.0,0.0,0.0,0.0,0.0,0.0,0.0,0.0,0.0,0.0,0.0,0.0,0.0,0.0,
1.1976,3.231382044877924,3.231382044877924,3.164919213162112,0.0,0.0,0.0,3.20922776763932,0.0,0.0,0.0,0.0,0.0,0.0,0.0,0.0,0.0,0.0,0.0,0.0,0.0,0.0,
1.2179,3.2323201392908962,3.2323201392908962,3.1658104560289604,0.0,0.0,0.0,3.210150244870251,0.0,0.0,0.0,0.0,0.0,0.0,0.0,0.0,0.0,0.0,0.0,0.0,0.0,0.0,
1.2382,3.23327513505085,3.23327513505085,3.166717751270225,0.0,0.0,0.0,3.2110893404573084,0.0,0.0,0.0,0.0,0.0,0.0,0.0,0.0,0.0,0.0,0.0,0.0,0.0,0.0,
1.2585,3.2342470913253747,3.2342470913253747,3.16764115485473,0.0,0.0,0.0,3.2120451125018263,0.0,0.0,0.0,0.0,0.0,0.0,0.0,0.0,0.0,0.0,0.0,0.0,0.0,0.0,
1.2788,3.2352360684727772,3.2352360684727772,3.16858072387867,0.0,0.0,0.0,3.213017620274741,0.0,0.0,0.0,0.0,0.0,0.0,0.0,0.0,0.0,0.0,0.0,0.0,0.0,0.0,
1.2991,3.236242128053502,3.236242128053502,3.169536516576244,0.0,0.0,0.0,3.2140069242277494,0.0,0.0,0.0,0.0,0.0,0.0,0.0,0.0,0.0,0.0,0.0,0.0,0.0,0.0,
1.3194,3.237265332841886,3.237265332841886,3.170508592330925,0.0,0.0,0.0,3.2150130860048987,0.0,0.0,0.0,0.0,0.0,0.0,0.0,0.0,0.0,0.0,0.0,0.0,0.0,0.0,
1.3397,3.2383057468380274,3.2383057468380274,3.171497011686783,0.0,0.0,0.0,3.2160361684542793,0.0,0.0,0.0,0.0,0.0,0.0,0.0,0.0,0.0,0.0,0.0,0.0,0.0,0.0,
1.36,3.2393634352801355,3.2393634352801355,3.172501836360103,0.0,0.0,0.0,3.217076235640125,0.0,0.0,0.0,0.0,0.0,0.0,0.0,0.0,0.0,0.0,0.0,0.0,0.0,0.0,
1.3803,3.2404384646569704,3.2404384646569704,3.1735231292513166,0.0,0.0,0.0,3.218133352855086,0.0,0.0,0.0,0.0,0.0,0.0,0.0,0.0,0.0,0.0,0.0,0.0,0.0,0.0,
1.4006,3.2415309027207204,3.2415309027207204,3.174560954457266,0.0,0.0,0.0,3.2192075866329026,0.0,0.0,0.0,0.0,0.0,0.0,0.0,0.0,0.0,0.0,0.0,0.0,0.0,0.0,
1.4209,3.2426408185000652,3.2426408185000652,3.175615377283502,0.0,0.0,0.0,3.220299004761211,0.0,0.0,0.0,0.0,0.0,0.0,0.0,0.0,0.0,0.0,0.0,0.0,0.0,0.0,
1.4412,3.2437682823136322,3.2437682823136322,3.176686464257215,0.0,0.0,0.0,3.221407676294826,0.0,0.0,0.0,0.0,0.0,0.0,0.0,0.0,0.0,0.0,0.0,0.0,0.0,0.0,
1.4615,3.244913365783738,3.244913365783738,3.177774283140159,0.0,0.0,0.0,3.2225336715692117,0.0,0.0,0.0,0.0,0.0,0.0,0.0,0.0,0.0,0.0,0.0,0.0,0.0,0.0,
1.4818,3.246076141850296,3.246076141850296,3.1788789029420874,0.0,0.0,0.0,3.2236770622142266,0.0,0.0,0.0,0.0,0.0,0.0,0.0,0.0,0.0,0.0,0.0,0.0,0.0,0.0,
1.5021,3.247256684785286,3.247256684785286,3.180000393934284,0.0,0.0,0.0,3.224837921168285,0.0,0.0,0.0,0.0,0.0,0.0,0.0,0.0,0.0,0.0,0.0,0.0,0.0,0.0,
1.5224,3.2484550702073807,3.2484550702073807,3.181138827663641,0.0,0.0,0.0,3.2260163226928005,0.0,0.0,0.0,0.0,0.0,0.0,0.0,0.0,0.0,0.0,0.0,0.0,0.0,0.0,
1.5427,3.249671375096927,3.249671375096927,3.1822942769668043,0.0,0.0,0.0,3.227212342386886,0.0,0.0,0.0,0.0,0.0,0.0,0.0,0.0,0.0,0.0,0.0,0.0,0.0,0.0,
1.563,3.2509056778112715,3.2509056778112715,3.1834668159848647,0.0,0.0,0.0,3.2284260572024692,0.0,0.0,0.0,0.0,0.0,0.0,0.0,0.0,0.0,0.0,0.0,0.0,0.0,0.0,
1.5833,3.252158058100488,3.252158058100488,3.1846565201781782,0.0,0.0,0.0,3.2296575454597183,0.0,0.0,0.0,0.0,0.0,0.0,0.0,0.0,0.0,0.0,0.0,0.0,0.0,0.0,
1.6036,3.253428597123328,3.253428597123328,3.1858634663416776,0.0,0.0,0.0,3.230906886862778,0.0,0.0,0.0,0.0,0.0,0.0,0.0,0.0,0.0,0.0,0.0,0.0,0.0,0.0,
1.6239,3.2547173774636753,3.2547173774636753,3.1870877326204283,0.0,0.0,0.0,3.232174162515926,0.0,0.0,0.0,0.0,0.0,0.0,0.0,0.0,0.0,0.0,0.0,0.0,0.0,0.0,
1.6442,3.256024483147206,3.256024483147206,3.188329398525507,0.0,0.0,0.0,3.233459454939973,0.0,0.0,0.0,0.0,0.0,0.0,0.0,0.0,0.0,0.0,0.0,0.0,0.0,0.0,
1.6645,3.25734999965852,3.25734999965852,3.1895885449503933,0.0,0.0,0.0,3.234762848089144,0.0,0.0,0.0,0.0,0.0,0.0,0.0,0.0,0.0,0.0,0.0,0.0,0.0,0.0,
1.6848,3.2586940139586993,3.2586940139586993,3.190865254187517,0.0,0.0,0.0,3.2360844273683056,0.0,0.0,0.0,0.0,0.0,0.0,0.0,0.0,0.0,0.0,0.0,0.0,0.0,0.0,
1.705,3.2600498564857205,3.2600498564857205,3.1921531904201443,0.0,0.0,0.0,3.2374176344638617,0.0,0.0,0.0,0.0,0.0,0.0,0.0,0.0,0.0,0.0,0.0,0.0,0.0,0.0,
1.7253,3.2614310410182386,3.2614310410182386,3.193465190281251,0.0,0.0,0.0,3.2387757574392424,0.0,0.0,0.0,0.0,0.0,0.0,0.0,0.0,0.0,0.0,0.0,0.0,0.0,0.0,
1.7456,3.262830992807541,3.262830992807541,3.194795007967601,0.0,0.0,0.0,3.2401523311942277,0.0,0.0,0.0,0.0,0.0,0.0,0.0,0.0,0.0,0.0,0.0,0.0,0.0,0.0,
1.7659,3.2642498048953987,3.2642498048953987,3.1961427315341386,0.0,0.0,0.0,3.241547447108312,0.0,0.0,0.0,0.0,0.0,0.0,0.0,0.0,0.0,0.0,0.0,0.0,0.0,0.0,
1.7862,3.2656875718933267,3.2656875718933267,3.1975084505235687,0.0,0.0,0.0,3.242961198103407,0.0,0.0,0.0,0.0,0.0,0.0,0.0,0.0,0.0,0.0,0.0,0.0,0.0,0.0,
1.8065,3.2671443900024384,3.2671443900024384,3.198892255985358,0.0,0.0,0.0,3.2443936786634118,0.0,0.0,0.0,0.0,0.0,0.0,0.0,0.0,0.0,0.0,0.0,0.0,0.0,0.0,
1.8268,3.2686203570338357,3.2686203570338357,3.2002942404950225,0.0,0.0,0.0,3.2458449848542315,0.0,0.0,0.0,0.0,0.0,0.0,0.0,0.0,0.0,0.0,0.0,0.0,0.0,0.0,
1.8471,3.270115572429386,3.270115572429386,3.2017144981740047,0.0,0.0,0.0,3.2473152143442587,0.0,0.0,0.0,0.0,0.0,0.0,0.0,0.0,0.0,0.0,0.0,0.0,0.0,0.0,
1.8674,3.2716301372830237,3.2716301372830237,3.2031531247099267,0.0,0.0,0.0,3.248804466425325,0.0,0.0,0.0,0.0,0.0,0.0,0.0,0.0,0.0,0.0,0.0,0.0,0.0,0.0,
1.8877,3.2731641543624197,3.2731641543624197,3.204610217377193,0.0,0.0,0.0,3.250312842034011,0.0,0.0,0.0,0.0,0.0,0.0,0.0,0.0,0.0,0.0,0.0,0.0,0.0,0.0,
1.908,3.274717728131228,3.274717728131228,3.2060858750582013,0.0,0.0,0.0,3.2518404437735526,0.0,0.0,0.0,0.0,0.0,0.0,0.0,0.0,0.0,0.0,0.0,0.0,0.0,0.0,
1.9283,3.2762909647716985,3.2762909647716985,3.207580198264893,0.0,0.0,0.0,3.2533873759360965,0.0,0.0,0.0,0.0,0.0,0.0,0.0,0.0,0.0,0.0,0.0,0.0,0.0,0.0,
1.9486,3.2778839722079485,3.2778839722079485,3.209093289160879,0.0,0.0,0.0,3.254953744525592,0.0,0.0,0.0,0.0,0.0,0.0,0.0,0.0,0.0,0.0,0.0,0.0,0.0,0.0,
1.9689,3.279496860129542,3.279496860129542,3.2106252515839455,0.0,0.0,0.0,3.2565396572810097,0.0,0.0,0.0,0.0,0.0,0.0,0.0,0.0,0.0,0.0,0.0,0.0,0.0,0.0,
1.9892,3.2811297400157864,3.2811297400157864,3.2121761910691364,0.0,0.0,0.0,3.2581452237002364,0.0,0.0,0.0,0.0,0.0,0.0,0.0,0.0,0.0,0.0,0.0,0.0,0.0,0.0,
2.0095,3.282782725160399,3.282782725160399,3.2137462148723257,0.0,0.0,0.0,3.2597705550643745,0.0,0.0,0.0,0.0,0.0,0.0,0.0,0.0,0.0,0.0,0.0,0.0,0.0,0.0,
2.0298,3.284455930696826,3.284455930696826,3.2153354319942533,0.0,0.0,0.0,3.2614157644626354,0.0,0.0,0.0,0.0,0.0,0.0,0.0,0.0,0.0,0.0,0.0,0.0,0.0,0.0,
2.0501,3.2861494736240506,3.2861494736240506,3.2169439532052118,0.0,0.0,0.0,3.263080966817771,0.0,0.0,0.0,0.0,0.0,0.0,0.0,0.0,0.0,0.0,0.0,0.0,0.0,0.0,
2.0704,3.2878634728330156,3.2878634728330156,3.218571891070118,0.0,0.0,0.0,3.26476627891205,0.0,0.0,0.0,0.0,0.0,0.0,0.0,0.0,0.0,0.0,0.0,0.0,0.0,0.0,
2.0907,3.28959804913357,3.28959804913357,3.220219359974271,0.0,0.0,0.0,3.2664718194138036,0.0,0.0,0.0,0.0,0.0,0.0,0.0,0.0,0.0,0.0,0.0,0.0,0.0,0.0,
2.111,3.291353325282065,3.291353325282065,3.221886476149643,0.0,0.0,0.0,3.268197708904591,0.0,0.0,0.0,0.0,0.0,0.0,0.0,0.0,0.0,0.0,0.0,0.0,0.0,0.0,
2.1313,3.293129426009544,3.293129426009544,3.223573357701672,0.0,0.0,0.0,3.26994406990692,0.0,0.0,0.0,0.0,0.0,0.0,0.0,0.0,0.0,0.0,0.0,0.0,0.0,0.0,
2.1516,3.294926478050534,3.294926478050534,3.225280124636761,0.0,0.0,0.0,3.27171102691261,0.0,0.0,0.0,0.0,0.0,0.0,0.0,0.0,0.0,0.0,0.0,0.0,0.0,0.0,
2.1719,3.296744610172458,3.296744610172458,3.2270068988903624,0.0,0.0,0.0,3.2734987064117593,0.0,0.0,0.0,0.0,0.0,0.0,0.0,0.0,0.0,0.0,0.0,0.0,0.0,0.0,
2.1922,3.298583953205786,3.298583953205786,3.228753804355619,0.0,0.0,0.0,3.2753072369223974,0.0,0.0,0.0,0.0,0.0,0.0,0.0,0.0,0.0,0.0,0.0,0.0,0.0,0.0,
2.2125,3.3004446400747844,3.3004446400747844,3.230520966912711,0.0,0.0,0.0,3.27713674902076,0.0,0.0,0.0,0.0,0.0,0.0,0.0,0.0,0.0,0.0,0.0,0.0,0.0,0.0,
2.2328,3.3023268058289004,3.3023268058289004,3.2323085144588277,0.0,0.0,0.0,3.278987375372209,0.0,0.0,0.0,0.0,0.0,0.0,0.0,0.0,0.0,0.0,0.0,0.0,0.0,0.0,
2.2531,3.304230587674994,3.304230587674994,3.2341165769388565,0.0,0.0,0.0,3.280859250762948,0.0,0.0,0.0,0.0,0.0,0.0,0.0,0.0,0.0,0.0,0.0,0.0,0.0,0.0,
2.2734,3.306156125010121,3.306156125010121,3.235945286376614,0.0,0.0,0.0,3.2827525121322854,0.0,0.0,0.0,0.0,0.0,0.0,0.0,0.0,0.0,0.0,0.0,0.0,0.0,0.0,
2.2937,3.308103559455199,3.308103559455199,3.2377947769070596,0.0,0.0,0.0,3.2846672986058194,0.0,0.0,0.0,0.0,0.0,0.0,0.0,0.0,0.0,0.0,0.0,0.0,0.0,0.0,
2.314,3.3100730348893053,3.3100730348893053,3.2396651848088682,0.0,0.0,0.0,3.2866037515291597,0.0,0.0,0.0,0.0,0.0,0.0,0.0,0.0,0.0,0.0,0.0,0.0,0.0,0.0,
2.3343,3.3120646974848578,3.3120646974848578,3.2415566485380807,0.0,0.0,0.0,3.288562014502599,0.0,0.0,0.0,0.0,0.0,0.0,0.0,0.0,0.0,0.0,0.0,0.0,0.0,0.0,
2.3546,3.314078695743429,3.314078695743429,3.243469308762245,0.0,0.0,0.0,3.2905422334163674,0.0,0.0,0.0,0.0,0.0,0.0,0.0,0.0,0.0,0.0,0.0,0.0,0.0,0.0,
2.3749,3.3161151805325852,3.3161151805325852,3.245403308395531,0.0,0.0,0.0,3.2925445564869005,0.0,0.0,0.0,0.0,0.0,0.0,0.0,0.0,0.0,0.0,0.0,0.0,0.0,0.0,
2.3952,3.318174305123322,3.318174305123322,3.24735879263451,0.0,0.0,0.0,3.294569134293718,0.0,0.0,0.0,0.0,0.0,0.0,0.0,0.0,0.0,0.0,0.0,0.0,0.0,0.0,
2.4155,3.3202562252286074,3.3202562252286074,3.2493359089948397,0.0,0.0,0.0,3.2966161198173514,0.0,0.0,0.0,0.0,0.0,0.0,0.0,0.0,0.0,0.0,0.0,0.0,0.0,0.0,
2.4358,3.322361099042507,3.322361099042507,3.2513348073486803,0.0,0.0,0.0,3.298685668477898,0.0,0.0,0.0,0.0,0.0,0.0,0.0,0.0,0.0,0.0,0.0,0.0,0.0,0.0,
2.4561,3.3244890872804786,3.3244890872804786,3.253355639963097,0.0,0.0,0.0,3.3007779381746847,0.0,0.0,0.0,0.0,0.0,0.0,0.0,0.0,0.0,0.0,0.0,0.0,0.0,0.0,
2.4764,3.32664035322037,3.32664035322037,3.255398561539229,0.0,0.0,0.0,3.302893089326657,0.0,0.0,0.0,0.0,0.0,0.0,0.0,0.0,0.0,0.0,0.0,0.0,0.0,0.0,
2.4967,3.328815062744554,3.328815062744554,3.257463729252446,0.0,0.0,0.0,3.3050312849138517,0.0,0.0,0.0,0.0,0.0,0.0,0.0,0.0,0.0,0.0,0.0,0.0,0.0,0.0,
2.517,3.331013384382801,3.331013384382801,3.259551302793344,0.0,0.0,0.0,3.3071926905196487,0.0,0.0,0.0,0.0,0.0,0.0,0.0,0.0,0.0,0.0,0.0,0.0,0.0,0.0,
2.5373,3.3332354893563823,3.3332354893563823,3.2616614444097864,0.0,0.0,0.0,3.309377474374184,0.0,0.0,0.0,0.0,0.0,0.0,0.0,0.0,0.0,0.0,0.0,0.0,0.0,0.0,
2.5576,3.335481551623016,3.335481551623016,3.263794318949865,0.0,0.0,0.0,3.3115858073986324,0.0,0.0,0.0,0.0,0.0,0.0,0.0,0.0,0.0,0.0,0.0,0.0,0.0,0.0,
2.5779,3.3377517479229137,3.3377517479229137,3.265950093905838,0.0,0.0,0.0,3.3138178632505553,0.0,0.0,0.0,0.0,0.0,0.0,0.0,0.0,0.0,0.0,0.0,0.0,0.0,0.0,
2.5982,3.3400462578259282,3.3400462578259282,3.2681289394591646,0.0,0.0,0.0,3.31607381837034,0.0,0.0,0.0,0.0,0.0,0.0,0.0,0.0,0.0,0.0,0.0,0.0,0.0,0.0,
2.6185,3.3423652637797656,3.3423652637797656,3.270331028526531,0.0,0.0,0.0,3.3183538520286873,0.0,0.0,0.0,0.0,0.0,0.0,0.0,0.0,0.0,0.0,0.0,0.0,0.0,0.0,
2.6388,3.3447089511593404,3.3447089511593404,3.2725565368069933,0.0,0.0,0.0,3.3206581463752247,0.0,0.0,0.0,0.0,0.0,0.0,0.0,0.0,0.0,0.0,0.0,0.0,0.0,0.0,
