energies(eV),real_xx,real_yy,real_zz,real_xy,real_yz,real_xz,real_ave,imag_xx,imag_yy,imag_zz,imag_xy,imag_yz,imag_xz,imag_ave,absorption_xx,absorption_yy,absorption_zz,absorption_xy,absorption_yz,absorption_xz,absorption_ave,band_gap
0.0,3.5973816493403445,3.5560463864351224,3.4632472060181616,0.0,0.0,0.048018373530417914,3.538891747264543,0.0,0.0,0.0,0.0,0.0,0.0,0.0,0.0,0.0,0.0,0.0,0.0,0.0,0.0,6.104000000000001
0.0187,3.597390140265923,3.556054753719698,3.463254985384376,0.0,0.0,0.04801868945517088,3.538899959789999,0.0,0.0,0.0,0.0,0.0,0.0,0.0,0.0,0.0,0.0,0.0,0.0,0.0,0.0,
0.0375,3.5974157953737493,3.5560800352551856,3.4632784905237526,0.0,0.0,0.048019644020680416,3.5389247737175626,0.0,0.0,0.0,0.0,0.0,0.0,0.0,0.0,0.0,0.0,0.0,0.0,0.0,0.0,
0.0562,3.5974583431212066,3.5561219634700034,3.4633174726179305,0.0,0.0,0.04802122714494044,3.5389659264030464,0.0,0.0,0.0,0.0,0.0,0.0,0.0,0.0,0.0,0.0,0.0,0.0,0.0,0.0,
0.075,3.5975182408886996,3.556180989113222,3.463372350664023,0.0,0.0,0.048023455882266086,3.539023860221981,0.0,0.0,0.0,0.0,0.0,0.0,0.0,0.0,0.0,0.0,0.0,0.0,0.0,0.0,
0.0937,3.5975948546979315,3.556256487477148,3.4634425437400504,0.0,0.0,0.04802630669303748,3.53909796197171,0.0,0.0,0.0,0.0,0.0,0.0,0.0,0.0,0.0,0.0,0.0,0.0,0.0,0.0,
0.1125,3.5976890081342012,3.556349270207673,3.4635288063136374,0.0,0.0,0.048029810287872066,3.539189028218504,0.0,0.0,0.0,0.0,0.0,0.0,0.0,0.0,0.0,0.0,0.0,0.0,0.0,0.0,
0.1312,3.597799704647184,3.556458355324908,3.463630225237414,0.0,0.0,0.048033929662373055,3.5392960950698353,0.0,0.0,0.0,0.0,0.0,0.0,0.0,0.0,0.0,0.0,0.0,0.0,0.0,0.0,
0.15,3.597928134207729,3.5565849155518983,3.4637478906108634,0.0,0.0,0.048038709193014964,3.53942031345683,0.0,0.0,0.0,0.0,0.0,0.0,0.0,0.0,0.0,0.0,0.0,0.0,0.0,0.0,
0.1687,3.598072937479085,3.55672761142281,3.4638805568696274,0.0,0.0,0.048044098399364334,3.5395603685905073,0.0,0.0,0.0,0.0,0.0,0.0,0.0,0.0,0.0,0.0,0.0,0.0,0.0,0.0,
0.1874,3.5982347599534426,3.5568870791303873,3.464028815226076,0.0,0.0,0.04805012142430378,3.5397168847699683,0.0,0.0,0.0,0.0,0.0,0.0,0.0,0.0,0.0,0.0,0.0,0.0,0.0,0.0,
0.2062,3.5984146125912497,3.557064315035221,3.464193591693936,0.0,0.0,0.04805681603577847,3.5398908397734687,0.0,0.0,0.0,0.0,0.0,0.0,0.0,0.0,0.0,0.0,0.0,0.0,0.0,0.0,
0.2249,3.5986105917877746,3.5572574433485857,3.46437314201534,0.0,0.0,0.048064111527208304,3.5400803923839006,0.0,0.0,0.0,0.0,0.0,0.0,0.0,0.0,0.0,0.0,0.0,0.0,0.0,0.0,
0.2437,3.598824804306821,3.557468540319895,3.4645693960985255,0.0,0.0,0.0480720864911911,3.5402875802417473,0.0,0.0,0.0,0.0,0.0,0.0,0.0,0.0,0.0,0.0,0.0,0.0,0.0,0.0,
0.2624,3.599054982879532,3.5576953717989763,3.464780276484372,0.0,0.0,0.04808065669898623,3.5405102103876267,0.0,0.0,0.0,0.0,0.0,0.0,0.0,0.0,0.0,0.0,0.0,0.0,0.0,0.0,
0.2812,3.5993036019219216,3.5579403763764934,3.465008049844007,0.0,0.0,0.04808991447606689,3.5407506760474736,0.0,0.0,0.0,0.0,0.0,0.0,0.0,0.0,0.0,0.0,0.0,0.0,0.0,0.0,
0.2999,3.599568030012226,3.558200961053332,3.4652503050803314,0.0,0.0,0.04809976204583854,3.5410064320486296,0.0,0.0,0.0,0.0,0.0,0.0,0.0,0.0,0.0,0.0,0.0,0.0,0.0,0.0,
0.3186,3.599849558270354,3.5584783983544477,3.4655082247323845,0.0,0.0,0.04811024770574896,3.541278727119062,0.0,0.0,0.0,0.0,0.0,0.0,0.0,0.0,0.0,0.0,0.0,0.0,0.0,0.0,
0.3374,3.6001498450317224,3.5587743227163866,3.465783327700932,0.0,0.0,0.0481214334706508,3.54156916514968,0.0,0.0,0.0,0.0,0.0,0.0,0.0,0.0,0.0,0.0,0.0,0.0,0.0,0.0,
0.3561,3.6004657120429857,3.5590856022599118,3.4660727019048005,0.0,0.0,0.04813320120301718,3.5418746720692327,0.0,0.0,0.0,0.0,0.0,0.0,0.0,0.0,0.0,0.0,0.0,0.0,0.0,0.0,
0.3749,3.600800554918168,3.5594155834988888,3.4663794577571996,0.0,0.0,0.04814567767764844,3.5421985320580855,0.0,0.0,0.0,0.0,0.0,0.0,0.0,0.0,0.0,0.0,0.0,0.0,0.0,0.0,
0.3936,3.6011508296835375,3.5597607741414223,3.4667003481385033,0.0,0.0,0.048158731126704095,3.542537317321154,0.0,0.0,0.0,0.0,0.0,0.0,0.0,0.0,0.0,0.0,0.0,0.0,0.0,0.0,
0.4124,3.6015203018676316,3.5601248853008687,3.46703882224482,0.0,0.0,0.04817250217769688,3.54289466980444,0.0,0.0,0.0,0.0,0.0,0.0,0.0,0.0,0.0,0.0,0.0,0.0,0.0,0.0,
0.4311,3.6019050610093877,3.560504063507599,3.4673912972328225,0.0,0.0,0.048186845392101614,3.5432668072499367,0.0,0.0,0.0,0.0,0.0,0.0,0.0,0.0,0.0,0.0,0.0,0.0,0.0,0.0,
0.4499,3.602309243383776,3.5609023853049693,3.4677615618242217,0.0,0.0,0.04820191529425278,3.5436577301709886,0.0,0.0,0.0,0.0,0.0,0.0,0.0,0.0,0.0,0.0,0.0,0.0,0.0,0.0,
0.4686,3.602728571194958,3.5613156352001325,3.4681456966949944,0.0,0.0,0.04821755273030682,3.5440633010300284,0.0,0.0,0.0,0.0,0.0,0.0,0.0,0.0,0.0,0.0,0.0,0.0,0.0,0.0,
0.4873,3.603165171148904,3.561745909343774,3.468545649565927,0.0,0.0,0.0482338373445544,3.5444855766862013,0.0,0.0,0.0,0.0,0.0,0.0,0.0,0.0,0.0,0.0,0.0,0.0,0.0,0.0,
0.5061,3.603621540878587,3.5621956695026133,3.468963707833571,0.0,0.0,0.048250862695162426,3.5449269727382577,0.0,0.0,0.0,0.0,0.0,0.0,0.0,0.0,0.0,0.0,0.0,0.0,0.0,0.0,
0.5248,3.604092850311949,3.562660155871973,3.4693954463258296,0.0,0.0,0.048268448980639415,3.5453828175032505,0.0,0.0,0.0,0.0,0.0,0.0,0.0,0.0,0.0,0.0,0.0,0.0,0.0,0.0,
0.5436,3.604584166279689,3.5631443622599237,3.4698455058607593,0.0,0.0,0.04828678567087299,3.5458580114667906,0.0,0.0,0.0,0.0,0.0,0.0,0.0,0.0,0.0,0.0,0.0,0.0,0.0,0.0,
0.5623,3.6050902889019425,3.563643164371067,3.4703091225764533,0.0,0.0,0.04830567911867286,3.5463475252831542,0.0,0.0,0.0,0.0,0.0,0.0,0.0,0.0,0.0,0.0,0.0,0.0,0.0,0.0,
0.5811,3.605616659326323,3.5641619250082086,3.470791280003795,0.0,0.0,0.048325332880307804,3.546856621446109,0.0,0.0,0.0,0.0,0.0,0.0,0.0,0.0,0.0,0.0,0.0,0.0,0.0,0.0,
0.5998,3.6061577067313664,3.564695154253994,3.471286874578427,0.0,0.0,0.04834553940305752,3.547379911854596,0.0,0.0,0.0,0.0,0.0,0.0,0.0,0.0,0.0,0.0,0.0,0.0,0.0,0.0,
0.6185,3.606716214133948,3.565245595259632,3.4717984548821104,0.0,0.0,0.04836640305434785,3.5479200880918964,0.0,0.0,0.0,0.0,0.0,0.0,0.0,0.0,0.0,0.0,0.0,0.0,0.0,0.0,
0.6373,3.6072953395324823,3.5658163608402593,3.472328912791868,0.0,0.0,0.048388042330618004,3.5484802043882033,0.0,0.0,0.0,0.0,0.0,0.0,0.0,0.0,0.0,0.0,0.0,0.0,0.0,0.0,
0.656,3.6078889538828816,3.566401410833016,3.472872633584133,0.0,0.0,0.04841022871764669,3.549054332766677,0.0,0.0,0.0,0.0,0.0,0.0,0.0,0.0,0.0,0.0,0.0,0.0,0.0,0.0,
0.6748,3.6085034391120128,3.5670070355135883,3.473435462011311,0.0,0.0,0.04843320126067643,3.5496486455456373,0.0,0.0,0.0,0.0,0.0,0.0,0.0,0.0,0.0,0.0,0.0,0.0,0.0,0.0,
0.6935,3.6091322920353996,3.5676268259049007,3.474011440790635,0.0,0.0,0.04845671737091426,3.550256852910312,0.0,0.0,0.0,0.0,0.0,0.0,0.0,0.0,0.0,0.0,0.0,0.0,0.0,0.0,
0.7123,3.6097822735166556,3.568267445890792,3.474606761510339,0.0,0.0,0.04848103042586259,3.550885493639262,0.0,0.0,0.0,0.0,0.0,0.0,0.0,0.0,0.0,0.0,0.0,0.0,0.0,0.0,
0.731,3.610446504802029,3.5689221162537987,3.475215123052535,0.0,0.0,0.04850588368654331,3.551527914702788,0.0,0.0,0.0,0.0,0.0,0.0,0.0,0.0,0.0,0.0,0.0,0.0,0.0,0.0,
0.7498,3.6111321272102104,3.569597876002366,3.475843065196073,0.0,0.0,0.04853154494367724,3.5521910228028832,0.0,0.0,0.0,0.0,0.0,0.0,0.0,0.0,0.0,0.0,0.0,0.0,0.0,0.0,
0.7685,3.611831884902929,3.5702875741662514,3.4764839416350717,0.0,0.0,0.048557743227852126,3.552867800234751,0.0,0.0,0.0,0.0,0.0,0.0,0.0,0.0,0.0,0.0,0.0,0.0,0.0,0.0,
0.7872,3.612549416346745,3.5709947973624816,3.47714108385671,0.0,0.0,0.0485846153128047,3.5535617658553122,0.0,0.0,0.0,0.0,0.0,0.0,0.0,0.0,0.0,0.0,0.0,0.0,0.0,0.0,
0.806,3.613288741762384,3.571723508635392,3.4778181726876305,0.0,0.0,0.04861231246181025,3.5542768076951354,0.0,0.0,0.0,0.0,0.0,0.0,0.0,0.0,0.0,0.0,0.0,0.0,0.0,0.0,
0.8247,3.614042037159533,3.572465996858446,3.4785080417967396,0.0,0.0,0.048640542218233745,3.5550053586049066,0.0,0.0,0.0,0.0,0.0,0.0,0.0,0.0,0.0,0.0,0.0,0.0,0.0,0.0,
0.8435,3.614817401715268,3.573230245571647,3.479218107423817,0.0,0.0,0.04866960877256554,3.5557552515702437,0.0,0.0,0.0,0.0,0.0,0.0,0.0,0.0,0.0,0.0,0.0,0.0,0.0,0.0,
0.8622,3.615606630184613,3.5740081677325666,3.4799408543269346,0.0,0.0,0.04869920521650684,3.556518550748038,0.0,0.0,0.0,0.0,0.0,0.0,0.0,0.0,0.0,0.0,0.0,0.0,0.0,0.0,
0.881,3.6164182082258165,3.5748081280259467,3.480684052312403,0.0,0.0,0.04872965047579005,3.557303462854722,0.0,0.0,0.0,0.0,0.0,0.0,0.0,0.0,0.0,0.0,0.0,0.0,0.0,0.0,
0.8997,3.6172435475137004,3.57562166167073,3.4814398355980045,0.0,0.0,0.048760623093439696,3.5581016815941453,0.0,0.0,0.0,0.0,0.0,0.0,0.0,0.0,0.0,0.0,0.0,0.0,0.0,0.0,
0.9184,3.6180869631987447,3.5764530226392477,3.4822121547048757,0.0,0.0,0.04879228565618564,3.558917380180956,0.0,0.0,0.0,0.0,0.0,0.0,0.0,0.0,0.0,0.0,0.0,0.0,0.0,0.0,
0.9372,3.6189531587193517,3.577306847858331,3.4830053153223806,0.0,0.0,0.04882481558946587,3.559755107300021,0.0,0.0,0.0,0.0,0.0,0.0,0.0,0.0,0.0,0.0,0.0,0.0,0.0,0.0,
0.9559,3.6198329680231804,3.578174102830129,3.4838109230965766,0.0,0.0,0.04885786944019254,3.5606059979832954,0.0,0.0,0.0,0.0,0.0,0.0,0.0,0.0,0.0,0.0,0.0,0.0,0.0,0.0,
0.9747,3.6207358511058554,3.5790641132364875,3.484637638993042,0.0,0.0,0.048891803416138906,3.5614792011117955,0.0,0.0,0.0,0.0,0.0,0.0,0.0,0.0,0.0,0.0,0.0,0.0,0.0,0.0,
0.9934,3.621652253871662,3.579967461884453,3.485476713688278,0.0,0.0,0.0489262592512675,3.5623654764814643,0.0,0.0,0.0,0.0,0.0,0.0,0.0,0.0,0.0,0.0,0.0,0.0,0.0,0.0,
1.0122,3.6225920299734513,3.5808938627720894,3.486337168113855,0.0,0.0,0.04896160827354584,3.5632743536197986,0.0,0.0,0.0,0.0,0.0,0.0,0.0,0.0,0.0,0.0,0.0,0.0,0.0,0.0,
1.0309,3.6235452351214326,3.5818335138632547,3.487209896057833,0.0,0.0,0.048997477289242114,3.564196215014173,0.0,0.0,0.0,0.0,0.0,0.0,0.0,0.0,0.0,0.0,0.0,0.0,0.0,0.0,
1.0497,3.6245221188963908,3.5827965197420513,3.48810428044212,0.0,0.0,0.049034252868655384,3.5651409730268546,0.0,0.0,0.0,0.0,0.0,0.0,0.0,0.0,0.0,0.0,0.0,0.0,0.0,0.0,
1.0684,3.625512344567763,3.58377269128476,3.4890108561619355,0.0,0.0,0.04907154677034117,3.5660986306714855,0.0,0.0,0.0,0.0,0.0,0.0,0.0,0.0,0.0,0.0,0.0,0.0,0.0,0.0,
1.0871,3.626521115563192,3.584767158739965,3.489934385915339,0.0,0.0,0.04910955575031035,3.5670742200728323,0.0,0.0,0.0,0.0,0.0,0.0,0.0,0.0,0.0,0.0,0.0,0.0,0.0,0.0,
1.1059,3.6275540337234813,3.5857854454306874,3.4908799965972452,0.0,0.0,0.04914849194699074,3.5680731585838044,0.0,0.0,0.0,0.0,0.0,0.0,0.0,0.0,0.0,0.0,0.0,0.0,0.0,0.0,
1.1246,3.6286001697601953,3.5868167777018902,3.4918376812994194,0.0,0.0,0.04918794433095203,3.5690848762538345,0.0,0.0,0.0,0.0,0.0,0.0,0.0,0.0,0.0,0.0,0.0,0.0,0.0,0.0,
1.1434,3.6296707731334132,3.5878722466678563,3.4928177368743305,0.0,0.0,0.049228338128647776,3.5701202522252,0.0,0.0,0.0,0.0,0.0,0.0,0.0,0.0,0.0,0.0,0.0,0.0,0.0,0.0,
1.1621,3.6307545160701116,3.588940685547219,3.4938097921302984,0.0,0.0,0.04926924693932637,3.5711683312492095,0.0,0.0,0.0,0.0,0.0,0.0,0.0,0.0,0.0,0.0,0.0,0.0,0.0,0.0,
1.1809,3.631863052704126,3.5900335847856653,3.4948245137050398,0.0,0.0,0.04931111170367387,3.572240383731611,0.0,0.0,0.0,0.0,0.0,0.0,0.0,0.0,0.0,0.0,0.0,0.0,0.0,0.0,
1.1996,3.6329846541826583,3.5911393818818658,3.4958511638090726,0.0,0.0,0.049353490510322284,3.573325066624532,0.0,0.0,0.0,0.0,0.0,0.0,0.0,0.0,0.0,0.0,0.0,0.0,0.0,0.0,
1.2184,3.634131382049567,3.592269969349846,3.4969007813033843,0.0,0.0,0.049396840162301114,3.574434044234266,0.0,0.0,0.0,0.0,0.0,0.0,0.0,0.0,0.0,0.0,0.0,0.0,0.0,0.0,
1.2371,3.6352911036733837,3.5934133862707367,3.49796225939447,0.0,0.0,0.04944070309256844,3.575555583112864,0.0,0.0,0.0,0.0,0.0,0.0,0.0,0.0,0.0,0.0,0.0,0.0,0.0,0.0,
1.2558,3.636469935446633,3.5945756638623894,3.4990411949549163,0.0,0.0,0.049485311562016,3.5766955980879795,0.0,0.0,0.0,0.0,0.0,0.0,0.0,0.0,0.0,0.0,0.0,0.0,0.0,0.0,
1.2746,3.6376744043738274,3.5957632386169496,3.500143559925164,0.0,0.0,0.049530913873104855,3.5778604009719803,0.0,0.0,0.0,0.0,0.0,0.0,0.0,0.0,0.0,0.0,0.0,0.0,0.0,0.0,
1.2933,3.6388917674103123,3.5969635472382553,3.501257689787441,0.0,0.0,0.049577028711655396,3.579037668145336,0.0,0.0,0.0,0.0,0.0,0.0,0.0,0.0,0.0,0.0,0.0,0.0,0.0,0.0,
1.3121,3.640135116758978,3.598189499558854,3.5023955647571845,0.0,0.0,0.049624153203239714,3.5802400603583386,0.0,0.0,0.0,0.0,0.0,0.0,0.0,0.0,0.0,0.0,0.0,0.0,0.0,0.0,
1.3308,3.6413912983881143,3.5994281266580463,3.5035451448872124,0.0,0.0,0.04967178998951115,3.5814548566444575,0.0,0.0,0.0,0.0,0.0,0.0,0.0,0.0,0.0,0.0,0.0,0.0,0.0,0.0,
1.3496,3.642673822352547,3.600692750885334,3.504718791916511,0.0,0.0,0.049720452625645284,3.5826951217181304,0.0,0.0,0.0,0.0,0.0,0.0,0.0,0.0,0.0,0.0,0.0,0.0,0.0,0.0,
1.3683,3.643969120557116,3.6019699946188672,3.505904087727023,0.0,0.0,0.04976962754287232,3.5839477343010024,0.0,0.0,0.0,0.0,0.0,0.0,0.0,0.0,0.0,0.0,0.0,0.0,0.0,0.0,
1.387,3.645284039615236,3.6032666099854485,3.5071072959245324,0.0,0.0,0.04981957571402331,3.585219315175072,0.0,0.0,0.0,0.0,0.0,0.0,0.0,0.0,0.0,0.0,0.0,0.0,0.0,0.0,
1.4058,3.646625847785012,3.604589765426669,3.508335065008154,0.0,0.0,0.04987057475341142,3.586516892739945,0.0,0.0,0.0,0.0,0.0,0.0,0.0,0.0,0.0,0.0,0.0,0.0,0.0,0.0,
1.4245,3.647980350421502,3.60592546480575,3.5095744047559343,0.0,0.0,0.0499220864729967,3.5878267399943957,0.0,0.0,0.0,0.0,0.0,0.0,0.0,0.0,0.0,0.0,0.0,0.0,0.0,0.0,
1.4433,3.649362116082512,3.6072880756605707,3.510838643053853,0.0,0.0,0.0499746662675852,3.589162944932312,0.0,0.0,0.0,0.0,0.0,0.0,0.0,0.0,0.0,0.0,0.0,0.0,0.0,0.0,
1.462,3.650756527875092,3.6086631849658324,3.5121144042177406,0.0,0.0,0.050027759295088695,3.590511372352888,0.0,0.0,0.0,0.0,0.0,0.0,0.0,0.0,0.0,0.0,0.0,0.0,0.0,0.0,
1.4808,3.6521785840758625,3.6100655846579692,3.5134154082203453,0.0,0.0,0.05008193802844134,3.591886525651392,0.0,0.0,0.0,0.0,0.0,0.0,0.0,0.0,0.0,0.0,0.0,0.0,0.0,0.0,
1.4995,3.6536132420629794,3.6114804413398627,3.514727890815043,0.0,0.0,0.0501366307822566,3.5932738580726284,0.0,0.0,0.0,0.0,0.0,0.0,0.0,0.0,0.0,0.0,0.0,0.0,0.0,0.0,
1.5183,3.6550759335003753,3.612922975021259,3.5160659673256385,0.0,0.0,0.050192427308901735,3.594688291949091,0.0,0.0,0.0,0.0,0.0,0.0,0.0,0.0,0.0,0.0,0.0,0.0,0.0,0.0,
1.537,3.656551186435152,3.6143779283280733,3.5174154817355743,0.0,0.0,0.05024873888349782,3.5961148654995996,0.0,0.0,0.0,0.0,0.0,0.0,0.0,0.0,0.0,0.0,0.0,0.0,0.0,0.0,
1.5557,3.658046816752701,3.6158530107335856,3.5187835819477673,0.0,0.0,0.05030586506031544,3.5975611364780185,0.0,0.0,0.0,0.0,0.0,0.0,0.0,0.0,0.0,0.0,0.0,0.0,0.0,0.0,
1.5745,3.659571078330918,3.617356364397698,3.5201778153071164,0.0,0.0,0.05036412293045565,3.5990350860119107,0.0,0.0,0.0,0.0,0.0,0.0,0.0,0.0,0.0,0.0,0.0,0.0,0.0,0.0,
1.5932,3.6611078487770694,3.6188720895229567,3.5215834324188777,0.0,0.0,0.05042289784956667,3.600521123572968,0.0,0.0,0.0,0.0,0.0,0.0,0.0,0.0,0.0,0.0,0.0,0.0,0.0,0.0,
1.612,3.662673659528007,3.620416492647666,3.5230155514744625,0.0,0.0,0.05048282367465853,3.6020352345500455,0.0,0.0,0.0,0.0,0.0,0.0,0.0,0.0,0.0,0.0,0.0,0.0,0.0,0.0,
1.6307,3.6642519493118164,3.6219732404379026,3.524459022809948,0.0,0.0,0.05054326820010601,3.603561404186556,0.0,0.0,0.0,0.0,0.0,0.0,0.0,0.0,0.0,0.0,0.0,0.0,0.0,0.0,
1.6495,3.66585969681561,3.623559081398172,3.525929372297196,0.0,0.0,0.05060488332645823,3.605116050170326,0.0,0.0,0.0,0.0,0.0,0.0,0.0,0.0,0.0,0.0,0.0,0.0,0.0,0.0,
1.6682,3.6674798978403196,3.6251572446039706,3.527411046401017,0.0,0.0,0.050667019064855434,3.6066827296151023,0.0,0.0,0.0,0.0,0.0,0.0,0.0,0.0,0.0,0.0,0.0,0.0,0.0,0.0,
1.6869,3.6691211490795173,3.626776211126355,3.5289119047562973,0.0,0.0,0.05073000646526023,3.60826975498739,0.0,0.0,0.0,0.0,0.0,0.0,0.0,0.0,0.0,0.0,0.0,0.0,0.0,0.0,
1.7057,3.6707924997630075,3.6284249093003957,3.5304402193731415,0.0,0.0,0.05079419491727292,3.609885876145515,0.0,0.0,0.0,0.0,0.0,0.0,0.0,0.0,0.0,0.0,0.0,0.0,0.0,0.0,
1.7244,3.6724762740187447,3.6300859045121716,3.5319798244438996,0.0,0.0,0.0508589073481745,3.611514000991605,0.0,0.0,0.0,0.0,0.0,0.0,0.0,0.0,0.0,0.0,0.0,0.0,0.0,0.0,
1.7432,3.6741905870343152,3.631777068616416,3.5335472813611752,0.0,0.0,0.05092484179488784,3.613171645670635,0.0,0.0,0.0,0.0,0.0,0.0,0.0,0.0,0.0,0.0,0.0,0.0,0.0,0.0,
1.7619,3.6759173093026423,3.633480518680168,3.535126010921056,0.0,0.0,0.05099130281219443,3.614841279634622,0.0,0.0,0.0,0.0,0.0,0.0,0.0,0.0,0.0,0.0,0.0,0.0,0.0,0.0,
1.7807,3.677675018827201,3.6352145841363184,3.5367329960303167,0.0,0.0,0.051059007344813494,3.616540866331279,0.0,0.0,0.0,0.0,0.0,0.0,0.0,0.0,0.0,0.0,0.0,0.0,0.0,0.0,
1.7994,3.679445127934278,3.6369609291907254,3.5383512400592183,0.0,0.0,0.051127241324730684,3.6182524323947405,0.0,0.0,0.0,0.0,0.0,0.0,0.0,0.0,0.0,0.0,0.0,0.0,0.0,0.0,
1.8182,3.6812466822263072,3.6387383456544353,3.5399981516773464,0.0,0.0,0.05119674087134051,3.6199943931860297,0.0,0.0,0.0,0.0,0.0,0.0,0.0,0.0,0.0,0.0,0.0,0.0,0.0,0.0,
1.8369,3.6830606311851404,3.6405280401824425,3.5416563126706495,0.0,0.0,0.0512667730349055,3.6217483280127443,0.0,0.0,0.0,0.0,0.0,0.0,0.0,0.0,0.0,0.0,0.0,0.0,0.0,0.0,
1.8556,3.6848966154091274,3.6423395260418774,3.5433345333055906,0.0,0.0,0.05133771158688383,3.6235235582521987,0.0,0.0,0.0,0.0,0.0,0.0,0.0,0.0,0.0,0.0,0.0,0.0,0.0,0.0,
1.8744,3.686764749333441,3.644182785134399,3.545042055148734,0.0,0.0,0.051409949824433664,3.625329863205524,0.0,0.0,0.0,0.0,0.0,0.0,0.0,0.0,0.0,0.0,0.0,0.0,0.0,0.0,
1.8931,3.6886452797041254,3.646038329286734,3.546760820095934,0.0,0.0,0.051482725996138276,3.6271481430289314,0.0,0.0,0.0,0.0,0.0,0.0,0.0,0.0,0.0,0.0,0.0,0.0,0.0,0.0,
1.9119,3.6905584424344515,3.6479261276621537,3.548509320135437,0.0,0.0,0.05155682536082835,3.628997963410681,0.0,0.0,0.0,0.0,0.0,0.0,0.0,0.0,0.0,0.0,0.0,0.0,0.0,0.0,
1.9306,3.6924840090747946,3.6498262221484126,3.550269064602803,0.0,0.0,0.0516314665989718,3.630859765275337,0.0,0.0,0.0,0.0,0.0,0.0,0.0,0.0,0.0,0.0,0.0,0.0,0.0,0.0,
1.9494,3.694442701123912,3.6517590623482605,3.5520589872175616,0.0,0.0,0.05170745515304213,3.6327535835632445,0.0,0.0,0.0,0.0,0.0,0.0,0.0,0.0,0.0,0.0,0.0,0.0,0.0,0.0,
1.9681,3.6964138097174213,3.6537042149734638,3.553860160118903,0.0,0.0,0.05178398984418506,3.634659394936596,0.0,0.0,0.0,0.0,0.0,0.0,0.0,0.0,0.0,0.0,0.0,0.0,0.0,0.0,
1.9868,3.698407822482164,3.6556720313680517,3.5556821641107175,0.0,0.0,0.05186147964499447,3.636587339320311,0.0,0.0,0.0,0.0,0.0,0.0,0.0,0.0,0.0,0.0,0.0,0.0,0.0,0.0,
2.0056,3.700435719678585,3.657673350389411,3.557535027981408,0.0,0.0,0.05194035411022512,3.638548032683135,0.0,0.0,0.0,0.0,0.0,0.0,0.0,0.0,0.0,0.0,0.0,0.0,0.0,0.0,
2.0243,3.702476062329221,3.659687016449408,3.559399159661518,0.0,0.0,0.052019781731641575,3.640520746146716,0.0,0.0,0.0,0.0,0.0,0.0,0.0,0.0,0.0,0.0,0.0,0.0,0.0,0.0,
2.0431,3.704550809748586,3.661734704229926,3.561294618345454,0.0,0.0,0.05210061976744682,3.6425267107746557,0.0,0.0,0.0,0.0,0.0,0.0,0.0,0.0,0.0,0.0,0.0,0.0,0.0,0.0,
2.0618,3.7066380287763647,3.6637947691448667,3.5632013625426624,0.0,0.0,0.05218201607861978,3.6445447201546313,0.0,0.0,0.0,0.0,0.0,0.0,0.0,0.0,0.0,0.0,0.0,0.0,0.0,0.0,
2.0806,3.7087601843936477,3.665889386501083,3.565139910990941,0.0,0.0,0.05226484924324731,3.6465964939618907,0.0,0.0,0.0,0.0,0.0,0.0,0.0,0.0,0.0,0.0,0.0,0.0,0.0,0.0,
2.0993,3.710894843443825,3.667996416875369,3.5670897676191746,0.0,0.0,0.05234824616437988,3.648660342646123,0.0,0.0,0.0,0.0,0.0,0.0,0.0,0.0,0.0,0.0,0.0,0.0,0.0,0.0,
2.1181,3.713064982728843,3.6701385423903092,3.5690719161641824,0.0,0.0,0.05243310709022672,3.6507584804277777,0.0,0.0,0.0,0.0,0.0,0.0,0.0,0.0,0.0,0.0,0.0,0.0,0.0,0.0,
2.1368,3.715247663101686,3.6722931227631554,3.5710654006558227,0.0,0.0,0.05251853762774152,3.6528687288402213,0.0,0.0,0.0,0.0,0.0,0.0,0.0,0.0,0.0,0.0,0.0,0.0,0.0,0.0,
2.1555,3.7174545129568677,3.674471638887593,3.5730808384613235,0.0,0.0,0.05260499494341811,3.655002330101928,0.0,0.0,0.0,0.0,0.0,0.0,0.0,0.0,0.0,0.0,0.0,0.0,0.0,0.0,
2.1743,3.7196976807075277,3.6766860867092204,3.5751293192144056,0.0,0.0,0.05269295834087005,3.6571710288770514,0.0,0.0,0.0,0.0,0.0,0.0,0.0,0.0,0.0,0.0,0.0,0.0,0.0,0.0,
2.193,3.7219534572649335,3.6789130636342255,3.5771891873930977,0.0,0.0,0.05278150085316224,3.6593519027640853,0.0,0.0,0.0,0.0,0.0,0.0,0.0,0.0,0.0,0.0,0.0,0.0,0.0,0.0,
