energies(eV),real_xx,real_yy,real_zz,real_xy,real_yz,real_xz,real_ave,imag_xx,imag_yy,imag_zz,imag_xy,imag_yz,imag_xz,imag_ave,absorption_xx,absorption_yy,absorption_zz,absorption_xy,absorption_yz,absorption_xz,absorption_ave,band_gap
0.0,2.5067117248883455,2.502538344095634,2.2915488537767743,0.0,0.0,0.0,2.433599640920251,0.0,0.0,0.0,0.0,0.0,0.0,0.0,0.0,0.0,0.0,0.0,0.0,0.0,0.0,7.3696
0.0198,2.506714698566218,2.5025412827341507,2.2915513151243916,0.0,0.0,0.0,2.4336024321415866,0.0,0.0,0.0,0.0,0.0,0.0,0.0,0.0,0.0,0.0,0.0,0.0,0.0,0.0,
0.0395,2.5067235596975883,2.5025500394529647,2.2915586495845055,0.0,0.0,0.0,2.433610749578353,0.0,0.0,0.0,0.0,0.0,0.0,0.0,0.0,0.0,0.0,0.0,0.0,0.0,0.0,
0.0593,2.5067383985334812,2.502564703438708,2.291570931856013,0.0,0.0,0.0,2.4336246779427344,0.0,0.0,0.0,0.0,0.0,0.0,0.0,0.0,0.0,0.0,0.0,0.0,0.0,0.0,
0.0791,2.506759185598267,2.502585245561501,2.291588137536791,0.0,0.0,0.0,2.4336441895655194,0.0,0.0,0.0,0.0,0.0,0.0,0.0,0.0,0.0,0.0,0.0,0.0,0.0,0.0,
0.0988,2.506785771594279,2.502611518280708,2.291610143044833,0.0,0.0,0.0,2.4336691443066063,0.0,0.0,0.0,0.0,0.0,0.0,0.0,0.0,0.0,0.0,0.0,0.0,0.0,0.0,
0.1186,2.5068184273012717,2.502643789182508,2.2916371724987235,0.0,0.0,0.0,2.433699796327501,0.0,0.0,0.0,0.0,0.0,0.0,0.0,0.0,0.0,0.0,0.0,0.0,0.0,0.0,
0.1384,2.5068570338573695,2.5026819408021392,2.29166912750457,0.0,0.0,0.0,2.433736034054693,0.0,0.0,0.0,0.0,0.0,0.0,0.0,0.0,0.0,0.0,0.0,0.0,0.0,0.0,
0.1582,2.5069015925268703,2.5027259743849015,2.2917060090962504,0.0,0.0,0.0,2.4337778586693406,0.0,0.0,0.0,0.0,0.0,0.0,0.0,0.0,0.0,0.0,0.0,0.0,0.0,0.0,
0.1779,2.506951834695866,2.50277562447761,2.2917475949255963,0.0,0.0,0.0,2.433825018033024,0.0,0.0,0.0,0.0,0.0,0.0,0.0,0.0,0.0,0.0,0.0,0.0,0.0,0.0,
0.1977,2.507008272084429,2.502831396764668,2.2917943085308545,0.0,0.0,0.0,2.433877992459984,0.0,0.0,0.0,0.0,0.0,0.0,0.0,0.0,0.0,0.0,0.0,0.0,0.0,0.0,
0.2175,2.5070706665409572,2.502893055894898,2.291845952773631,0.0,0.0,0.0,2.433936558403162,0.0,0.0,0.0,0.0,0.0,0.0,0.0,0.0,0.0,0.0,0.0,0.0,0.0,0.0,
0.2372,2.507138659914353,2.502960247931616,2.291902231190572,0.0,0.0,0.0,2.4340003796788467,0.0,0.0,0.0,0.0,0.0,0.0,0.0,0.0,0.0,0.0,0.0,0.0,0.0,0.0,
0.257,2.507212944723473,2.5030336572247527,2.291963716960475,0.0,0.0,0.0,2.4340701063029,0.0,0.0,0.0,0.0,0.0,0.0,0.0,0.0,0.0,0.0,0.0,0.0,0.0,0.0,
0.2768,2.5072931933101503,2.5031129599697834,2.292030138854814,0.0,0.0,0.0,2.434145430711583,0.0,0.0,0.0,0.0,0.0,0.0,0.0,0.0,0.0,0.0,0.0,0.0,0.0,0.0,
0.2965,2.507378957881997,2.503197713643977,2.292101126209994,0.0,0.0,0.0,2.434225932578656,0.0,0.0,0.0,0.0,0.0,0.0,0.0,0.0,0.0,0.0,0.0,0.0,0.0,0.0,
0.3163,2.507471111961661,2.5032887814647347,2.292177402012978,0.0,0.0,0.0,2.4343124318131246,0.0,0.0,0.0,0.0,0.0,0.0,0.0,0.0,0.0,0.0,0.0,0.0,0.0,0.0,
0.3361,2.5075692382895367,2.503385751080743,2.292258620867597,0.0,0.0,0.0,2.434404536745959,0.0,0.0,0.0,0.0,0.0,0.0,0.0,0.0,0.0,0.0,0.0,0.0,0.0,0.0,
0.3558,2.5076727993017434,2.503488091254989,2.2923443378035193,0.0,0.0,0.0,2.434501742786751,0.0,0.0,0.0,0.0,0.0,0.0,0.0,0.0,0.0,0.0,0.0,0.0,0.0,0.0,
0.3756,2.5077828497835095,2.5035968443272685,2.292435425827546,0.0,0.0,0.0,2.434605039979441,0.0,0.0,0.0,0.0,0.0,0.0,0.0,0.0,0.0,0.0,0.0,0.0,0.0,0.0,
0.3954,2.507898882752857,2.503711509280377,2.2925314652769946,0.0,0.0,0.0,2.4347139524367427,0.0,0.0,0.0,0.0,0.0,0.0,0.0,0.0,0.0,0.0,0.0,0.0,0.0,0.0,
0.4152,2.508020902024097,2.5038320898713353,2.292632459271241,0.0,0.0,0.0,2.4348284837222245,0.0,0.0,0.0,0.0,0.0,0.0,0.0,0.0,0.0,0.0,0.0,0.0,0.0,0.0,
0.4349,2.5081482500394627,2.503957936283225,2.292737863519697,0.0,0.0,0.0,2.4349480166141286,0.0,0.0,0.0,0.0,0.0,0.0,0.0,0.0,0.0,0.0,0.0,0.0,0.0,0.0,
0.4547,2.5082822238659057,2.504090330275303,2.292848751545963,0.0,0.0,0.0,2.43507376856239,0.0,0.0,0.0,0.0,0.0,0.0,0.0,0.0,0.0,0.0,0.0,0.0,0.0,0.0,
0.4745,2.508422196607566,2.5042286523292887,2.2929646044325507,0.0,0.0,0.0,2.435205151123135,0.0,0.0,0.0,0.0,0.0,0.0,0.0,0.0,0.0,0.0,0.0,0.0,0.0,0.0,
0.4942,2.508567420528966,2.5043721635138283,2.2930848032499718,0.0,0.0,0.0,2.4353414624309218,0.0,0.0,0.0,0.0,0.0,0.0,0.0,0.0,0.0,0.0,0.0,0.0,0.0,0.0,
0.514,2.5087193747744103,2.5045223255132103,2.293210572208112,0.0,0.0,0.0,2.435484090831911,0.0,0.0,0.0,0.0,0.0,0.0,0.0,0.0,0.0,0.0,0.0,0.0,0.0,0.0,
0.5338,2.508877342341285,2.504678429764635,2.2933413178086584,0.0,0.0,0.0,2.4356323633048595,0.0,0.0,0.0,0.0,0.0,0.0,0.0,0.0,0.0,0.0,0.0,0.0,0.0,0.0,
0.5535,2.509040485098092,2.504839648007409,2.2934763463047725,0.0,0.0,0.0,2.4357854931367577,0.0,0.0,0.0,0.0,0.0,0.0,0.0,0.0,0.0,0.0,0.0,0.0,0.0,0.0,
0.5733,2.5092104647066877,2.505007622284375,2.2936170329526364,0.0,0.0,0.0,2.4359450399812332,0.0,0.0,0.0,0.0,0.0,0.0,0.0,0.0,0.0,0.0,0.0,0.0,0.0,0.0,
0.5931,2.5093864738488803,2.50518155478262,2.293762709502375,0.0,0.0,0.0,2.4361102460446253,0.0,0.0,0.0,0.0,0.0,0.0,0.0,0.0,0.0,0.0,0.0,0.0,0.0,0.0,
0.6128,2.5095675837520797,2.505360527670665,2.293912607189421,0.0,0.0,0.0,2.4362802395373886,0.0,0.0,0.0,0.0,0.0,0.0,0.0,0.0,0.0,0.0,0.0,0.0,0.0,0.0,
0.6326,2.5097556390910976,2.5055463638379716,2.2940682527214777,0.0,0.0,0.0,2.4364567518835156,0.0,0.0,0.0,0.0,0.0,0.0,0.0,0.0,0.0,0.0,0.0,0.0,0.0,0.0,
0.6524,2.509949741996598,2.505738175989476,2.2942289029045257,0.0,0.0,0.0,2.436638940296867,0.0,0.0,0.0,0.0,0.0,0.0,0.0,0.0,0.0,0.0,0.0,0.0,0.0,0.0,
0.6722,2.5101498988979563,2.5059359704583493,2.2943945629972826,0.0,0.0,0.0,2.4368268107845292,0.0,0.0,0.0,0.0,0.0,0.0,0.0,0.0,0.0,0.0,0.0,0.0,0.0,0.0,
0.6919,2.5103550596886537,2.5061387095133494,2.2945643638191617,0.0,0.0,0.0,2.4370193776737215,0.0,0.0,0.0,0.0,0.0,0.0,0.0,0.0,0.0,0.0,0.0,0.0,0.0,0.0,
0.7117,2.5105673140310687,2.5063484581288646,2.294740034807961,0.0,0.0,0.0,2.4372186023226314,0.0,0.0,0.0,0.0,0.0,0.0,0.0,0.0,0.0,0.0,0.0,0.0,0.0,0.0,
0.7315,2.5107856428568933,2.5065642092430194,2.294920732464098,0.0,0.0,0.0,2.437423528188004,0.0,0.0,0.0,0.0,0.0,0.0,0.0,0.0,0.0,0.0,0.0,0.0,0.0,0.0,
0.7512,2.511008904741068,2.5067848348865462,2.2951055120352564,0.0,0.0,0.0,2.4376330838876235,0.0,0.0,0.0,0.0,0.0,0.0,0.0,0.0,0.0,0.0,0.0,0.0,0.0,0.0,
0.771,2.5112393737324865,2.507012582233501,2.295296255534363,0.0,0.0,0.0,2.43784940383345,0.0,0.0,0.0,0.0,0.0,0.0,0.0,0.0,0.0,0.0,0.0,0.0,0.0,0.0,
0.7908,2.5114759395568393,2.507246354094892,2.2954920439822275,0.0,0.0,0.0,2.438071445877986,0.0,0.0,0.0,0.0,0.0,0.0,0.0,0.0,0.0,0.0,0.0,0.0,0.0,0.0,
0.8105,2.511717369134404,2.507484931932365,2.295691856779902,0.0,0.0,0.0,2.438298052615557,0.0,0.0,0.0,0.0,0.0,0.0,0.0,0.0,0.0,0.0,0.0,0.0,0.0,0.0,
0.8303,2.5119661215835927,2.5077307457924896,2.2958977290742197,0.0,0.0,0.0,2.4385315321501007,0.0,0.0,0.0,0.0,0.0,0.0,0.0,0.0,0.0,0.0,0.0,0.0,0.0,0.0,
0.8501,2.5122209950978567,2.507982608037786,2.2961086661395407,0.0,0.0,0.0,2.438770756425061,0.0,0.0,0.0,0.0,0.0,0.0,0.0,0.0,0.0,0.0,0.0,0.0,0.0,0.0,
0.8698,2.512480664578773,2.508239209202263,2.2963235712326213,0.0,0.0,0.0,2.439014481671219,0.0,0.0,0.0,0.0,0.0,0.0,0.0,0.0,0.0,0.0,0.0,0.0,0.0,0.0,
0.8896,2.51274777495482,2.5085031629345615,2.296544633240045,0.0,0.0,0.0,2.4392651903764757,0.0,0.0,0.0,0.0,0.0,0.0,0.0,0.0,0.0,0.0,0.0,0.0,0.0,0.0,
0.9094,2.513021032533162,2.508773190799999,2.2967707814002036,0.0,0.0,0.0,2.439521668244455,0.0,0.0,0.0,0.0,0.0,0.0,0.0,0.0,0.0,0.0,0.0,0.0,0.0,0.0,
0.9292,2.513300446469282,2.509049301817844,2.2970020232030888,0.0,0.0,0.0,2.439783923830072,0.0,0.0,0.0,0.0,0.0,0.0,0.0,0.0,0.0,0.0,0.0,0.0,0.0,0.0,
0.9489,2.5135845683058657,2.509330064627788,2.297237159833428,0.0,0.0,0.0,2.440050597589027,0.0,0.0,0.0,0.0,0.0,0.0,0.0,0.0,0.0,0.0,0.0,0.0,0.0,0.0,
0.9687,2.513876292076281,2.5096183390194917,2.297478586276283,0.0,0.0,0.0,2.440324405790685,0.0,0.0,0.0,0.0,0.0,0.0,0.0,0.0,0.0,0.0,0.0,0.0,0.0,0.0,
0.9885,2.5141742009211088,2.5099127248534456,2.2977251298554506,0.0,0.0,0.0,2.440604018543335,0.0,0.0,0.0,0.0,0.0,0.0,0.0,0.0,0.0,0.0,0.0,0.0,0.0,0.0,
1.0082,2.5144767534041854,2.5102116988959153,2.297975514826056,0.0,0.0,0.0,2.4408879890420523,0.0,0.0,0.0,0.0,0.0,0.0,0.0,0.0,0.0,0.0,0.0,0.0,0.0,0.0,
1.028,2.5147870313253193,2.5105183064660057,2.298232291513606,0.0,0.0,0.0,2.4411792097683107,0.0,0.0,0.0,0.0,0.0,0.0,0.0,0.0,0.0,0.0,0.0,0.0,0.0,0.0,
1.0478,2.515103525002443,2.5108310557046916,2.298494210440146,0.0,0.0,0.0,2.4414762637157605,0.0,0.0,0.0,0.0,0.0,0.0,0.0,0.0,0.0,0.0,0.0,0.0,0.0,0.0,
1.0675,2.5154245995608635,2.5111483310520057,2.2987599185551604,0.0,0.0,0.0,2.441777616389343,0.0,0.0,0.0,0.0,0.0,0.0,0.0,0.0,0.0,0.0,0.0,0.0,0.0,0.0,
1.0873,2.5157535255046923,2.511473364280482,2.299032122292071,0.0,0.0,0.0,2.4420863373590818,0.0,0.0,0.0,0.0,0.0,0.0,0.0,0.0,0.0,0.0,0.0,0.0,0.0,0.0,
1.1071,2.5160886998799725,2.511804571369095,2.29930949500372,0.0,0.0,0.0,2.4424009220842624,0.0,0.0,0.0,0.0,0.0,0.0,0.0,0.0,0.0,0.0,0.0,0.0,0.0,0.0,
1.1269,2.5164301340462374,2.512141963509327,2.299592045985132,0.0,0.0,0.0,2.442721381180232,0.0,0.0,0.0,0.0,0.0,0.0,0.0,0.0,0.0,0.0,0.0,0.0,0.0,0.0,
1.1466,2.5167760677248534,2.5124838012324107,2.2998783184410323,0.0,0.0,0.0,2.443046062466099,0.0,0.0,0.0,0.0,0.0,0.0,0.0,0.0,0.0,0.0,0.0,0.0,0.0,0.0,
1.1664,2.517130024697273,2.5128335665626897,2.3001712283175397,0.0,0.0,0.0,2.4433782731925007,0.0,0.0,0.0,0.0,0.0,0.0,0.0,0.0,0.0,0.0,0.0,0.0,0.0,0.0,
1.1862,2.517490276844429,2.5131895518056746,2.3004693454182705,0.0,0.0,0.0,2.443716391356125,0.0,0.0,0.0,0.0,0.0,0.0,0.0,0.0,0.0,0.0,0.0,0.0,0.0,0.0,
1.2059,2.517854969260612,2.5135499239954986,2.3007711346700384,0.0,0.0,0.0,2.444058675975383,0.0,0.0,0.0,0.0,0.0,0.0,0.0,0.0,0.0,0.0,0.0,0.0,0.0,0.0,
1.2257,2.5182278168593877,2.513918354002011,2.301079670113735,0.0,0.0,0.0,2.444408613658378,0.0,0.0,0.0,0.0,0.0,0.0,0.0,0.0,0.0,0.0,0.0,0.0,0.0,0.0,
1.2455,2.5186069970862865,2.5142930408225324,2.301393443431995,0.0,0.0,0.0,2.4447644937802715,0.0,0.0,0.0,0.0,0.0,0.0,0.0,0.0,0.0,0.0,0.0,0.0,0.0,0.0,
1.2652,2.5189905598484756,2.514672057442408,2.3017108408155806,0.0,0.0,0.0,2.445124486035488,0.0,0.0,0.0,0.0,0.0,0.0,0.0,0.0,0.0,0.0,0.0,0.0,0.0,0.0,
1.285,2.51938241233675,2.515059264705269,2.3020350953373727,0.0,0.0,0.0,2.4454922574597973,0.0,0.0,0.0,0.0,0.0,0.0,0.0,0.0,0.0,0.0,0.0,0.0,0.0,0.0,
1.3048,2.5197806370122464,2.515452767759439,2.3023646201099464,0.0,0.0,0.0,2.4458660082938772,0.0,0.0,0.0,0.0,0.0,0.0,0.0,0.0,0.0,0.0,0.0,0.0,0.0,0.0,
1.3245,2.52018318800383,2.5158505449590516,2.3026977221042593,0.0,0.0,0.0,2.4462438183557134,0.0,0.0,0.0,0.0,0.0,0.0,0.0,0.0,0.0,0.0,0.0,0.0,0.0,0.0,
1.3443,2.5205941659890625,2.5162566483133517,2.3030377944152898,0.0,0.0,0.0,2.4466295362392345,0.0,0.0,0.0,0.0,0.0,0.0,0.0,0.0,0.0,0.0,0.0,0.0,0.0,0.0,
1.3641,2.521011557864751,2.5166690885503415,2.3033831711110597,0.0,0.0,0.0,2.4470212725087173,0.0,0.0,0.0,0.0,0.0,0.0,0.0,0.0,0.0,0.0,0.0,0.0,0.0,0.0,
1.3839,2.521435378039893,2.5170878798679666,2.3037338639859968,0.0,0.0,0.0,2.4474190406312855,0.0,0.0,0.0,0.0,0.0,0.0,0.0,0.0,0.0,0.0,0.0,0.0,0.0,0.0,
1.4036,2.5218634519098293,2.5175108734313776,2.3040880735421214,0.0,0.0,0.0,2.447820799627776,0.0,0.0,0.0,0.0,0.0,0.0,0.0,0.0,0.0,0.0,0.0,0.0,0.0,0.0,
1.4234,2.522300140239791,2.517942378212139,2.304449407961556,0.0,0.0,0.0,2.4482306421378284,0.0,0.0,0.0,0.0,0.0,0.0,0.0,0.0,0.0,0.0,0.0,0.0,0.0,0.0,
1.4432,2.522743301496398,2.5183802780482516,2.3048160950918652,0.0,0.0,0.0,2.4486465582121717,0.0,0.0,0.0,0.0,0.0,0.0,0.0,0.0,0.0,0.0,0.0,0.0,0.0,0.0,
1.4629,2.523190663792324,2.518822327991501,2.3051862549842603,0.0,0.0,0.0,2.449066415589362,0.0,0.0,0.0,0.0,0.0,0.0,0.0,0.0,0.0,0.0,0.0,0.0,0.0,0.0,
1.4827,2.523646784460195,2.5192730312148033,2.3055636583649983,0.0,0.0,0.0,2.4494944913466656,0.0,0.0,0.0,0.0,0.0,0.0,0.0,0.0,0.0,0.0,0.0,0.0,0.0,0.0,
1.5025,2.524109424925109,2.519730175680466,2.305946452828355,0.0,0.0,0.0,2.449928684477977,0.0,0.0,0.0,0.0,0.0,0.0,0.0,0.0,0.0,0.0,0.0,0.0,0.0,0.0,
1.5222,2.524576215317653,2.5201914196378272,2.306332677402358,0.0,0.0,0.0,2.450366770785946,0.0,0.0,0.0,0.0,0.0,0.0,0.0,0.0,0.0,0.0,0.0,0.0,0.0,0.0,
1.542,2.5250519109713645,2.5206614618738223,2.3067262665311485,0.0,0.0,0.0,2.450813213125445,0.0,0.0,0.0,0.0,0.0,0.0,0.0,0.0,0.0,0.0,0.0,0.0,0.0,0.0,
1.5618,2.5255341755824023,2.521137993797834,2.307125286993199,0.0,0.0,0.0,2.4512658187911454,0.0,0.0,0.0,0.0,0.0,0.0,0.0,0.0,0.0,0.0,0.0,0.0,0.0,0.0,
1.5815,2.5260205405660248,2.52161857613422,2.3075276961931395,0.0,0.0,0.0,2.4517222709644613,0.0,0.0,0.0,0.0,0.0,0.0,0.0,0.0,0.0,0.0,0.0,0.0,0.0,0.0,
1.6013,2.5265159607603316,2.522108104765887,2.3079375935244064,0.0,0.0,0.0,2.4521872196835415,0.0,0.0,0.0,0.0,0.0,0.0,0.0,0.0,0.0,0.0,0.0,0.0,0.0,0.0,
1.6211,2.527018001411612,2.522604173838916,2.3083529643595813,0.0,0.0,0.0,2.4526583798700368,0.0,0.0,0.0,0.0,0.0,0.0,0.0,0.0,0.0,0.0,0.0,0.0,0.0,0.0,
1.6409,2.5275266802452565,2.5231068008224167,2.3087738232142625,0.0,0.0,0.0,2.4531357680939787,0.0,0.0,0.0,0.0,0.0,0.0,0.0,0.0,0.0,0.0,0.0,0.0,0.0,0.0,
1.6606,2.528039395799187,2.5236134151688194,2.309198017632612,0.0,0.0,0.0,2.453616942866873,0.0,0.0,0.0,0.0,0.0,0.0,0.0,0.0,0.0,0.0,0.0,0.0,0.0,0.0,
1.6804,2.5285613714946846,2.5241291780958193,2.309629869051921,0.0,0.0,0.0,2.4541068062141416,0.0,0.0,0.0,0.0,0.0,0.0,0.0,0.0,0.0,0.0,0.0,0.0,0.0,0.0,
1.7002,2.5290900400744327,2.5246515528460405,2.3100672532905677,0.0,0.0,0.0,2.454602948737014,0.0,0.0,0.0,0.0,0.0,0.0,0.0,0.0,0.0,0.0,0.0,0.0,0.0,0.0,
1.7199,2.5296226995137077,2.525177869526607,2.3105079347570463,0.0,0.0,0.0,2.45510283459912,0.0,0.0,0.0,0.0,0.0,0.0,0.0,0.0,0.0,0.0,0.0,0.0,0.0,0.0,
1.7397,2.5301647765296176,2.5257134901879312,2.3109564029432255,0.0,0.0,0.0,2.4556115565535914,0.0,0.0,0.0,0.0,0.0,0.0,0.0,0.0,0.0,0.0,0.0,0.0,0.0,0.0,
1.7595,2.5307136035975026,2.526255779018464,2.311410450773894,0.0,0.0,0.0,2.4561266111299536,0.0,0.0,0.0,0.0,0.0,0.0,0.0,0.0,0.0,0.0,0.0,0.0,0.0,0.0,
1.7792,2.5312663772784125,2.5268019659408143,2.3118677588245995,0.0,0.0,0.0,2.4566453673479423,0.0,0.0,0.0,0.0,0.0,0.0,0.0,0.0,0.0,0.0,0.0,0.0,0.0,0.0,
1.799,2.5318287293344905,2.5273576155623094,2.312332986074837,0.0,0.0,0.0,2.457173110323879,0.0,0.0,0.0,0.0,0.0,0.0,0.0,0.0,0.0,0.0,0.0,0.0,0.0,0.0,
1.8188,2.532397891135438,2.5279199921911357,2.3128038418694237,0.0,0.0,0.0,2.4577072417319994,0.0,0.0,0.0,0.0,0.0,0.0,0.0,0.0,0.0,0.0,0.0,0.0,0.0,0.0,
1.8385,2.5329709569391428,2.5284862246893622,2.313277922223101,0.0,0.0,0.0,2.458245034617202,0.0,0.0,0.0,0.0,0.0,0.0,0.0,0.0,0.0,0.0,0.0,0.0,0.0,0.0,
1.8583,2.5335537653795273,2.529062082021907,2.3137600570996772,0.0,0.0,0.0,2.4587919681670374,0.0,0.0,0.0,0.0,0.0,0.0,0.0,0.0,0.0,0.0,0.0,0.0,0.0,0.0,
1.8781,2.5341434458453898,2.529644727754195,2.3142478715473587,0.0,0.0,0.0,2.4593453483823144,0.0,0.0,0.0,0.0,0.0,0.0,0.0,0.0,0.0,0.0,0.0,0.0,0.0,0.0,
1.8979,2.5347400197195338,2.530234182964924,2.314741383086833,0.0,0.0,0.0,2.459905195257097,0.0,0.0,0.0,0.0,0.0,0.0,0.0,0.0,0.0,0.0,0.0,0.0,0.0,0.0,
1.9176,2.535340443348308,2.530827440282997,2.315238073750124,0.0,0.0,0.0,2.4604686524604764,0.0,0.0,0.0,0.0,0.0,0.0,0.0,0.0,0.0,0.0,0.0,0.0,0.0,0.0,
1.9374,2.5359508342919885,2.5314305442038947,2.315743004019211,0.0,0.0,0.0,2.4610414608383646,0.0,0.0,0.0,0.0,0.0,0.0,0.0,0.0,0.0,0.0,0.0,0.0,0.0,0.0,
1.9572,2.5365681844795875,2.53204052250536,2.3162536853300386,0.0,0.0,0.0,2.461620797438329,0.0,0.0,0.0,0.0,0.0,0.0,0.0,0.0,0.0,0.0,0.0,0.0,0.0,0.0,
1.9769,2.5371893457294785,2.532654264562929,2.3167675133315555,0.0,0.0,0.0,2.462203707874654,0.0,0.0,0.0,0.0,0.0,0.0,0.0,0.0,0.0,0.0,0.0,0.0,0.0,0.0,
1.9967,2.5378206470495757,2.5332780237409103,2.3172897232402536,0.0,0.0,0.0,2.46279613134358,0.0,0.0,0.0,0.0,0.0,0.0,0.0,0.0,0.0,0.0,0.0,0.0,0.0,0.0,
2.0165,2.5384589761964453,2.533908724914327,2.317817740400619,0.0,0.0,0.0,2.463395147170464,0.0,0.0,0.0,0.0,0.0,0.0,0.0,0.0,0.0,0.0,0.0,0.0,0.0,0.0,
2.0362,2.5391010794405138,2.5345431531999574,2.3183488732428943,0.0,0.0,0.0,2.4639977019611217,0.0,0.0,0.0,0.0,0.0,0.0,0.0,0.0,0.0,0.0,0.0,0.0,0.0,0.0,
2.056,2.5397534993369133,2.5351877729011187,2.3188885334393268,0.0,0.0,0.0,2.4646099352257864,0.0,0.0,0.0,0.0,0.0,0.0,0.0,0.0,0.0,0.0,0.0,0.0,0.0,0.0,
2.0758,2.5404130184647338,2.535839404999442,2.319434059419609,0.0,0.0,0.0,2.465228827627928,0.0,0.0,0.0,0.0,0.0,0.0,0.0,0.0,0.0,0.0,0.0,0.0,0.0,0.0,
2.0955,2.541076276484856,2.536494729306466,2.3199826715254543,0.0,0.0,0.0,2.465851225772259,0.0,0.0,0.0,0.0,0.0,0.0,0.0,0.0,0.0,0.0,0.0,0.0,0.0,0.0,
2.1153,2.541750031685988,2.537160423220393,2.3205399596774674,0.0,0.0,0.0,2.4664834715279498,0.0,0.0,0.0,0.0,0.0,0.0,0.0,0.0,0.0,0.0,0.0,0.0,0.0,0.0,
2.1351,2.54243096042348,2.537833202798161,2.321103174533407,0.0,0.0,0.0,2.467122445918349,0.0,0.0,0.0,0.0,0.0,0.0,0.0,0.0,0.0,0.0,0.0,0.0,0.0,0.0,
2.1549,2.5431190881675105,2.538513093155326,2.3216723369778522,0.0,0.0,0.0,2.4677681727668963,0.0,0.0,0.0,0.0,0.0,0.0,0.0,0.0,0.0,0.0,0.0,0.0,0.0,0.0,
2.1746,2.543810910646478,2.5391966319352024,2.3222445484367573,0.0,0.0,0.0,2.468417363672813,0.0,0.0,0.0,0.0,0.0,0.0,0.0,0.0,0.0,0.0,0.0,0.0,0.0,0.0,
2.1944,2.544513477472896,2.5398907842907184,2.322825639513073,0.0,0.0,0.0,2.469076633758896,0.0,0.0,0.0,0.0,0.0,0.0,0.0,0.0,0.0,0.0,0.0,0.0,0.0,0.0,
2.2142,2.545223321609008,2.540592124642658,2.323412742391474,0.0,0.0,0.0,2.4697427295477135,0.0,0.0,0.0,0.0,0.0,0.0,0.0,0.0,0.0,0.0,0.0,0.0,0.0,0.0,
2.2339,2.5459368295278564,2.5412970827206784,2.3240028682409397,0.0,0.0,0.0,2.470412260163158,0.0,0.0,0.0,0.0,0.0,0.0,0.0,0.0,0.0,0.0,0.0,0.0,0.0,0.0,
2.2537,2.5466612720294504,2.542012842151155,2.324602030385919,0.0,0.0,0.0,2.4710920481888414,0.0,0.0,0.0,0.0,0.0,0.0,0.0,0.0,0.0,0.0,0.0,0.0,0.0,0.0,
2.2735,2.547393073244132,2.5427358698589653,2.3252072711017453,0.0,0.0,0.0,2.471778738068281,0.0,0.0,0.0,0.0,0.0,0.0,0.0,0.0,0.0,0.0,0.0,0.0,0.0,0.0,
2.2932,2.5481285091808905,2.5434624864683153,2.3258155103095244,0.0,0.0,0.0,2.4724688353195767,0.0,0.0,0.0,0.0,0.0,0.0,0.0,0.0,0.0,0.0,0.0,0.0,0.0,0.0,
2.313,2.548875074320995,2.5442000965386846,2.326432946101187,0.0,0.0,0.0,2.4731693723202888,0.0,0.0,0.0,0.0,0.0,0.0,0.0,0.0,0.0,0.0,0.0,0.0,0.0,0.0,
2.3328,2.549629082771169,2.5449450583241084,2.327056529865861,0.0,0.0,0.0,2.4738768903203794,0.0,0.0,0.0,0.0,0.0,0.0,0.0,0.0,0.0,0.0,0.0,0.0,0.0,0.0,
2.3525,2.550386698820736,2.545693582105187,2.327683089247195,0.0,0.0,0.0,2.474587790057706,0.0,0.0,0.0,0.0,0.0,0.0,0.0,0.0,0.0,0.0,0.0,0.0,0.0,0.0,
2.3723,2.551155643224236,2.546453295931344,2.328319009231663,0.0,0.0,0.0,2.475309316129081,0.0,0.0,0.0,0.0,0.0,0.0,0.0,0.0,0.0,0.0,0.0,0.0,0.0,0.0,
2.3921,2.5519321188266657,2.54722044816495,2.3289611493070916,0.0,0.0,0.0,2.4760379054329023,0.0,0.0,0.0,0.0,0.0,0.0,0.0,0.0,0.0,0.0,0.0,0.0,0.0,0.0,
2.4119,2.5527161557245788,2.547995068494686,2.3296095341730485,0.0,0.0,0.0,2.476773586130771,0.0,0.0,0.0,0.0,0.0,0.0,0.0,0.0,0.0,0.0,0.0,0.0,0.0,0.0,
2.4316,2.5535037671466716,2.5487732180043112,2.3302608667130476,0.0,0.0,0.0,2.47751261728801,0.0,0.0,0.0,0.0,0.0,0.0,0.0,0.0,0.0,0.0,0.0,0.0,0.0,0.0,
2.4514,2.554302979882812,2.549562827009156,2.3309217846673658,0.0,0.0,0.0,2.478262530519778,0.0,0.0,0.0,0.0,0.0,0.0,0.0,0.0,0.0,0.0,0.0,0.0,0.0,0.0,
2.4712,2.5551098463564554,2.5503599953054623,2.331589023288807,0.0,0.0,0.0,2.4790196216502416,0.0,0.0,0.0,0.0,0.0,0.0,0.0,0.0,0.0,0.0,0.0,0.0,0.0,0.0,
2.4909,2.5559202649555592,2.5511606705553698,2.3322591906234393,0.0,0.0,0.0,2.4797800420447893,0.0,0.0,0.0,0.0,0.0,0.0,0.0,0.0,0.0,0.0,0.0,0.0,0.0,0.0,
2.5107,2.556742495192621,2.551973012926954,2.3329391166005427,0.0,0.0,0.0,2.4805515415733725,0.0,0.0,0.0,0.0,0.0,0.0,0.0,0.0,0.0,0.0,0.0,0.0,0.0,0.0,
2.5305,2.5575724751514093,2.552793009289462,2.333625442047282,0.0,0.0,0.0,2.4813303088293845,0.0,0.0,0.0,0.0,0.0,0.0,0.0,0.0,0.0,0.0,0.0,0.0,0.0,0.0,
2.5502,2.558405986956471,2.55361649248018,2.334314679005028,0.0,0.0,0.0,2.4821123861472265,0.0,0.0,0.0,0.0,0.0,0.0,0.0,0.0,0.0,0.0,0.0,0.0,0.0,0.0,
2.57,2.559251525785643,2.554451855423643,2.3350138520087307,0.0,0.0,0.0,2.4829057444060054,0.0,0.0,0.0,0.0,0.0,0.0,0.0,0.0,0.0,0.0,0.0,0.0,0.0,0.0,
