energies(eV),real_xx,real_yy,real_zz,real_xy,real_yz,real_xz,real_ave,imag_xx,imag_yy,imag_zz,imag_xy,imag_yz,imag_xz,imag_ave,absorption_xx,absorption_yy,absorption_zz,absorption_xy,absorption_yz,absorption_xz,absorption_ave,band_gap
0.0,2.4100746078936113,2.693627440871196,2.5843644618032044,0.0,0.0,0.0,2.562688836856004,0.0,0.0,0.0,0.0,0.0,0.0,0.0,0.0,0.0,0.0,0.0,0.0,0.0,0.0,6.345400000000001
0.0156,2.4100770190776215,2.6936310991705907,2.5843677722416563,0.0,0.0,0.0,2.5626919634966225,0.0,0.0,0.0,0.0,0.0,0.0,0.0,0.0,0.0,0.0,0.0,0.0,0.0,0.0,
0.0311,2.410084190974845,2.6936419805566105,2.5843776189344068,0.0,0.0,0.0,2.562701263488621,0.0,0.0,0.0,0.0,0.0,0.0,0.0,0.0,0.0,0.0,0.0,0.0,0.0,0.0,
0.0467,2.41009621634144,2.693660225857704,2.5843941293114767,0.0,0.0,0.0,2.562716857170207,0.0,0.0,0.0,0.0,0.0,0.0,0.0,0.0,0.0,0.0,0.0,0.0,0.0,0.0,
0.0622,2.4101129413621374,2.6936856018592232,2.584417092322359,0.0,0.0,0.0,2.5627385451812397,0.0,0.0,0.0,0.0,0.0,0.0,0.0,0.0,0.0,0.0,0.0,0.0,0.0,0.0,
0.0778,2.410134582346417,2.693718436981073,2.584446805140805,0.0,0.0,0.0,2.5627666081560982,0.0,0.0,0.0,0.0,0.0,0.0,0.0,0.0,0.0,0.0,0.0,0.0,0.0,0.0,
0.0933,2.4101608624866815,2.693758311519211,2.5844828879510056,0.0,0.0,0.0,2.562800687318966,0.0,0.0,0.0,0.0,0.0,0.0,0.0,0.0,0.0,0.0,0.0,0.0,0.0,0.0,
0.1089,2.410192121671675,2.6938057415360612,2.5845258077157283,0.0,0.0,0.0,2.5628412236411546,0.0,0.0,0.0,0.0,0.0,0.0,0.0,0.0,0.0,0.0,0.0,0.0,0.0,0.0,
0.1245,2.410228206753898,2.693860495084759,2.584575354512551,0.0,0.0,0.0,2.562888018783736,0.0,0.0,0.0,0.0,0.0,0.0,0.0,0.0,0.0,0.0,0.0,0.0,0.0,0.0,
0.14,2.4102688411861677,2.693922153017414,2.584631149016902,0.0,0.0,0.0,2.5629407144068277,0.0,0.0,0.0,0.0,0.0,0.0,0.0,0.0,0.0,0.0,0.0,0.0,0.0,0.0,
0.1556,2.4103145505060355,2.6939915133219143,2.5846939132900335,0.0,0.0,0.0,2.5629999923726614,0.0,0.0,0.0,0.0,0.0,0.0,0.0,0.0,0.0,0.0,0.0,0.0,0.0,0.0,
0.1711,2.410364750051272,2.694067689425616,2.5847628450251317,0.0,0.0,0.0,2.563065094834007,0.0,0.0,0.0,0.0,0.0,0.0,0.0,0.0,0.0,0.0,0.0,0.0,0.0,0.0,
0.1867,2.4104200890685563,2.694151667214596,2.584838836299471,0.0,0.0,0.0,2.563136864194208,0.0,0.0,0.0,0.0,0.0,0.0,0.0,0.0,0.0,0.0,0.0,0.0,0.0,0.0,
0.2022,2.410479859724161,2.6942423732753875,2.5849209157289548,0.0,0.0,0.0,2.5632143829095013,0.0,0.0,0.0,0.0,0.0,0.0,0.0,0.0,0.0,0.0,0.0,0.0,0.0,0.0,
0.2178,2.4105448350518257,2.6943409815457593,2.58501014554313,0.0,0.0,0.0,2.563298654046905,0.0,0.0,0.0,0.0,0.0,0.0,0.0,0.0,0.0,0.0,0.0,0.0,0.0,0.0,
0.2334,2.4106146468804477,2.6944469341872512,2.5851060208904784,0.0,0.0,0.0,2.563389200652726,0.0,0.0,0.0,0.0,0.0,0.0,0.0,0.0,0.0,0.0,0.0,0.0,0.0,0.0,
0.2489,2.410688803368725,2.69455948562939,2.585207867045871,0.0,0.0,0.0,2.5634853853479953,0.0,0.0,0.0,0.0,0.0,0.0,0.0,0.0,0.0,0.0,0.0,0.0,0.0,0.0,
0.2645,2.4107682636091754,2.6946800925425825,2.5853170020539915,0.0,0.0,0.0,2.56358845273525,0.0,0.0,0.0,0.0,0.0,0.0,0.0,0.0,0.0,0.0,0.0,0.0,0.0,0.0,
0.28,2.410852011240282,2.694807213324367,2.5854320308674366,0.0,0.0,0.0,2.5636970851440286,0.0,0.0,0.0,0.0,0.0,0.0,0.0,0.0,0.0,0.0,0.0,0.0,0.0,0.0,
0.2956,2.4109411294020155,2.694942493209717,2.585554442138468,0.0,0.0,0.0,2.5638126882500667,0.0,0.0,0.0,0.0,0.0,0.0,0.0,0.0,0.0,0.0,0.0,0.0,0.0,0.0,
0.3111,2.4110344782021036,2.695084203050483,2.5856826711166465,0.0,0.0,0.0,2.563933784123078,0.0,0.0,0.0,0.0,0.0,0.0,0.0,0.0,0.0,0.0,0.0,0.0,0.0,0.0,
0.3267,2.4111332649582398,2.695234176902983,2.5858183772897756,0.0,0.0,0.0,2.5640619397169995,0.0,0.0,0.0,0.0,0.0,0.0,0.0,0.0,0.0,0.0,0.0,0.0,0.0,0.0,
0.3423,2.4112369059420944,2.6953915299929943,2.5859607599501846,0.0,0.0,0.0,2.5641963986284244,0.0,0.0,0.0,0.0,0.0,0.0,0.0,0.0,0.0,0.0,0.0,0.0,0.0,0.0,
0.3578,2.4113446933029934,2.6955551889258107,2.586108847727832,0.0,0.0,0.0,2.5643362433188788,0.0,0.0,0.0,0.0,0.0,0.0,0.0,0.0,0.0,0.0,0.0,0.0,0.0,0.0,
0.3734,2.4114580211026895,2.6957272718409637,2.586264557124676,0.0,0.0,0.0,2.5644832833561098,0.0,0.0,0.0,0.0,0.0,0.0,0.0,0.0,0.0,0.0,0.0,0.0,0.0,0.0,
0.3889,2.4115754397958957,2.6959055791922566,2.5864258977657593,0.0,0.0,0.0,2.5646356389179705,0.0,0.0,0.0,0.0,0.0,0.0,0.0,0.0,0.0,0.0,0.0,0.0,0.0,0.0,
0.4045,2.4116984680141966,2.6960924187136417,2.5865949576749,0.0,0.0,0.0,2.5647952814675796,0.0,0.0,0.0,0.0,0.0,0.0,0.0,0.0,0.0,0.0,0.0,0.0,0.0,0.0,
0.42,2.4118255321406155,2.6962854022508416,2.5867695758309157,0.0,0.0,0.0,2.5649601700741242,0.0,0.0,0.0,0.0,0.0,0.0,0.0,0.0,0.0,0.0,0.0,0.0,0.0,0.0,
0.4356,2.411958275559866,2.696487027493836,2.58695201210051,0.0,0.0,0.0,2.565132438384737,0.0,0.0,0.0,0.0,0.0,0.0,0.0,0.0,0.0,0.0,0.0,0.0,0.0,0.0,
0.4511,2.41209500039521,2.6966947173104843,2.587139934487956,0.0,0.0,0.0,2.56530988406455,0.0,0.0,0.0,0.0,0.0,0.0,0.0,0.0,0.0,0.0,0.0,0.0,0.0,0.0,
0.4667,2.4122374749829985,2.6969111597387267,2.5873357750508195,0.0,0.0,0.0,2.565494803257515,0.0,0.0,0.0,0.0,0.0,0.0,0.0,0.0,0.0,0.0,0.0,0.0,0.0,0.0,
0.4823,2.4123848371874077,2.6971350471724627,2.587538350488682,0.0,0.0,0.0,2.565686078282851,0.0,0.0,0.0,0.0,0.0,0.0,0.0,0.0,0.0,0.0,0.0,0.0,0.0,0.0,
0.4978,2.4125360998986283,2.697364881709296,2.5877463053509313,0.0,0.0,0.0,2.5658824289862854,0.0,0.0,0.0,0.0,0.0,0.0,0.0,0.0,0.0,0.0,0.0,0.0,0.0,0.0,
0.5134,2.41269321948801,2.6976036380181556,2.5879623309711386,0.0,0.0,0.0,2.5660863961591014,0.0,0.0,0.0,0.0,0.0,0.0,0.0,0.0,0.0,0.0,0.0,0.0,0.0,0.0,
0.5289,2.412854186306266,2.697848264402165,2.588183666029889,0.0,0.0,0.0,2.5662953722461066,0.0,0.0,0.0,0.0,0.0,0.0,0.0,0.0,0.0,0.0,0.0,0.0,0.0,0.0,
0.5445,2.413021082240502,2.6981019269926927,2.588413175040994,0.0,0.0,0.0,2.5665120614247297,0.0,0.0,0.0,0.0,0.0,0.0,0.0,0.0,0.0,0.0,0.0,0.0,0.0,0.0,
0.56,2.413191772603496,2.6983613835837037,2.5886479243510276,0.0,0.0,0.0,2.5667336935127425,0.0,0.0,0.0,0.0,0.0,0.0,0.0,0.0,0.0,0.0,0.0,0.0,0.0,0.0,
0.5756,2.413368465050814,2.6986299922685983,2.5888909520975614,0.0,0.0,0.0,2.5669631364723244,0.0,0.0,0.0,0.0,0.0,0.0,0.0,0.0,0.0,0.0,0.0,0.0,0.0,0.0,
0.5912,2.413550079481769,2.6989061137844996,2.5891407749326363,0.0,0.0,0.0,2.567198989399635,0.0,0.0,0.0,0.0,0.0,0.0,0.0,0.0,0.0,0.0,0.0,0.0,0.0,0.0,
0.6067,2.413735409945189,2.699187916843959,2.5893957358238433,0.0,0.0,0.0,2.567439687537664,0.0,0.0,0.0,0.0,0.0,0.0,0.0,0.0,0.0,0.0,0.0,0.0,0.0,0.0,
0.6223,2.41392685346039,2.6994790487991205,2.5896591345175706,0.0,0.0,0.0,2.56768834559236,0.0,0.0,0.0,0.0,0.0,0.0,0.0,0.0,0.0,0.0,0.0,0.0,0.0,0.0,
0.6378,2.4141219613861966,2.699775788582585,2.589927604222243,0.0,0.0,0.0,2.567941784730342,0.0,0.0,0.0,0.0,0.0,0.0,0.0,0.0,0.0,0.0,0.0,0.0,0.0,0.0,
0.6534,2.414323257211256,2.700081976895964,2.590204619539711,0.0,0.0,0.0,2.5682032845489773,0.0,0.0,0.0,0.0,0.0,0.0,0.0,0.0,0.0,0.0,0.0,0.0,0.0,0.0,
0.6689,2.4145281662897116,2.700393700256731,2.590486639652341,0.0,0.0,0.0,2.5684695020662613,0.0,0.0,0.0,0.0,0.0,0.0,0.0,0.0,0.0,0.0,0.0,0.0,0.0,0.0,
0.6845,2.414739338887504,2.7007149933262644,2.590777314559243,0.0,0.0,0.0,2.5687438822576705,0.0,0.0,0.0,0.0,0.0,0.0,0.0,0.0,0.0,0.0,0.0,0.0,0.0,0.0,
0.7001,2.414955475354807,2.7010438820701177,2.5910748580997094,0.0,0.0,0.0,2.5690247385082112,0.0,0.0,0.0,0.0,0.0,0.0,0.0,0.0,0.0,0.0,0.0,0.0,0.0,0.0,
0.7156,2.415175149122957,2.7013781983185354,2.5913773085546827,0.0,0.0,0.0,2.5693102186653918,0.0,0.0,0.0,0.0,0.0,0.0,0.0,0.0,0.0,0.0,0.0,0.0,0.0,0.0,
0.7312,2.4154012014412976,2.7017222692015324,2.591688580381664,0.0,0.0,0.0,2.5696040170081647,0.0,0.0,0.0,0.0,0.0,0.0,0.0,0.0,0.0,0.0,0.0,0.0,0.0,0.0,
0.7467,2.415630741051509,2.702071697127744,2.592004694966367,0.0,0.0,0.0,2.569902377715207,0.0,0.0,0.0,0.0,0.0,0.0,0.0,0.0,0.0,0.0,0.0,0.0,0.0,0.0,
0.7623,2.4158667368212114,2.7024310048557014,2.5923297436449917,0.0,0.0,0.0,2.570209161773968,0.0,0.0,0.0,0.0,0.0,0.0,0.0,0.0,0.0,0.0,0.0,0.0,0.0,0.0,
0.7778,2.4161061703276543,2.702795600086981,2.592659571742469,0.0,0.0,0.0,2.5705204473857015,0.0,0.0,0.0,0.0,0.0,0.0,0.0,0.0,0.0,0.0,0.0,0.0,0.0,0.0,
0.7934,2.4163521384214444,2.7031702019333537,2.5929984481170534,0.0,0.0,0.0,2.5708402628239506,0.0,0.0,0.0,0.0,0.0,0.0,0.0,0.0,0.0,0.0,0.0,0.0,0.0,0.0,
0.809,2.416603119986337,2.703552497811332,2.5933442804417175,0.0,0.0,0.0,2.5711666327464626,0.0,0.0,0.0,0.0,0.0,0.0,0.0,0.0,0.0,0.0,0.0,0.0,0.0,0.0,
0.8245,2.416857465722238,2.7039399784962073,2.593694798606475,0.0,0.0,0.0,2.571497414274973,0.0,0.0,0.0,0.0,0.0,0.0,0.0,0.0,0.0,0.0,0.0,0.0,0.0,0.0,
0.8401,2.417118465381251,2.704337659379857,2.5940545393116192,0.0,0.0,0.0,2.5718368880242424,0.0,0.0,0.0,0.0,0.0,0.0,0.0,0.0,0.0,0.0,0.0,0.0,0.0,0.0,
0.8556,2.417382780780237,2.704740457825615,2.5944189045552073,0.0,0.0,0.0,2.5721807143870197,0.0,0.0,0.0,0.0,0.0,0.0,0.0,0.0,0.0,0.0,0.0,0.0,0.0,0.0,
0.8712,2.4176538306393827,2.7051535875387898,2.5947926102997374,0.0,0.0,0.0,2.5725333428259702,0.0,0.0,0.0,0.0,0.0,0.0,0.0,0.0,0.0,0.0,0.0,0.0,0.0,0.0,
0.8867,2.4179281482528348,2.705571768484062,2.5951708800930806,0.0,0.0,0.0,2.5728902656099923,0.0,0.0,0.0,0.0,0.0,0.0,0.0,0.0,0.0,0.0,0.0,0.0,0.0,0.0,
0.9023,2.418209281732077,2.70600041352374,2.5955586099087307,0.0,0.0,0.0,2.573256101721516,0.0,0.0,0.0,0.0,0.0,0.0,0.0,0.0,0.0,0.0,0.0,0.0,0.0,0.0,
0.9179,2.4184954862354937,2.7064368670628873,2.5959533972918836,0.0,0.0,0.0,2.573628583530088,0.0,0.0,0.0,0.0,0.0,0.0,0.0,0.0,0.0,0.0,0.0,0.0,0.0,0.0,
0.9334,2.418784887269818,2.7068782739492665,2.596352659415971,0.0,0.0,0.0,2.5740052735450187,0.0,0.0,0.0,0.0,0.0,0.0,0.0,0.0,0.0,0.0,0.0,0.0,0.0,0.0,
0.949,2.4190812280739316,2.7073303477616797,2.596761564034908,0.0,0.0,0.0,2.5743910466235067,0.0,0.0,0.0,0.0,0.0,0.0,0.0,0.0,0.0,0.0,0.0,0.0,0.0,0.0,
0.9645,2.41938071852927,2.707787310877861,2.5971748849347156,0.0,0.0,0.0,2.5747809714472822,0.0,0.0,0.0,0.0,0.0,0.0,0.0,0.0,0.0,0.0,0.0,0.0,0.0,0.0,
0.9801,2.4196872323999195,2.7082550782973733,2.5975979718900133,0.0,0.0,0.0,2.5751800941957685,0.0,0.0,0.0,0.0,0.0,0.0,0.0,0.0,0.0,0.0,0.0,0.0,0.0,0.0,
0.9956,2.4199968494814614,2.70872767189186,2.598025417478025,0.0,0.0,0.0,2.575583312950449,0.0,0.0,0.0,0.0,0.0,0.0,0.0,0.0,0.0,0.0,0.0,0.0,0.0,0.0,
1.0112,2.42031357454699,2.7092112090492613,2.5984627543530108,0.0,0.0,0.0,2.5759958459830874,0.0,0.0,0.0,0.0,0.0,0.0,0.0,0.0,0.0,0.0,0.0,0.0,0.0,0.0,
1.0268,2.4206354364181983,2.709702685989418,2.598907265339322,0.0,0.0,0.0,2.57641512924898,0.0,0.0,0.0,0.0,0.0,0.0,0.0,0.0,0.0,0.0,0.0,0.0,0.0,0.0,
1.0423,2.4209603325876565,2.7101988960306094,2.5993560499208552,0.0,0.0,0.0,2.576838426179707,0.0,0.0,0.0,0.0,0.0,0.0,0.0,0.0,0.0,0.0,0.0,0.0,0.0,0.0,
1.0579,2.421292465500149,2.710706262366272,2.599814917049825,0.0,0.0,0.0,2.577271214972082,0.0,0.0,0.0,0.0,0.0,0.0,0.0,0.0,0.0,0.0,0.0,0.0,0.0,0.0,
1.0734,2.4216275873645925,2.711218300968855,2.600278002162746,0.0,0.0,0.0,2.577707963498731,0.0,0.0,0.0,0.0,0.0,0.0,0.0,0.0,0.0,0.0,0.0,0.0,0.0,0.0,
1.089,2.421970032923111,2.7117416400017795,2.600751299383227,0.0,0.0,0.0,2.5781543241027056,0.0,0.0,0.0,0.0,0.0,0.0,0.0,0.0,0.0,0.0,0.0,0.0,0.0,0.0,
1.1045,2.422315422523175,2.7122695913889676,2.601228759794293,0.0,0.0,0.0,2.5786045912354782,0.0,0.0,0.0,0.0,0.0,0.0,0.0,0.0,0.0,0.0,0.0,0.0,0.0,0.0,
1.1201,2.422668223750952,2.7128089893615748,2.601716563665492,0.0,0.0,0.0,2.5790645922593396,0.0,0.0,0.0,0.0,0.0,0.0,0.0,0.0,0.0,0.0,0.0,0.0,0.0,0.0,
1.1356,2.4230239245451957,2.7133529407004917,2.602208476754744,0.0,0.0,0.0,2.579528447333477,0.0,0.0,0.0,0.0,0.0,0.0,0.0,0.0,0.0,0.0,0.0,0.0,0.0,0.0,
1.1512,2.423387125901343,2.7139084868407997,2.602710866486187,0.0,0.0,0.0,2.5800021597427767,0.0,0.0,0.0,0.0,0.0,0.0,0.0,0.0,0.0,0.0,0.0,0.0,0.0,0.0,
1.1668,2.423755561241741,2.714472167581129,2.60322060327237,0.0,0.0,0.0,2.5804827773650802,0.0,0.0,0.0,0.0,0.0,0.0,0.0,0.0,0.0,0.0,0.0,0.0,0.0,0.0,
1.1823,2.4241268301816037,2.7150403148564166,2.603734369780471,0.0,0.0,0.0,2.5809671716061637,0.0,0.0,0.0,0.0,0.0,0.0,0.0,0.0,0.0,0.0,0.0,0.0,0.0,0.0,
1.1979,2.4245057351473545,2.715620283460594,2.604258816437951,0.0,0.0,0.0,2.5814616116819664,0.0,0.0,0.0,0.0,0.0,0.0,0.0,0.0,0.0,0.0,0.0,0.0,0.0,0.0,
1.2134,2.4248874303257795,2.7162046619433218,2.604787240914559,0.0,0.0,0.0,2.581959777727887,0.0,0.0,0.0,0.0,0.0,0.0,0.0,0.0,0.0,0.0,0.0,0.0,0.0,0.0,
1.229,2.4252768530488735,2.7168010153172153,2.6053264834685845,0.0,0.0,0.0,2.5824681172782245,0.0,0.0,0.0,0.0,0.0,0.0,0.0,0.0,0.0,0.0,0.0,0.0,0.0,0.0,
1.2445,2.4256690230331435,2.7174017228542686,2.6058696527743894,0.0,0.0,0.0,2.582980132887267,0.0,0.0,0.0,0.0,0.0,0.0,0.0,0.0,0.0,0.0,0.0,0.0,0.0,0.0,
1.2601,2.4260690131479175,2.718014561061482,2.6064237800535754,0.0,0.0,0.0,2.583502451420992,0.0,0.0,0.0,0.0,0.0,0.0,0.0,0.0,0.0,0.0,0.0,0.0,0.0,0.0,
1.2757,2.426474323118071,2.7186357068795375,2.6069854079728128,0.0,0.0,0.0,2.584031812656807,0.0,0.0,0.0,0.0,0.0,0.0,0.0,0.0,0.0,0.0,0.0,0.0,0.0,0.0,
1.2912,2.426882316671862,2.719261124979224,2.6075508875419384,0.0,0.0,0.0,2.584564776397675,0.0,0.0,0.0,0.0,0.0,0.0,0.0,0.0,0.0,0.0,0.0,0.0,0.0,0.0,
1.3068,2.427298271432036,2.7198989119359966,2.6081275389422443,0.0,0.0,0.0,2.5851082407700923,0.0,0.0,0.0,0.0,0.0,0.0,0.0,0.0,0.0,0.0,0.0,0.0,0.0,0.0,
1.3223,2.427716867916037,2.720540917841526,2.6087079930402948,0.0,0.0,0.0,2.5856552595992857,0.0,0.0,0.0,0.0,0.0,0.0,0.0,0.0,0.0,0.0,0.0,0.0,0.0,0.0,
1.3379,2.4281435209506186,2.721195454139587,2.6092997639758684,0.0,0.0,0.0,2.586212913022025,0.0,0.0,0.0,0.0,0.0,0.0,0.0,0.0,0.0,0.0,0.0,0.0,0.0,0.0,
1.3534,2.4285727742873595,2.7218541570190786,2.609895289514384,0.0,0.0,0.0,2.5867740736069407,0.0,0.0,0.0,0.0,0.0,0.0,0.0,0.0,0.0,0.0,0.0,0.0,0.0,0.0,
1.369,2.429010180658495,2.7225255542157525,2.610502279017932,0.0,0.0,0.0,2.5873460046307266,0.0,0.0,0.0,0.0,0.0,0.0,0.0,0.0,0.0,0.0,0.0,0.0,0.0,0.0,
1.3846,2.4294530022250083,2.7232054520531066,2.611116940519532,0.0,0.0,0.0,2.5879251315992153,0.0,0.0,0.0,0.0,0.0,0.0,0.0,0.0,0.0,0.0,0.0,0.0,0.0,0.0,
1.4001,2.4298983627205013,2.7238894396693687,2.611735286031796,0.0,0.0,0.0,2.5885076961405553,0.0,0.0,0.0,0.0,0.0,0.0,0.0,0.0,0.0,0.0,0.0,0.0,0.0,0.0,
1.4157,2.430352023319996,2.7245863723565424,2.612365320523807,0.0,0.0,0.0,2.5891012387334484,0.0,0.0,0.0,0.0,0.0,0.0,0.0,0.0,0.0,0.0,0.0,0.0,0.0,0.0,
1.4312,2.4308081825293195,2.7252873449101767,2.6129989931115842,0.0,0.0,0.0,2.589698173517027,0.0,0.0,0.0,0.0,0.0,0.0,0.0,0.0,0.0,0.0,0.0,0.0,0.0,0.0,
1.4468,2.4312727412747215,2.726001432670069,2.613644507320754,0.0,0.0,0.0,2.5903062270885147,0.0,0.0,0.0,0.0,0.0,0.0,0.0,0.0,0.0,0.0,0.0,0.0,0.0,0.0,
1.4623,2.431739758754847,2.7267195113830915,2.6142936145980444,0.0,0.0,0.0,2.5909176282453275,0.0,0.0,0.0,0.0,0.0,0.0,0.0,0.0,0.0,0.0,0.0,0.0,0.0,0.0,
1.4779,2.4322152764221006,2.72745087801806,2.614954718429493,0.0,0.0,0.0,2.591540290956551,0.0,0.0,0.0,0.0,0.0,0.0,0.0,0.0,0.0,0.0,0.0,0.0,0.0,0.0,
1.4935,2.432696314587333,2.7281909596383884,2.615623684542178,0.0,0.0,0.0,2.5921703195892998,0.0,0.0,0.0,0.0,0.0,0.0,0.0,0.0,0.0,0.0,0.0,0.0,0.0,0.0,
1.509,2.433179752449597,2.7289349606648168,2.6162961777981555,0.0,0.0,0.0,2.5928036303041897,0.0,0.0,0.0,0.0,0.0,0.0,0.0,0.0,0.0,0.0,0.0,0.0,0.0,0.0,
1.5246,2.433671843979652,2.729692513939299,2.6169809046738246,0.0,0.0,0.0,2.5934484208642585,0.0,0.0,0.0,0.0,0.0,0.0,0.0,0.0,0.0,0.0,0.0,0.0,0.0,0.0,
1.5401,2.434166296453049,2.730453940257462,2.6176691159309478,0.0,0.0,0.0,2.5940964508804862,0.0,0.0,0.0,0.0,0.0,0.0,0.0,0.0,0.0,0.0,0.0,0.0,0.0,0.0,
1.5557,2.4346695064012005,2.731229098253869,2.618369721702628,0.0,0.0,0.0,2.5947561087858992,0.0,0.0,0.0,0.0,0.0,0.0,0.0,0.0,0.0,0.0,0.0,0.0,0.0,0.0,
1.5712,2.4351750389922895,2.7320080839740903,2.619073770020124,0.0,0.0,0.0,2.5954189643288346,0.0,0.0,0.0,0.0,0.0,0.0,0.0,0.0,0.0,0.0,0.0,0.0,0.0,0.0,
1.5868,2.4356894341708983,2.732800983595221,2.6197903762268417,0.0,0.0,0.0,2.5960935979976534,0.0,0.0,0.0,0.0,0.0,0.0,0.0,0.0,0.0,0.0,0.0,0.0,0.0,0.0,
1.6024,2.436209465670103,2.733602835337175,2.6205150552368894,0.0,0.0,0.0,2.5967757854147226,0.0,0.0,0.0,0.0,0.0,0.0,0.0,0.0,0.0,0.0,0.0,0.0,0.0,0.0,
1.6179,2.436731763158757,2.7344084487404032,2.621243115740177,0.0,0.0,0.0,2.597461109213113,0.0,0.0,0.0,0.0,0.0,0.0,0.0,0.0,0.0,0.0,0.0,0.0,0.0,0.0,
1.6335,2.4372630835835016,2.7352282550590994,2.6219839842418247,0.0,0.0,0.0,2.598158440961475,0.0,0.0,0.0,0.0,0.0,0.0,0.0,0.0,0.0,0.0,0.0,0.0,0.0,0.0,
1.649,2.4377966328463807,2.7360517803925837,2.622728194776464,0.0,0.0,0.0,2.598858869338476,0.0,0.0,0.0,0.0,0.0,0.0,0.0,0.0,0.0,0.0,0.0,0.0,0.0,0.0,
1.6646,2.4383393135414644,2.7368896881382327,2.6234853831440916,0.0,0.0,0.0,2.5995714616079297,0.0,0.0,0.0,0.0,0.0,0.0,0.0,0.0,0.0,0.0,0.0,0.0,0.0,0.0,
1.6801,2.438884186389573,2.7377312733494463,2.6242458750596143,0.0,0.0,0.0,2.6002871115995445,0.0,0.0,0.0,0.0,0.0,0.0,0.0,0.0,0.0,0.0,0.0,0.0,0.0,0.0,
1.6957,2.4394383005669686,2.738587433497867,2.625019517332478,0.0,0.0,0.0,2.6010150837991044,0.0,0.0,0.0,0.0,0.0,0.0,0.0,0.0,0.0,0.0,0.0,0.0,0.0,0.0,
1.7113,2.439998178035103,2.739452807371512,2.625801464664462,0.0,0.0,0.0,2.601750816690359,0.0,0.0,0.0,0.0,0.0,0.0,0.0,0.0,0.0,0.0,0.0,0.0,0.0,0.0,
1.7268,2.4405601934550902,2.740321798420358,2.6265866596217196,0.0,0.0,0.0,2.602489550499056,0.0,0.0,0.0,0.0,0.0,0.0,0.0,0.0,0.0,0.0,0.0,0.0,0.0,0.0,
1.7424,2.4411316179214855,2.741205659350207,2.6273852691934128,0.0,0.0,0.0,2.603240848821702,0.0,0.0,0.0,0.0,0.0,0.0,0.0,0.0,0.0,0.0,0.0,0.0,0.0,0.0,
1.7579,2.44170514484101,2.742093098731449,2.6281870904169247,0.0,0.0,0.0,2.6039951113297946,0.0,0.0,0.0,0.0,0.0,0.0,0.0,0.0,0.0,0.0,0.0,0.0,0.0,0.0,
1.7735,2.442288194336828,2.7429956084154385,2.629002505793573,0.0,0.0,0.0,2.604762102848613,0.0,0.0,0.0,0.0,0.0,0.0,0.0,0.0,0.0,0.0,0.0,0.0,0.0,0.0,
1.789,2.4428733112702625,2.7439016589915015,2.6298210978840713,0.0,0.0,0.0,2.6055320227152783,0.0,0.0,0.0,0.0,0.0,0.0,0.0,0.0,0.0,0.0,0.0,0.0,0.0,0.0,
1.8046,2.443468065815369,2.7448229835831497,2.6306534665900854,0.0,0.0,0.0,2.606314838662868,0.0,0.0,0.0,0.0,0.0,0.0,0.0,0.0,0.0,0.0,0.0,0.0,0.0,0.0,
1.8202,2.444068722474477,2.7457538098797887,2.6314943960442907,0.0,0.0,0.0,2.6071056427995187,0.0,0.0,0.0,0.0,0.0,0.0,0.0,0.0,0.0,0.0,0.0,0.0,0.0,0.0,
1.8357,2.444671394911686,2.746688122904315,2.6323384517370596,0.0,0.0,0.0,2.6078993231843537,0.0,0.0,0.0,0.0,0.0,0.0,0.0,0.0,0.0,0.0,0.0,0.0,0.0,0.0,
1.8513,2.4452838805959116,2.7476380221995704,2.6331965636814028,0.0,0.0,0.0,2.608706155492295,0.0,0.0,0.0,0.0,0.0,0.0,0.0,0.0,0.0,0.0,0.0,0.0,0.0,0.0,
1.8668,2.4458983482771,2.7485913736744294,2.6340577696045218,0.0,0.0,0.0,2.6095158305186836,0.0,0.0,0.0,0.0,0.0,0.0,0.0,0.0,0.0,0.0,0.0,0.0,0.0,0.0,
1.8824,2.4465227481475766,2.749560523723842,2.6349332218746087,0.0,0.0,0.0,2.6103388312486757,0.0,0.0,0.0,0.0,0.0,0.0,0.0,0.0,0.0,0.0,0.0,0.0,0.0,0.0,
1.8979,2.4471490967385927,2.750533092650623,2.635811736972326,0.0,0.0,0.0,2.611164642120514,0.0,0.0,0.0,0.0,0.0,0.0,0.0,0.0,0.0,0.0,0.0,0.0,0.0,0.0,
1.9135,2.447785498081538,2.7515216760400847,2.6367046916974486,0.0,0.0,0.0,2.612003955273024,0.0,0.0,0.0,0.0,0.0,0.0,0.0,0.0,0.0,0.0,0.0,0.0,0.0,0.0,
1.929,2.4484238153803286,2.752513646276946,2.6376006792313187,0.0,0.0,0.0,2.6128460469628645,0.0,0.0,0.0,0.0,0.0,0.0,0.0,0.0,0.0,0.0,0.0,0.0,0.0,0.0,
1.9446,2.449072307649005,2.7535218505388435,2.6385113029383023,0.0,0.0,0.0,2.6137018203753835,0.0,0.0,0.0,0.0,0.0,0.0,0.0,0.0,0.0,0.0,0.0,0.0,0.0,0.0,
1.9602,2.4497268992006638,2.754539968994533,2.639430853668909,0.0,0.0,0.0,2.614565907288035,0.0,0.0,0.0,0.0,0.0,0.0,0.0,0.0,0.0,0.0,0.0,0.0,0.0,0.0,
1.9757,2.450383358486106,2.7555614286516805,2.6403533943128945,0.0,0.0,0.0,2.615432727150227,0.0,0.0,0.0,0.0,0.0,0.0,0.0,0.0,0.0,0.0,0.0,0.0,0.0,0.0,
1.9913,2.451050179452801,2.75659945913578,2.6412908725798103,0.0,0.0,0.0,2.616313503722797,0.0,0.0,0.0,0.0,0.0,0.0,0.0,0.0,0.0,0.0,0.0,0.0,0.0,0.0,
2.0068,2.4517188367024656,2.757640802098088,2.642231313685049,0.0,0.0,0.0,2.617196984161867,0.0,0.0,0.0,0.0,0.0,0.0,0.0,0.0,0.0,0.0,0.0,0.0,0.0,0.0,
2.0224,2.452397982151642,2.758698945054694,2.643186897496321,0.0,0.0,0.0,2.618094608234219,0.0,0.0,0.0,0.0,0.0,0.0,0.0,0.0,0.0,0.0,0.0,0.0,0.0,0.0,
