energies(eV),real_xx,real_yy,real_zz,real_xy,real_yz,real_xz,real_ave,imag_xx,imag_yy,imag_zz,imag_xy,imag_yz,imag_xz,imag_ave,absorption_xx,absorption_yy,absorption_zz,absorption_xy,absorption_yz,absorption_xz,absorption_ave,band_gap
0.0,6.711722280127385,6.711722280127385,6.5864082036862,0.0,0.0,0.0,6.6699509213136565,0.0,0.0,0.0,0.0,0.0,0.0,0.0,0.0,0.0,0.0,0.0,0.0,0.0,0.0,1.8202999999999996
0.0124,6.711766293265791,6.711766293265791,6.5864438722418495,0.0,0.0,0.0,6.669992152924476,0.0,0.0,0.0,0.0,0.0,0.0,0.0,0.0,0.0,0.0,0.0,0.0,0.0,0.0,
0.0248,6.711898339063992,6.711898339063992,6.586550881661867,0.0,0.0,0.0,6.670115853263283,0.0,0.0,0.0,0.0,0.0,0.0,0.0,0.0,0.0,0.0,0.0,0.0,0.0,0.0,
0.0372,6.7121184366743405,6.7121184366743405,6.5867292432067135,0.0,0.0,0.0,6.670322038851798,0.0,0.0,0.0,0.0,0.0,0.0,0.0,0.0,0.0,0.0,0.0,0.0,0.0,0.0,
0.0496,6.712426618027602,6.712426618027602,6.586978975647676,0.0,0.0,0.0,6.670610737234294,0.0,0.0,0.0,0.0,0.0,0.0,0.0,0.0,0.0,0.0,0.0,0.0,0.0,0.0,
0.0621,6.71282648226576,6.71282648226576,6.587302985328364,0.0,0.0,0.0,6.670985316619962,0.0,0.0,0.0,0.0,0.0,0.0,0.0,0.0,0.0,0.0,0.0,0.0,0.0,0.0,
0.0745,6.713311689540471,6.713311689540471,6.587696122165038,0.0,0.0,0.0,6.67143983374866,0.0,0.0,0.0,0.0,0.0,0.0,0.0,0.0,0.0,0.0,0.0,0.0,0.0,0.0,
0.0869,6.713885153825984,6.713885153825984,6.588160731711553,0.0,0.0,0.0,6.671977013121174,0.0,0.0,0.0,0.0,0.0,0.0,0.0,0.0,0.0,0.0,0.0,0.0,0.0,0.0,
0.0993,6.7145469584867445,6.7145469584867445,6.588696862925774,0.0,0.0,0.0,6.672596926633088,0.0,0.0,0.0,0.0,0.0,0.0,0.0,0.0,0.0,0.0,0.0,0.0,0.0,0.0,
0.1117,6.715297199805137,6.715297199805137,6.589304572329631,0.0,0.0,0.0,6.673299657313302,0.0,0.0,0.0,0.0,0.0,0.0,0.0,0.0,0.0,0.0,0.0,0.0,0.0,0.0,
0.1241,6.716135987028073,6.716135987028073,6.589983924026487,0.0,0.0,0.0,6.674085299360878,0.0,0.0,0.0,0.0,0.0,0.0,0.0,0.0,0.0,0.0,0.0,0.0,0.0,0.0,
0.1365,6.717063442419905,6.717063442419905,6.590734989721593,0.0,0.0,0.0,6.674953958187134,0.0,0.0,0.0,0.0,0.0,0.0,0.0,0.0,0.0,0.0,0.0,0.0,0.0,0.0,
0.1489,6.718079701322172,6.718079701322172,6.591557848744389,0.0,0.0,0.0,6.675905750462911,0.0,0.0,0.0,0.0,0.0,0.0,0.0,0.0,0.0,0.0,0.0,0.0,0.0,0.0,
0.1613,6.719184912219218,6.719184912219218,6.592452588073488,0.0,0.0,0.0,6.676940804170641,0.0,0.0,0.0,0.0,0.0,0.0,0.0,0.0,0.0,0.0,0.0,0.0,0.0,0.0,
0.1737,6.72037923681085,6.72037923681085,6.59341930236415,0.0,0.0,0.0,6.67805925866195,0.0,0.0,0.0,0.0,0.0,0.0,0.0,0.0,0.0,0.0,0.0,0.0,0.0,0.0,
0.1862,6.721673565253599,6.721673565253599,6.594466764602268,0.0,0.0,0.0,6.679271298369822,0.0,0.0,0.0,0.0,0.0,0.0,0.0,0.0,0.0,0.0,0.0,0.0,0.0,0.0,
0.1986,6.723047377990017,6.723047377990017,6.595578326265051,0.0,0.0,0.0,6.6805576940816955,0.0,0.0,0.0,0.0,0.0,0.0,0.0,0.0,0.0,0.0,0.0,0.0,0.0,0.0,
0.211,6.724510871321767,6.724510871321767,6.596762194207742,0.0,0.0,0.0,6.681927978950426,0.0,0.0,0.0,0.0,0.0,0.0,0.0,0.0,0.0,0.0,0.0,0.0,0.0,0.0,
0.2234,6.726064260779919,6.726064260779919,6.598018494178328,0.0,0.0,0.0,6.6833823385793885,0.0,0.0,0.0,0.0,0.0,0.0,0.0,0.0,0.0,0.0,0.0,0.0,0.0,0.0,
0.2358,6.727707775576237,6.727707775576237,6.599347359776054,0.0,0.0,0.0,6.684920970309509,0.0,0.0,0.0,0.0,0.0,0.0,0.0,0.0,0.0,0.0,0.0,0.0,0.0,0.0,
0.2482,6.729441658717096,6.729441658717096,6.600748932493737,0.0,0.0,0.0,6.68654408330931,0.0,0.0,0.0,0.0,0.0,0.0,0.0,0.0,0.0,0.0,0.0,0.0,0.0,0.0,
0.2606,6.731266167124492,6.731266167124492,6.6022233617630635,0.0,0.0,0.0,6.688251898670682,0.0,0.0,0.0,0.0,0.0,0.0,0.0,0.0,0.0,0.0,0.0,0.0,0.0,0.0,
0.273,6.733181571765235,6.733181571765235,6.603770805002143,0.0,0.0,0.0,6.690044649510871,0.0,0.0,0.0,0.0,0.0,0.0,0.0,0.0,0.0,0.0,0.0,0.0,0.0,0.0,
0.2854,6.735188157786839,6.735188157786839,6.605391427666095,0.0,0.0,0.0,6.6919225810799245,0.0,0.0,0.0,0.0,0.0,0.0,0.0,0.0,0.0,0.0,0.0,0.0,0.0,0.0,
0.2978,6.7372862246617755,6.7372862246617755,6.607085403300046,0.0,0.0,0.0,6.693885950874532,0.0,0.0,0.0,0.0,0.0,0.0,0.0,0.0,0.0,0.0,0.0,0.0,0.0,0.0,
0.3103,6.739494120523798,6.739494120523798,6.6088674671234395,0.0,0.0,0.0,6.695951902723678,0.0,0.0,0.0,0.0,0.0,0.0,0.0,0.0,0.0,0.0,0.0,0.0,0.0,0.0,
0.3227,6.741776849897418,6.741776849897418,6.610709297322511,0.0,0.0,0.0,6.698087665705782,0.0,0.0,0.0,0.0,0.0,0.0,0.0,0.0,0.0,0.0,0.0,0.0,0.0,0.0,
0.3351,6.744152048882431,6.744152048882431,6.612625051872009,0.0,0.0,0.0,6.7003097165456245,0.0,0.0,0.0,0.0,0.0,0.0,0.0,0.0,0.0,0.0,0.0,0.0,0.0,0.0,
0.3475,6.746620075974974,6.746620075974974,6.614614937331662,0.0,0.0,0.0,6.70261836309387,0.0,0.0,0.0,0.0,0.0,0.0,0.0,0.0,0.0,0.0,0.0,0.0,0.0,0.0,
0.3599,6.749181304840664,6.749181304840664,6.616679168659393,0.0,0.0,0.0,6.7050139261135735,0.0,0.0,0.0,0.0,0.0,0.0,0.0,0.0,0.0,0.0,0.0,0.0,0.0,0.0,
0.3723,6.751836124509267,6.751836124509267,6.61881796928161,0.0,0.0,0.0,6.707496739433381,0.0,0.0,0.0,0.0,0.0,0.0,0.0,0.0,0.0,0.0,0.0,0.0,0.0,0.0,
0.3847,6.754584939578759,6.754584939578759,6.621031571166584,0.0,0.0,0.0,6.710067150108034,0.0,0.0,0.0,0.0,0.0,0.0,0.0,0.0,0.0,0.0,0.0,0.0,0.0,0.0,
0.3971,6.757428170428217,6.757428170428217,6.623320214900647,0.0,0.0,0.0,6.712725518585693,0.0,0.0,0.0,0.0,0.0,0.0,0.0,0.0,0.0,0.0,0.0,0.0,0.0,0.0,
0.4095,6.760366253441197,6.760366253441197,6.6256841497677135,0.0,0.0,0.0,6.715472218883369,0.0,0.0,0.0,0.0,0.0,0.0,0.0,0.0,0.0,0.0,0.0,0.0,0.0,0.0,
0.4219,6.763399641238297,6.763399641238297,6.628123633831929,0.0,0.0,0.0,6.718307638769507,0.0,0.0,0.0,0.0,0.0,0.0,0.0,0.0,0.0,0.0,0.0,0.0,0.0,0.0,
0.4344,6.766554428705423,6.766554428705423,6.63065952762262,0.0,0.0,0.0,6.721256128344489,0.0,0.0,0.0,0.0,0.0,0.0,0.0,0.0,0.0,0.0,0.0,0.0,0.0,0.0,
0.4468,6.769780628417408,6.769780628417408,6.633251534618341,0.0,0.0,0.0,6.724270930484386,0.0,0.0,0.0,0.0,0.0,0.0,0.0,0.0,0.0,0.0,0.0,0.0,0.0,0.0,
0.4592,6.773103594809456,6.773103594809456,6.6359199208951525,0.0,0.0,0.0,6.727375703504688,0.0,0.0,0.0,0.0,0.0,0.0,0.0,0.0,0.0,0.0,0.0,0.0,0.0,0.0,
0.4716,6.776523848131482,6.776523848131482,6.638664980604295,0.0,0.0,0.0,6.730570892289086,0.0,0.0,0.0,0.0,0.0,0.0,0.0,0.0,0.0,0.0,0.0,0.0,0.0,0.0,
0.484,6.780041926198408,6.780041926198408,6.641487017141319,0.0,0.0,0.0,6.733856956512713,0.0,0.0,0.0,0.0,0.0,0.0,0.0,0.0,0.0,0.0,0.0,0.0,0.0,0.0,
0.4964,6.783658384690107,6.783658384690107,6.644386343248876,0.0,0.0,0.0,6.737234370876364,0.0,0.0,0.0,0.0,0.0,0.0,0.0,0.0,0.0,0.0,0.0,0.0,0.0,0.0,
0.5088,6.787373797463336,6.787373797463336,6.647363281123786,0.0,0.0,0.0,6.740703625350153,0.0,0.0,0.0,0.0,0.0,0.0,0.0,0.0,0.0,0.0,0.0,0.0,0.0,0.0,
0.5212,6.791188756877052,6.791188756877052,6.650418162527414,0.0,0.0,0.0,6.744265225427173,0.0,0.0,0.0,0.0,0.0,0.0,0.0,0.0,0.0,0.0,0.0,0.0,0.0,0.0,
0.5336,6.795103874130643,6.795103874130643,6.65355132890011,0.0,0.0,0.0,6.747919692387132,0.0,0.0,0.0,0.0,0.0,0.0,0.0,0.0,0.0,0.0,0.0,0.0,0.0,0.0,
0.546,6.79911977961609,6.79911977961609,6.656763131479634,0.0,0.0,0.0,6.751667563570604,0.0,0.0,0.0,0.0,0.0,0.0,0.0,0.0,0.0,0.0,0.0,0.0,0.0,0.0,
0.5585,6.803270741801336,6.803270741801336,6.66008079224209,0.0,0.0,0.0,6.755540758614921,0.0,0.0,0.0,0.0,0.0,0.0,0.0,0.0,0.0,0.0,0.0,0.0,0.0,0.0,
0.5709,6.807491019774006,6.807491019774006,6.663451602358536,0.0,0.0,0.0,6.759477880635516,0.0,0.0,0.0,0.0,0.0,0.0,0.0,0.0,0.0,0.0,0.0,0.0,0.0,0.0,
0.5833,6.811814101699084,6.811814101699084,6.6669021655397485,0.0,0.0,0.0,6.763510122979305,0.0,0.0,0.0,0.0,0.0,0.0,0.0,0.0,0.0,0.0,0.0,0.0,0.0,0.0,
0.5957,6.8162406987231146,6.8162406987231146,6.67043287356111,0.0,0.0,0.0,6.76763809033578,0.0,0.0,0.0,0.0,0.0,0.0,0.0,0.0,0.0,0.0,0.0,0.0,0.0,0.0,
0.6081,6.8207715431747005,6.8207715431747005,6.674044128650224,0.0,0.0,0.0,6.771862404999875,0.0,0.0,0.0,0.0,0.0,0.0,0.0,0.0,0.0,0.0,0.0,0.0,0.0,0.0,
0.6205,6.825407389010832,6.825407389010832,6.677736343630994,0.0,0.0,0.0,6.776183707217553,0.0,0.0,0.0,0.0,0.0,0.0,0.0,0.0,0.0,0.0,0.0,0.0,0.0,0.0,
0.6329,6.830149012281237,6.830149012281237,6.6815099420720125,0.0,0.0,0.0,6.780602655544829,0.0,0.0,0.0,0.0,0.0,0.0,0.0,0.0,0.0,0.0,0.0,0.0,0.0,0.0,
0.6453,6.834997211611294,6.834997211611294,6.685365358440325,0.0,0.0,0.0,6.785119927220971,0.0,0.0,0.0,0.0,0.0,0.0,0.0,0.0,0.0,0.0,0.0,0.0,0.0,0.0,
0.6577,6.839952808704469,6.839952808704469,6.689303038259552,0.0,0.0,0.0,6.789736218556164,0.0,0.0,0.0,0.0,0.0,0.0,0.0,0.0,0.0,0.0,0.0,0.0,0.0,0.0,
0.6701,6.845016648864542,6.845016648864542,6.693323438273484,0.0,0.0,0.0,6.794452245334189,0.0,0.0,0.0,0.0,0.0,0.0,0.0,0.0,0.0,0.0,0.0,0.0,0.0,0.0,
0.6826,6.850231764833362,6.850231764833362,6.697460459508068,0.0,0.0,0.0,6.799307996391597,0.0,0.0,0.0,0.0,0.0,0.0,0.0,0.0,0.0,0.0,0.0,0.0,0.0,0.0,
0.695,6.855515615033253,6.855515615033253,6.701648392595021,0.0,0.0,0.0,6.804226540887176,0.0,0.0,0.0,0.0,0.0,0.0,0.0,0.0,0.0,0.0,0.0,0.0,0.0,0.0,
0.7074,6.860910398878765,6.860910398878765,6.705920489152791,0.0,0.0,0.0,6.809247095636774,0.0,0.0,0.0,0.0,0.0,0.0,0.0,0.0,0.0,0.0,0.0,0.0,0.0,0.0,
0.7198,6.8664170619455085,6.8664170619455085,6.710277252642616,0.0,0.0,0.0,6.814370458844544,0.0,0.0,0.0,0.0,0.0,0.0,0.0,0.0,0.0,0.0,0.0,0.0,0.0,0.0,
0.7322,6.872036576360858,6.872036576360858,6.714719198645465,0.0,0.0,0.0,6.819597450455727,0.0,0.0,0.0,0.0,0.0,0.0,0.0,0.0,0.0,0.0,0.0,0.0,0.0,0.0,
0.7446,6.877769941467214,6.877769941467214,6.719246855059061,0.0,0.0,0.0,6.824928912664497,0.0,0.0,0.0,0.0,0.0,0.0,0.0,0.0,0.0,0.0,0.0,0.0,0.0,0.0,
0.757,6.883618184512094,6.883618184512094,6.723860762300697,0.0,0.0,0.0,6.830365710441629,0.0,0.0,0.0,0.0,0.0,0.0,0.0,0.0,0.0,0.0,0.0,0.0,0.0,0.0,
0.7694,6.889582361367164,6.889582361367164,6.728561473516962,0.0,0.0,0.0,6.835908732083763,0.0,0.0,0.0,0.0,0.0,0.0,0.0,0.0,0.0,0.0,0.0,0.0,0.0,0.0,
0.7818,6.895663557276608,6.895663557276608,6.733349554799811,0.0,0.0,0.0,6.841558889784342,0.0,0.0,0.0,0.0,0.0,0.0,0.0,0.0,0.0,0.0,0.0,0.0,0.0,0.0,
0.7942,6.901862887636825,6.901862887636825,6.738225585409231,0.0,0.0,0.0,6.847317120227626,0.0,0.0,0.0,0.0,0.0,0.0,0.0,0.0,0.0,0.0,0.0,0.0,0.0,0.0,
0.8067,6.90823294338382,6.90823294338382,6.74323055642251,0.0,0.0,0.0,6.85323214773005,0.0,0.0,0.0,0.0,0.0,0.0,0.0,0.0,0.0,0.0,0.0,0.0,0.0,0.0,
0.8191,6.914672989859502,6.914672989859502,6.748284998733311,0.0,0.0,0.0,6.859210326150772,0.0,0.0,0.0,0.0,0.0,0.0,0.0,0.0,0.0,0.0,0.0,0.0,0.0,0.0,
0.8315,6.9212347160833305,6.9212347160833305,6.753429214551732,0.0,0.0,0.0,6.865299548906131,0.0,0.0,0.0,0.0,0.0,0.0,0.0,0.0,0.0,0.0,0.0,0.0,0.0,0.0,
0.8439,6.927919366807781,6.927919366807781,6.758663838296135,0.0,0.0,0.0,6.871500857303899,0.0,0.0,0.0,0.0,0.0,0.0,0.0,0.0,0.0,0.0,0.0,0.0,0.0,0.0,
0.8563,6.934728221365163,6.934728221365163,6.763989518778239,0.0,0.0,0.0,6.8778153205028545,0.0,0.0,0.0,0.0,0.0,0.0,0.0,0.0,0.0,0.0,0.0,0.0,0.0,0.0,
0.8687,6.941662594668878,6.941662594668878,6.769406919471635,0.0,0.0,0.0,6.884244036269796,0.0,0.0,0.0,0.0,0.0,0.0,0.0,0.0,0.0,0.0,0.0,0.0,0.0,0.0,
0.8811,6.948723838257734,6.948723838257734,6.774916718788188,0.0,0.0,0.0,6.890788131767885,0.0,0.0,0.0,0.0,0.0,0.0,0.0,0.0,0.0,0.0,0.0,0.0,0.0,0.0,
0.8935,6.955913341386416,6.955913341386416,6.780519610363768,0.0,0.0,0.0,6.897448764378868,0.0,0.0,0.0,0.0,0.0,0.0,0.0,0.0,0.0,0.0,0.0,0.0,0.0,0.0,
0.9059,6.963232532163902,6.963232532163902,6.78621630335283,0.0,0.0,0.0,6.904227122560211,0.0,0.0,0.0,0.0,0.0,0.0,0.0,0.0,0.0,0.0,0.0,0.0,0.0,0.0,
0.9183,6.9706828787426245,6.9706828787426245,6.79200752273205,0.0,0.0,0.0,6.9111244267391,0.0,0.0,0.0,0.0,0.0,0.0,0.0,0.0,0.0,0.0,0.0,0.0,0.0,0.0,
0.9308,6.978327587330253,6.978327587330253,6.797941870573715,0.0,0.0,0.0,6.918199015078073,0.0,0.0,0.0,0.0,0.0,0.0,0.0,0.0,0.0,0.0,0.0,0.0,0.0,0.0,
0.9432,6.9860459052363435,6.9860459052363435,6.803925160052048,0.0,0.0,0.0,6.925338990174912,0.0,0.0,0.0,0.0,0.0,0.0,0.0,0.0,0.0,0.0,0.0,0.0,0.0,0.0,
0.9556,6.993900049424854,6.993900049424854,6.81000525528633,0.0,0.0,0.0,6.932601784712013,0.0,0.0,0.0,0.0,0.0,0.0,0.0,0.0,0.0,0.0,0.0,0.0,0.0,0.0,
0.968,7.001891661597554,7.001891661597554,6.816182947921311,0.0,0.0,0.0,6.939988757038807,0.0,0.0,0.0,0.0,0.0,0.0,0.0,0.0,0.0,0.0,0.0,0.0,0.0,0.0,
0.9804,7.010022430318839,7.010022430318839,6.822459047099516,0.0,0.0,0.0,6.947501302579066,0.0,0.0,0.0,0.0,0.0,0.0,0.0,0.0,0.0,0.0,0.0,0.0,0.0,0.0,
0.9928,7.018294092572997,7.018294092572997,6.828834379829098,0.0,0.0,0.0,6.955140854991697,0.0,0.0,0.0,0.0,0.0,0.0,0.0,0.0,0.0,0.0,0.0,0.0,0.0,0.0,
1.0052,7.026708435395436,7.026708435395436,6.835309791363652,0.0,0.0,0.0,6.962908887384842,0.0,0.0,0.0,0.0,0.0,0.0,0.0,0.0,0.0,0.0,0.0,0.0,0.0,0.0,
1.0176,7.035267297581374,7.035267297581374,6.841886145594677,0.0,0.0,0.0,6.970806913585808,0.0,0.0,0.0,0.0,0.0,0.0,0.0,0.0,0.0,0.0,0.0,0.0,0.0,0.0,
1.03,7.043972571477822,7.043972571477822,6.848564325457007,0.0,0.0,0.0,6.978836489470884,0.0,0.0,0.0,0.0,0.0,0.0,0.0,0.0,0.0,0.0,0.0,0.0,0.0,0.0,
1.0424,7.052826204863008,7.052826204863008,6.8553452333476566,0.0,0.0,0.0,6.9869992143578905,0.0,0.0,0.0,0.0,0.0,0.0,0.0,0.0,0.0,0.0,0.0,0.0,0.0,0.0,
1.0549,7.061903432580966,7.061903432580966,6.862285736055734,0.0,0.0,0.0,6.995364200405888,0.0,0.0,0.0,0.0,0.0,0.0,0.0,0.0,0.0,0.0,0.0,0.0,0.0,0.0,
1.0673,7.071061097788571,7.071061097788571,6.869275734601875,0.0,0.0,0.0,7.003799310059673,0.0,0.0,0.0,0.0,0.0,0.0,0.0,0.0,0.0,0.0,0.0,0.0,0.0,0.0,
1.0797,7.080373336029427,7.080373336029427,6.8763712973997,0.0,0.0,0.0,7.0123726564861855,0.0,0.0,0.0,0.0,0.0,0.0,0.0,0.0,0.0,0.0,0.0,0.0,0.0,0.0,
1.0921,7.089842338067165,7.089842338067165,6.8835734093474805,0.0,0.0,0.0,7.021086028493937,0.0,0.0,0.0,0.0,0.0,0.0,0.0,0.0,0.0,0.0,0.0,0.0,0.0,0.0,
1.1045,7.099470361024266,7.099470361024266,6.890883077126913,0.0,0.0,0.0,7.029941266391815,0.0,0.0,0.0,0.0,0.0,0.0,0.0,0.0,0.0,0.0,0.0,0.0,0.0,0.0,
1.1169,7.1092597309120995,7.1092597309120995,6.898301329715365,0.0,0.0,0.0,7.038940263846521,0.0,0.0,0.0,0.0,0.0,0.0,0.0,0.0,0.0,0.0,0.0,0.0,0.0,0.0,
1.1293,7.1192128452954035,7.1192128452954035,6.905829218916133,0.0,0.0,0.0,7.048084969835647,0.0,0.0,0.0,0.0,0.0,0.0,0.0,0.0,0.0,0.0,0.0,0.0,0.0,0.0,
1.1417,7.129332176098843,7.129332176098843,6.913467819907571,0.0,0.0,0.0,7.0573773907017525,0.0,0.0,0.0,0.0,0.0,0.0,0.0,0.0,0.0,0.0,0.0,0.0,0.0,0.0,
1.1541,7.139620272565418,7.139620272565418,6.921218231811423,0.0,0.0,0.0,7.066819592314086,0.0,0.0,0.0,0.0,0.0,0.0,0.0,0.0,0.0,0.0,0.0,0.0,0.0,0.0,
1.1665,7.150079764377248,7.150079764377248,6.9290815782815,0.0,0.0,0.0,7.076413702345332,0.0,0.0,0.0,0.0,0.0,0.0,0.0,0.0,0.0,0.0,0.0,0.0,0.0,0.0,
1.179,7.1607998350653395,7.1607998350653395,6.937123809127035,0.0,0.0,0.0,7.086241159752571,0.0,0.0,0.0,0.0,0.0,0.0,0.0,0.0,0.0,0.0,0.0,0.0,0.0,0.0,
1.1914,7.171611783341298,7.171611783341298,6.945217431237869,0.0,0.0,0.0,7.096146999306821,0.0,0.0,0.0,0.0,0.0,0.0,0.0,0.0,0.0,0.0,0.0,0.0,0.0,0.0,
1.2038,7.18260355621773,7.18260355621773,6.953427522077012,0.0,0.0,0.0,7.10621154483749,0.0,0.0,0.0,0.0,0.0,0.0,0.0,0.0,0.0,0.0,0.0,0.0,0.0,0.0,
1.2162,7.193778140768329,7.193778140768329,6.9617553099760325,0.0,0.0,0.0,7.116437197170897,0.0,0.0,0.0,0.0,0.0,0.0,0.0,0.0,0.0,0.0,0.0,0.0,0.0,0.0,
1.2286,7.205138622995271,7.205138622995271,6.970202051087381,0.0,0.0,0.0,7.126826432359308,0.0,0.0,0.0,0.0,0.0,0.0,0.0,0.0,0.0,0.0,0.0,0.0,0.0,0.0,
1.241,7.216688192191739,7.216688192191739,6.97876903011604,0.0,0.0,0.0,7.137381804833173,0.0,0.0,0.0,0.0,0.0,0.0,0.0,0.0,0.0,0.0,0.0,0.0,0.0,0.0,
1.2534,7.228430145566947,7.228430145566947,6.987457561079807,0.0,0.0,0.0,7.1481059507379,0.0,0.0,0.0,0.0,0.0,0.0,0.0,0.0,0.0,0.0,0.0,0.0,0.0,0.0,
1.2658,7.240367893152996,7.240367893152996,6.996268988098508,0.0,0.0,0.0,7.159001591468166,0.0,0.0,0.0,0.0,0.0,0.0,0.0,0.0,0.0,0.0,0.0,0.0,0.0,0.0,
1.2782,7.252504963015568,7.252504963015568,7.005204686214012,0.0,0.0,0.0,7.1700715374150485,0.0,0.0,0.0,0.0,0.0,0.0,0.0,0.0,0.0,0.0,0.0,0.0,0.0,0.0,
1.2906,7.264845006791049,7.264845006791049,7.01426606224287,0.0,0.0,0.0,7.181318691941655,0.0,0.0,0.0,0.0,0.0,0.0,0.0,0.0,0.0,0.0,0.0,0.0,0.0,0.0,
1.3031,7.277493840413911,7.277493840413911,7.023529177104259,0.0,0.0,0.0,7.192838952644027,0.0,0.0,0.0,0.0,0.0,0.0,0.0,0.0,0.0,0.0,0.0,0.0,0.0,0.0,
1.3155,7.290253026311657,7.290253026311657,7.032847304075245,0.0,0.0,0.0,7.20445111889952,0.0,0.0,0.0,0.0,0.0,0.0,0.0,0.0,0.0,0.0,0.0,0.0,0.0,0.0,
1.3279,7.3032269766306435,7.3032269766306435,7.042295541401135,0.0,0.0,0.0,7.216249831554141,0.0,0.0,0.0,0.0,0.0,0.0,0.0,0.0,0.0,0.0,0.0,0.0,0.0,0.0,
1.3403,7.316419901398346,7.316419901398346,7.051875432517446,0.0,0.0,0.0,7.228238411771379,0.0,0.0,0.0,0.0,0.0,0.0,0.0,0.0,0.0,0.0,0.0,0.0,0.0,0.0,
1.3527,7.329836167862777,7.329836167862777,7.061588557451322,0.0,0.0,0.0,7.240420297725625,0.0,0.0,0.0,0.0,0.0,0.0,0.0,0.0,0.0,0.0,0.0,0.0,0.0,0.0,
1.3651,7.343480308633585,7.343480308633585,7.071436533906998,0.0,0.0,0.0,7.252799050391389,0.0,0.0,0.0,0.0,0.0,0.0,0.0,0.0,0.0,0.0,0.0,0.0,0.0,0.0,
1.3775,7.357357030393063,7.357357030393063,7.081421018397717,0.0,0.0,0.0,7.265378359727947,0.0,0.0,0.0,0.0,0.0,0.0,0.0,0.0,0.0,0.0,0.0,0.0,0.0,0.0,
1.3899,7.371471223227618,7.371471223227618,7.091543707427253,0.0,0.0,0.0,7.278162051294164,0.0,0.0,0.0,0.0,0.0,0.0,0.0,0.0,0.0,0.0,0.0,0.0,0.0,0.0,
1.4023,7.385827970634876,7.385827970634876,7.101806338723054,0.0,0.0,0.0,7.291154093330936,0.0,0.0,0.0,0.0,0.0,0.0,0.0,0.0,0.0,0.0,0.0,0.0,0.0,0.0,
1.4147,7.400432560268092,7.400432560268092,7.11221069252491,0.0,0.0,0.0,7.304358604353697,0.0,0.0,0.0,0.0,0.0,0.0,0.0,0.0,0.0,0.0,0.0,0.0,0.0,0.0,
1.4272,7.41541136277307,7.41541136277307,7.122844245184694,0.0,0.0,0.0,7.317888990243611,0.0,0.0,0.0,0.0,0.0,0.0,0.0,0.0,0.0,0.0,0.0,0.0,0.0,0.0,
1.4396,7.430530488351233,7.430530488351233,7.13353874199834,0.0,0.0,0.0,7.331533239566935,0.0,0.0,0.0,0.0,0.0,0.0,0.0,0.0,0.0,0.0,0.0,0.0,0.0,0.0,
1.452,7.44591471323702,7.44591471323702,7.144380586541797,0.0,0.0,0.0,7.345403337671946,0.0,0.0,0.0,0.0,0.0,0.0,0.0,0.0,0.0,0.0,0.0,0.0,0.0,0.0,
1.4644,7.4615702685879715,7.4615702685879715,7.155371743609831,0.0,0.0,0.0,7.359504093595258,0.0,0.0,0.0,0.0,0.0,0.0,0.0,0.0,0.0,0.0,0.0,0.0,0.0,0.0,
1.4768,7.477503657316362,7.477503657316362,7.166514227918617,0.0,0.0,0.0,7.37384051418378,0.0,0.0,0.0,0.0,0.0,0.0,0.0,0.0,0.0,0.0,0.0,0.0,0.0,0.0,
1.4892,7.4937216710126116,7.4937216710126116,7.1778101058055785,0.0,0.0,0.0,7.3884178159436,0.0,0.0,0.0,0.0,0.0,0.0,0.0,0.0,0.0,0.0,0.0,0.0,0.0,0.0,
1.5016,7.510231408289017,7.510231408289017,7.189261497014318,0.0,0.0,0.0,7.403241437864118,0.0,0.0,0.0,0.0,0.0,0.0,0.0,0.0,0.0,0.0,0.0,0.0,0.0,0.0,
1.514,7.527040294693968,7.527040294693968,7.200870576570228,0.0,0.0,0.0,7.418317055319388,0.0,0.0,0.0,0.0,0.0,0.0,0.0,0.0,0.0,0.0,0.0,0.0,0.0,0.0,
1.5264,7.5441561043660466,7.5441561043660466,7.212639576753608,0.0,0.0,0.0,7.4336505951619,0.0,0.0,0.0,0.0,0.0,0.0,0.0,0.0,0.0,0.0,0.0,0.0,0.0,0.0,
1.5388,7.561586983619952,7.561586983619952,7.224570789176547,0.0,0.0,0.0,7.449248252138816,0.0,0.0,0.0,0.0,0.0,0.0,0.0,0.0,0.0,0.0,0.0,0.0,0.0,0.0,
1.5513,7.579485997601476,7.579485997601476,7.236764789020463,0.0,0.0,0.0,7.4652455947411385,0.0,0.0,0.0,0.0,0.0,0.0,0.0,0.0,0.0,0.0,0.0,0.0,0.0,0.0,
1.5637,7.597575794551972,7.597575794551972,7.249028905786034,0.0,0.0,0.0,7.481393498296659,0.0,0.0,0.0,0.0,0.0,0.0,0.0,0.0,0.0,0.0,0.0,0.0,0.0,0.0,
1.5761,7.61600768067078,7.61600768067078,7.2614625084207765,0.0,0.0,0.0,7.497825956587445,0.0,0.0,0.0,0.0,0.0,0.0,0.0,0.0,0.0,0.0,0.0,0.0,0.0,0.0,
1.5885,7.634791577842898,7.634791577842898,7.274068149569162,0.0,0.0,0.0,7.514550435084986,0.0,0.0,0.0,0.0,0.0,0.0,0.0,0.0,0.0,0.0,0.0,0.0,0.0,0.0,
1.6009,7.6539379361074324,7.6539379361074324,7.286848453474066,0.0,0.0,0.0,7.531574775229643,0.0,0.0,0.0,0.0,0.0,0.0,0.0,0.0,0.0,0.0,0.0,0.0,0.0,0.0,
1.6133,7.673457774661828,7.673457774661828,7.299806118870945,0.0,0.0,0.0,7.5489072227315335,0.0,0.0,0.0,0.0,0.0,0.0,0.0,0.0,0.0,0.0,0.0,0.0,0.0,0.0,
1.6257,7.693362727152561,7.693362727152561,7.312943922058858,0.0,0.0,0.0,7.566556458787993,0.0,0.0,0.0,0.0,0.0,0.0,0.0,0.0,0.0,0.0,0.0,0.0,0.0,0.0,
1.6381,7.713665091819418,7.713665091819418,7.32626472016414,0.0,0.0,0.0,7.584531634600992,0.0,0.0,0.0,0.0,0.0,0.0,0.0,0.0,0.0,0.0,0.0,0.0,0.0,0.0,
