energies(eV),real_xx,real_yy,real_zz,real_xy,real_yz,real_xz,real_ave,imag_xx,imag_yy,imag_zz,imag_xy,imag_yz,imag_xz,imag_ave,absorption_xx,absorption_yy,absorption_zz,absorption_xy,absorption_yz,absorption_xz,absorption_ave,band_gap
0.0,2.1124669112528514,2.08811672508236,2.1431789532284564,-0.0011278067889852039,0.02488418410042247,0.02203777485829361,2.1145875298545556,0.0,0.0,0.0,0.0,0.0,0.0,0.0,0.0,0.0,0.0,0.0,0.0,0.0,0.0,5.2537
0.0136,2.112468858528298,2.0881186189877243,2.143181022487761,-0.001127809955994278,0.02488425481048395,0.02203785780493629,2.114589500001261,0.0,0.0,0.0,0.0,0.0,0.0,0.0,0.0,0.0,0.0,46.291408565858255,0.0,0.0,0.0,
0.0273,2.1124747577976066,2.088124356572208,2.143187291307277,-0.001127819550875731,0.024884469026580026,0.02203810909224491,2.1145954685590307,0.0,0.0,0.0,0.0,0.0,0.0,0.0,0.0,0.0,0.0,92.92359040865372,0.0,0.0,0.0,
0.0409,2.1124845231329754,2.0881338542625576,2.143197668376999,-0.0011278354351519806,0.024884823628550126,0.022038525061574877,2.114605348590844,0.0,0.0,0.0,0.0,0.0,0.0,0.0,0.0,0.0,0.0,139.21617624096962,0.0,0.0,0.0,
0.0546,2.112498298467181,2.088147252045778,2.14321230664713,-0.0011278578450991277,0.024885323843054356,0.022039111846597254,2.1146192857200297,0.0,0.0,0.0,0.0,0.0,0.0,0.0,0.0,0.0,0.0,185.85033593775353,0.0,0.0,0.0,
0.0682,2.112515883151022,2.088164354770756,2.1432309929005244,-0.0011278864572871734,0.0248859623842293,0.022039860903954434,2.114637076940767,0.0,0.0,0.0,0.0,0.0,0.0,0.0,0.0,0.0,0.0,232.1456718575766,0.0,0.0,0.0,
0.0819,2.1125375363679364,2.088185414515623,2.1432540025585984,-0.0011279216973185838,0.024886748663862947,0.022040783278867417,2.114658984480719,0.0,0.0,0.0,0.0,0.0,0.0,0.0,0.0,0.0,0.0,278.7833950530197,0.0,0.0,0.0,
0.0955,2.1125629427209818,2.088210124525861,2.143281000468934,-0.0011279630565949389,0.02488767122941993,0.02204186554193031,2.1146846892385924,0.0,0.0,0.0,0.0,0.0,0.0,0.0,0.0,0.0,0.0,325.08305679724225,0.0,0.0,0.0,
0.1092,2.1125924766786355,2.0882388490040995,2.1433123845608555,-0.0011280111503313712,0.024888743679075908,0.022043123651656886,2.114714570081197,0.0,0.0,0.0,0.0,0.0,0.0,0.0,0.0,0.0,0.0,371.7259329143053,0.0,0.0,0.0,
0.1228,2.112625708054799,2.0882711695522262,2.143347697702512,-0.001128065284421477,0.024889950392101293,0.02204453929049137,2.114748191769846,0.0,0.0,0.0,0.0,0.0,0.0,0.0,0.0,0.0,0.0,418.03150080641484,0.0,0.0,0.0,
0.1364,2.112662839183985,2.0883072829561096,2.143387154906871,-0.001128125795530661,0.02489129871616682,0.022046121086394633,2.114785759015655,0.0,0.0,0.0,0.0,0.0,0.0,0.0,0.0,0.0,0.0,464.34060256541363,0.0,0.0,0.0,
0.1501,2.1127041874405235,2.088347497887578,2.1434310934339837,-0.0011281932093097277,0.024892800176408075,0.022047882569888967,2.114827592920695,0.0,0.0,0.0,0.0,0.0,0.0,0.0,0.0,0.0,0.0,510.99418535737556,0.0,0.0,0.0,
0.1637,2.112749150554322,2.088391228580569,2.1434788732885677,-0.0011282665528237897,0.024894432903377305,0.02204979809454574,2.114873084141153,0.0,0.0,0.0,0.0,0.0,0.0,0.0,0.0,0.0,0.0,557.3115730964239,0.0,0.0,0.0,
0.1774,2.1127983912459287,2.088439119586528,2.143531198712278,-0.0011283469170604668,0.024896220962730066,0.022051895905813045,2.114922903181578,0.0,0.0,0.0,0.0,0.0,0.0,0.0,0.0,0.0,0.0,603.9743070218015,0.0,0.0,0.0,
0.191,2.1128511922866595,2.088490473331463,2.1435873075497693,-0.0011284331421858712,0.024898138310594866,0.02205414546051731,2.1149763243892976,0.0,0.0,0.0,0.0,0.0,0.0,0.0,0.0,0.0,0.0,650.3015798594803,0.0,0.0,0.0,
0.2047,2.112908331922977,2.0885460467249004,2.143648026807231,-0.0011285265108086438,0.024900213207836377,0.02205657992960905,2.115034135151703,0.0,0.0,0.0,0.0,0.0,0.0,0.0,0.0,0.0,0.0,696.9750808605153,0.0,0.0,0.0,
0.2183,2.1129689778732317,2.088605030293447,2.1437124720687466,-0.0011286256754204753,0.024902415432693267,0.022059163868385055,2.1150954934118085,0.0,0.0,0.0,0.0,0.0,0.0,0.0,0.0,0.0,0.0,743.3138483970844,0.0,0.0,0.0,
0.2319,2.113033534840049,2.0886678176410065,2.143781073396169,-0.001128731310381647,0.0249047596817238,0.02206191453530823,2.1151608086257414,0.0,0.0,0.0,0.0,0.0,0.0,0.0,0.0,0.0,0.0,789.658946606083,0.0,0.0,0.0,
0.2456,2.1131025228989264,2.088734914580569,2.143854383453427,-0.0011288442818088273,0.0249072648411586,0.02206485410828966,2.1152306069776405,0.0,0.0,0.0,0.0,0.0,0.0,0.0,0.0,0.0,0.0,836.3516278575894,0.0,0.0,0.0,
0.2592,2.1131749371897803,2.0888053437911913,2.143931334434162,-0.0011289629592997996,0.02490989442234831,0.02206793978867453,2.1153038718050445,0.0,0.0,0.0,0.0,0.0,0.0,0.0,0.0,0.0,0.0,882.7106555612384,0.0,0.0,0.0,
0.2729,2.113251845048074,2.0888801433428714,2.1440130605485606,-0.001129089108225209,0.02491268718427772,0.022071217076766687,2.1153816829798355,0.0,0.0,0.0,0.0,0.0,0.0,0.0,0.0,0.0,0.0,929.4181944414427,0.0,0.0,0.0,
0.2865,2.1133321262585696,2.0889582237222015,2.1440983714076,-0.0011292209080194758,0.024915602449307354,0.022074638257056627,2.115462907129457,0.0,0.0,0.0,0.0,0.0,0.0,0.0,0.0,0.0,0.0,975.7927949133413,0.0,0.0,0.0,
0.3002,2.1134169641121767,2.0890407357738114,2.144188524443643,-0.0011293603192681627,0.02491868318735028,0.022078253777119958,2.1155487414432104,0.0,0.0,0.0,0.0,0.0,0.0,0.0,0.0,0.0,0.0,1022.5168548764976,0.0,0.0,0.0,
0.3138,2.113505122890788,2.089126477648546,2.144282206527561,-0.001129505330022872,0.02492188452635316,0.022082010997100186,2.115637935688965,0.0,0.0,0.0,0.0,0.0,0.0,0.0,0.0,0.0,0.0,1068.908687904997,0.0,0.0,0.0,
0.3275,2.1135979019985616,2.089216713118663,2.144380798481974,-0.0011296580974078845,0.024925253652926974,0.022085965319839463,2.115731804533066,0.0,0.0,0.0,0.0,0.0,0.0,0.0,0.0,0.0,0.0,1115.6509499262306,0.0,0.0,0.0,
0.3411,2.1136939500513288,2.0893101278410384,2.14448286426377,-0.0011298164167433066,0.02492874149461708,0.02209005917286265,2.1158289807187125,0.0,0.0,0.0,0.0,0.0,0.0,0.0,0.0,0.0,0.0,1162.0616935755602,0.0,0.0,0.0,
0.3547,2.113793932990318,2.089407369490739,2.144589111545774,-0.001129981405232188,0.024932372234930673,0.022094320963997476,2.1159301380089435,0.0,0.0,0.0,0.0,0.0,0.0,0.0,0.0,0.0,0.0,1208.4824902665334,0.0,0.0,0.0,
0.3684,2.1138986328356006,2.089509198636522,2.1447003713550554,-0.0011301543777368528,0.024936174272885588,0.022098784056300752,2.1160360676090595,0.0,0.0,0.0,0.0,0.0,0.0,0.0,0.0,0.0,0.0,1255.2552103256305,0.0,0.0,0.0,
0.382,2.1140065245767277,2.0896141320715254,2.1448150231413114,-0.0011303328380244664,0.024940092230680798,0.022103383470211065,2.1161452265965215,0.0,0.0,0.0,0.0,0.0,0.0,0.0,0.0,0.0,0.0,1301.6974697524224,0.0,0.0,0.0,
0.3957,2.114119198480532,2.089723716448536,2.144934756820798,-0.0011305194408708864,0.024944183857902518,0.022108187027802883,2.116259223916622,0.0,0.0,0.0,0.0,0.0,0.0,0.0,0.0,0.0,0.0,1348.492679524153,0.0,0.0,0.0,
0.4093,2.1142350133952377,2.089836355605752,2.1450578284226975,-0.0011307114933699145,0.024948389558917868,0.022113124792796313,2.116376399141229,0.0,0.0,0.0,0.0,0.0,0.0,0.0,0.0,0.0,0.0,1394.9581332362359,0.0,0.0,0.0,
0.423,2.114355676376633,2.0899537097788747,2.1451860519733756,-0.0011309118525292675,0.02495277132469714,0.02211826957676815,2.1164984793762947,0.0,0.0,0.0,0.0,0.0,0.0,0.0,0.0,0.0,0.0,1441.7775891618066,0.0,0.0,0.0,
0.4366,2.114479429913941,2.0900740696401465,2.1453175598496053,-0.0011311176269586333,0.02495726533380081,0.022123546475688923,2.116623686467898,0.0,0.0,0.0,0.0,0.0,0.0,0.0,0.0,0.0,0.0,1488.267993312982,0.0,0.0,0.0,
0.4503,2.1146080980808435,2.0901992092301542,2.145454290431673,-0.0011313318778348183,0.02496193782693763,0.022129033302233047,2.1167538659142235,0.0,0.0,0.0,0.0,0.0,0.0,0.0,0.0,0.0,0.0,1535.1134775548671,0.0,0.0,0.0,
0.4639,2.1147398067742054,2.09032730582884,2.145594252195277,-0.0011315515133370694,0.024966720748314245,0.02213465017279171,2.1168871215994405,0.0,0.0,0.0,0.0,0.0,0.0,0.0,0.0,0.0,0.0,1581.630614768518,0.0,0.0,0.0,
0.4775,2.1148754849844673,2.0904592629382277,2.1457384323526796,-0.0011317781088753924,0.024971647834418242,0.022140436736264018,2.1170243934251247,0.0,0.0,0.0,0.0,0.0,0.0,0.0,0.0,0.0,0.0,1628.1617435128187,0.0,0.0,0.0,
0.4912,2.1150161788051722,2.0905960979473335,2.1458879425615383,-0.0011320134461566482,0.02497675707466094,0.022146437648671666,2.117166739771348,0.0,0.0,0.0,0.0,0.0,0.0,0.0,0.0,0.0,0.0,1675.0496183664743,0.0,0.0,0.0,
0.5048,2.1151598389867994,2.090735817798162,2.1460406051705783,-0.0011322541291392575,0.024981974052219656,0.02215256554226445,2.1173120873185134,0.0,0.0,0.0,0.0,0.0,0.0,0.0,0.0,0.0,0.0,1721.610204517886,0.0,0.0,0.0,
0.5185,2.1153085830391873,2.0908804819074467,2.1461986703949054,-0.0011325037384407,0.02498737566468369,0.022158910779306405,2.1174625784471797,0.0,0.0,0.0,0.0,0.0,0.0,0.0,0.0,0.0,0.0,1768.5286846960953,0.0,0.0,0.0,
0.5321,2.115460244467767,2.0910279831919754,2.1463598359868166,-0.0011327586721228788,0.02499288323699909,0.022165380979392836,2.1176160212155195,0.0,0.0,0.0,0.0,0.0,0.0,0.0,0.0,0.0,0.0,1815.1205853466076,0.0,0.0,0.0,
0.5458,2.115617058728239,2.0911804957732434,2.1465264775036457,-0.0011330227228696006,0.02499857795031091,0.022172071552879195,2.1177746773350425,0.0,0.0,0.0,0.0,0.0,0.0,0.0,0.0,0.0,0.0,1862.0715580849694,0.0,0.0,0.0,
0.5594,2.115776741791634,2.091335798262158,2.146696167792968,-0.0011332920804113702,0.025004376860756544,0.02217888509204185,2.1179362359489198,0.0,0.0,0.0,0.0,0.0,0.0,0.0,0.0,0.0,0.0,1908.6966635604886,0.0,0.0,0.0,
0.573,2.115940428937016,2.0914949947806942,2.1468701132914916,-0.001133568691204443,0.02501032119660426,0.022185870074831335,2.118101845669734,0.0,0.0,0.0,0.0,0.0,0.0,0.0,0.0,0.0,0.0,1955.3390269198767,0.0,0.0,0.0,
0.5867,2.116109373568986,2.091659304329235,2.147049645970097,-0.001133854716709496,0.025016456476297952,0.022193080038094757,2.1182727746227727,0.0,0.0,0.0,0.0,0.0,0.0,0.0,0.0,0.0,0.0,2002.3422864525437,0.0,0.0,0.0,
0.6003,2.1162811149950373,2.091826333709513,2.147232150933212,-0.0011341460296689482,0.02502269333950326,0.022200410013096618,2.1184465332125875,0.0,0.0,0.0,0.0,0.0,0.0,0.0,0.0,0.0,0.0,2049.020753254269,0.0,0.0,0.0,
0.614,2.1164581846758592,2.0919985449102017,2.147420318308532,-0.0011344469641746818,0.02502912371775089,0.022207968089845338,2.118625682631531,0.0,0.0,0.0,0.0,0.0,0.0,0.0,0.0,0.0,0.0,2096.0613751417295,0.0,0.0,0.0,
0.6276,2.1166380035900234,2.0921734296567114,2.1476114074494808,-0.001134753177918628,0.02503565395289871,0.022215644232039967,2.1188076135654055,0.0,0.0,0.0,0.0,0.0,0.0,0.0,0.0,0.0,0.0,2142.7779276074534,0.0,0.0,0.0,
0.6413,2.1168232222739025,2.0923535657380787,2.147808235028962,-0.001135069226769911,0.02504238030110668,0.022223551634971563,2.1189950076803146,0.0,0.0,0.0,0.0,0.0,0.0,0.0,0.0,0.0,0.0,2189.857928747998,0.0,0.0,0.0,
0.6549,2.1170111430301377,2.092536329466884,2.1480079342798173,-0.0011353905504192182,0.025049204793775162,0.022231575177198735,2.11918513559228,0.0,0.0,0.0,0.0,0.0,0.0,0.0,0.0,0.0,0.0,2236.614589541419,0.0,0.0,0.0,
0.6686,2.1172045358317106,2.092724414782512,2.148213448804447,-0.0011357219296371564,0.025056228024791228,0.02223983317755972,2.119380799806223,0.0,0.0,0.0,0.0,0.0,0.0,0.0,0.0,0.0,0.0,2283.736028652813,0.0,0.0,0.0,
0.6822,2.1174005839415333,2.0929150822319063,2.1484217853276446,-0.0011360585830093226,0.025063347701846823,0.02224820541105038,2.1195791505003614,0.0,0.0,0.0,0.0,0.0,0.0,0.0,0.0,0.0,0.0,2330.53486303554,0.0,0.0,0.0,
0.6958,2.1176006907258396,2.0931096966492877,2.148634435189615,-0.0011364029585750129,0.025070614789258018,0.02225675185168825,2.1197816075215807,0.0,0.0,0.0,0.0,0.0,0.0,0.0,0.0,0.0,0.0,2377.355491500344,0.0,0.0,0.0,
0.7095,2.1178063792912885,2.0933097393131828,2.1488530169841056,-0.0011367577333054348,0.02507808460017074,0.022265537614116673,2.119989711862859,0.0,0.0,0.0,0.0,0.0,0.0,0.0,0.0,0.0,0.0,2424.5429608840464,0.0,0.0,0.0,
0.7231,2.1180146538413416,2.0935122966380093,2.1490743471411067,-0.0011371177883837574,0.025085648338513396,0.022274434790991133,2.1202004325401527,0.0,0.0,0.0,0.0,0.0,0.0,0.0,0.0,0.0,0.0,2471.4089415826766,0.0,0.0,0.0,
0.7368,2.118228584411667,2.093720354364989,2.149301688153145,-0.0011374884811291978,0.025093417495788143,0.022283574586125898,2.120416875643267,0.0,0.0,0.0,0.0,0.0,0.0,0.0,0.0,0.0,0.0,2518.643189191575,0.0,0.0,0.0,
0.7504,2.11844505518264,2.093930882189346,2.1495317288951163,-0.0011378644631772046,0.0251012789164555,0.022292823938833285,2.1206358887557006,0.0,0.0,0.0,0.0,0.0,0.0,0.0,0.0,0.0,0.0,2565.556703535028,0.0,0.0,0.0,
0.7641,2.1186672570253546,2.0941469833590043,2.1497678602778687,-0.001138251328956769,0.025109348480397548,0.02230231924722905,2.1208607002207427,0.0,0.0,0.0,0.0,0.0,0.0,0.0,0.0,0.0,0.0,2612.8399519712098,0.0,0.0,0.0,
0.7777,2.118891953673166,2.0943655104389247,2.1500066431698315,-0.0011386434968923126,0.02511750865721478,0.02231192227582834,2.1210880357606405,0.0,0.0,0.0,0.0,0.0,0.0,0.0,0.0,0.0,0.0,2659.803231894824,0.0,0.0,0.0,
0.7914,2.1191224572721152,2.094589684609967,2.1502515973679914,-0.001139046802391759,0.025125879731052705,0.022321774639273567,2.121321246416691,0.0,0.0,0.0,0.0,0.0,0.0,0.0,0.0,0.0,0.0,2707.137755851124,0.0,0.0,0.0,
0.805,2.1193554106670334,2.0948162408786914,2.150499155264302,-0.0011394554268378486,0.025134339780638844,0.022331732904942673,2.121556935603342,0.0,0.0,0.0,0.0,0.0,0.0,0.0,0.0,0.0,0.0,2754.15308620123,0.0,0.0,0.0,
0.8186,2.1195924892143747,2.095046808576086,2.1507510972562587,-0.0011398723540943065,0.025142949647479644,0.022341868740292578,2.1217967983489063,0.0,0.0,0.0,0.0,0.0,0.0,0.0,0.0,0.0,0.0,2801.195216175561,0.0,0.0,0.0,
0.8323,2.119835489977556,2.095283135384352,2.1510093330878632,-0.0011403008142034348,0.025151774593037135,0.022352259052857603,2.1220426528165905,0.0,0.0,0.0,0.0,0.0,0.0,0.0,0.0,0.0,0.0,2848.6109358742583,0.0,0.0,0.0,
0.8459,2.1200808738248482,2.095521779348882,2.151270101750796,-0.0011407346258770492,0.025160686086431596,0.022362752580063948,2.1222909183081757,0.0,0.0,0.0,0.0,0.0,0.0,0.0,0.0,0.0,0.0,2895.7086437271996,0.0,0.0,0.0,
0.8596,2.1203322579068784,2.0957662582441396,2.1515372471910186,-0.0011411802445933136,0.025169815487957797,0.02237350407139131,2.1225452544473455,0.0,0.0,0.0,0.0,0.0,0.0,0.0,0.0,0.0,0.0,2943.1815652156583,0.0,0.0,0.0,
0.8732,2.1205859810221215,2.0960130114117077,2.151806878666456,-0.0011416312416975471,0.025179029833100976,0.022384357007379906,2.122801957033428,0.0,0.0,0.0,0.0,0.0,0.0,0.0,0.0,0.0,0.0,2990.3372787949634,0.0,0.0,0.0,
0.8869,2.1208457832770327,2.096265676188761,2.152082970797475,-0.0011420943285864764,0.025188464946995018,0.02239547143898195,2.1230648100877563,0.0,0.0,0.0,0.0,0.0,0.0,0.0,0.0,0.0,0.0,3037.8698785385004,0.0,0.0,0.0,
0.9005,2.121107880895542,2.096520572723641,2.152361502571136,-0.0011425628247935156,0.025197983413253466,0.02240668556433041,2.1233299853967726,0.0,0.0,0.0,0.0,0.0,0.0,0.0,0.0,0.0,0.0,3085.086087433182,0.0,0.0,0.0,
0.9142,2.1213761374623052,2.0967814584226967,2.1526465798377705,-0.0011430437023230396,0.02520772554062569,0.02241816476223482,2.1236013919075907,0.0,0.0,0.0,0.0,0.0,0.0,0.0,0.0,0.0,0.0,3132.68090543031,0.0,0.0,0.0,
0.9278,2.121646646103372,2.0970445337336026,2.1529340507567225,-0.0011435300242663897,0.02521754944196794,0.022429741921966055,2.123875076864566,0.0,0.0,0.0,0.0,0.0,0.0,0.0,0.0,0.0,0.0,3179.9601636448597,0.0,0.0,0.0,
0.9414,2.1219213588824757,2.097311697057802,2.1532259898007426,-0.0011440253524332255,0.025227526005761572,0.022441500642748295,2.1241530152470065,0.0,0.0,0.0,0.0,0.0,0.0,0.0,0.0,0.0,0.0,3227.271804883942,0.0,0.0,0.0,
0.9551,2.1222023519071587,2.097584967413673,2.15352460327479,-0.0011445335157098415,0.025237730624522402,0.022453529881942155,2.1244373075318737,0.0,0.0,0.0,0.0,0.0,0.0,0.0,0.0,0.0,0.0,3274.964734858084,0.0,0.0,0.0,
0.9687,2.122485532861578,2.0978603649276497,2.153825542250543,-0.0011450471839147941,0.02524801467638712,0.022465654523676135,2.12472381334659,0.0,0.0,0.0,0.0,0.0,0.0,0.0,0.0,0.0,0.0,3322.3433783026317,0.0,0.0,0.0,
0.9824,2.122775076207691,2.098141949293752,2.1541332429736966,-0.0011455740018672144,0.025258529757311108,0.02247805337822926,2.1250167561583795,0.0,0.0,0.0,0.0,0.0,0.0,0.0,0.0,0.0,0.0,3370.1051675524072,0.0,0.0,0.0,
0.996,2.123066765141567,2.0984256195897855,2.1544432242092566,-0.0011461063705388171,0.025269122724619304,0.022490545950620847,2.1253118696468696,0.0,0.0,0.0,0.0,0.0,0.0,0.0,0.0,0.0,0.0,3417.553540294237,0.0,0.0,0.0,
1.0097,2.1233648995823264,2.0987155574976617,2.1547600555372384,-0.0011466522133192051,0.025279949728797338,0.022503316478890725,2.125613504205742,0.0,0.0,0.0,0.0,0.0,0.0,0.0,0.0,0.0,0.0,3465.3869730423653,0.0,0.0,0.0,
1.0233,2.1236651376475835,2.099007540474174,2.1550791227881163,-0.0011472036570200135,0.025290853085151693,0.02251617905913216,2.125917266969958,0.0,0.0,0.0,0.0,0.0,0.0,0.0,0.0,0.0,0.0,3512.9078765345275,0.0,0.0,0.0,
1.0369,2.1239696504016825,2.0993036798662277,2.1554027331830015,-0.0011477647475672647,0.025301911631957923,0.022529226762002464,2.126225354483637,0.0,0.0,0.0,0.0,0.0,0.0,0.0,0.0,0.0,0.0,3560.4659819079434,0.0,0.0,0.0,
1.0506,2.12428073504013,2.099606209661525,2.1557333279946196,-0.0011483398169995188,0.025313208786233624,0.022542558121649847,2.126540090898758,0.0,0.0,0.0,0.0,0.0,0.0,0.0,0.0,0.0,0.0,3608.4121265081762,0.0,0.0,0.0,
1.0642,2.12459386114401,2.099910723995082,2.1560660926743322,-0.0011489205709954444,0.025324580017407308,0.02255597907272234,2.126856892604475,0.0,0.0,0.0,0.0,0.0,0.0,0.0,0.0,0.0,0.0,3656.0471054631676,0.0,0.0,0.0,
1.0779,2.1249136447562633,2.1002217119231323,2.1564059327750833,-0.001149515653812867,0.025336192950705598,0.022569687549460368,2.1271804298181594,0.0,0.0,0.0,0.0,0.0,0.0,0.0,0.0,0.0,0.0,3704.0721897159315,0.0,0.0,0.0,
1.0915,2.1252354288177067,2.1005346444454167,2.156747899152942,-0.0011501164827828606,0.025347878457577397,0.022583483998740567,2.1275059908053553,0.0,0.0,0.0,0.0,0.0,0.0,0.0,0.0,0.0,0.0,3751.7870428893784,0.0,0.0,0.0,
1.1052,2.1255639570524867,2.100854134762245,2.1570970330589354,-0.0011507320012920758,0.02535980879706957,0.02259757189472852,2.127838374957889,0.0,0.0,0.0,0.0,0.0,0.0,0.0,0.0,0.0,0.0,3799.8941320642684,0.0,0.0,0.0,
1.1188,2.1258944451002995,2.1011755300974118,2.1574482500513668,-0.001151353332264243,0.025371810219035354,0.022611746163185637,2.1281727417496925,0.0,0.0,0.0,0.0,0.0,0.0,0.0,0.0,0.0,0.0,3847.6919454345266,0.0,0.0,0.0,
1.1325,2.1262317650491758,2.1015035684570798,2.1578067278046484,-0.001151989724603354,0.025384059640593454,0.022626215852606366,2.128514020436968,0.0,0.0,0.0,0.0,0.0,0.0,0.0,0.0,0.0,0.0,3895.8841924458106,0.0,0.0,0.0,
1.1461,2.1265710045560455,2.1018334726282406,2.1581672458547723,-0.0011526320005395068,0.025396378665679193,0.022640770333252205,2.1288572410130193,0.0,0.0,0.0,0.0,0.0,0.0,0.0,0.0,0.0,0.0,3943.768140684506,0.0,0.0,0.0,
1.1597,2.1269146219345902,2.102167633248821,2.158532416703724,-0.0011532848809701576,0.02540885655582415,0.02265551513932406,2.1292048906290453,0.0,0.0,0.0,0.0,0.0,0.0,0.0,0.0,0.0,0.0,3991.6962117910293,0.0,0.0,0.0,
1.1734,2.127265204682983,2.1025085665575896,2.158904990149524,-0.0011539534013672843,0.025421587259896395,0.0226705614224297,2.129559587130032,0.0,0.0,0.0,0.0,0.0,0.0,0.0,0.0,0.0,0.0,4040.022139444579,0.0,0.0,0.0,
1.187,2.1276176473964847,2.102851307632627,2.1592795405389404,-0.001154627921197886,0.025434385374385624,0.022685690163097065,2.129916165189351,0.0,0.0,0.0,0.0,0.0,0.0,0.0,0.0,0.0,0.0,4088.041275153653,0.0,0.0,0.0,
1.2007,2.127977145961892,2.1032009092948845,2.1596615896736457,-0.001155318482097598,0.02544743956375951,0.022701124492811586,2.130279881643474,0.0,0.0,0.0,0.0,0.0,0.0,0.0,0.0,0.0,0.0,4136.460642832534,0.0,0.0,0.0,
1.2143,2.1283384651954673,2.1035522804442133,2.160045573969357,-0.0011560151261042584,0.02546055971468646,0.0227166397460456,2.1306454398696792,0.0,0.0,0.0,0.0,0.0,0.0,0.0,0.0,0.0,0.0,4184.5742547128575,0.0,0.0,0.0,
1.228,2.1287069319070007,2.1039106011883306,2.1604371543691565,-0.0011567282246452602,0.025473939240259157,0.022732464757491015,2.131018229154829,0.0,0.0,0.0,0.0,0.0,0.0,0.0,0.0,0.0,0.0,4233.090549592625,0.0,0.0,0.0,
