energies(eV),real_xx,real_yy,real_zz,real_xy,real_yz,real_xz,real_ave,imag_xx,imag_yy,imag_zz,imag_xy,imag_yz,imag_xz,imag_ave,absorption_xx,absorption_yy,absorption_zz,absorption_xy,absorption_yz,absorption_xz,absorption_ave,band_gap
0.0,2.4226551862618466,2.380451496512946,2.376415507320597,0.0,0.0,0.0,2.3931740633651297,0.0,0.0,0.0,0.0,0.0,0.0,0.0,0.0,0.0,0.0,0.0,0.0,0.0,0.0,5.1772
0.0143,2.422657547545673,2.380453623623139,2.3764176791453564,0.0,0.0,0.0,2.393176283438056,0.0,0.0,0.0,0.0,0.0,0.0,0.0,0.0,0.0,0.0,0.0,0.0,0.0,0.0,
0.0285,2.422664565539895,2.380459945622264,2.376424134043641,0.0,0.0,0.0,2.393182881735267,0.0,0.0,0.0,0.0,0.0,0.0,0.0,0.0,0.0,0.0,0.0,0.0,0.0,0.0,
0.0428,2.4226763393229893,2.380470551746388,2.3764349631356367,0.0,0.0,0.0,2.3931939514016713,0.0,0.0,0.0,0.0,0.0,0.0,0.0,0.0,0.0,0.0,0.0,0.0,0.0,0.0,
0.0571,2.4226928363766103,2.380485412674552,2.3764501364977084,0.0,0.0,0.0,2.3932094618496236,0.0,0.0,0.0,0.0,0.0,0.0,0.0,0.0,0.0,0.0,0.0,0.0,0.0,0.0,
0.0713,2.422713892448422,2.3805043804065815,2.3764695030369767,0.0,0.0,0.0,2.3932292586306603,0.0,0.0,0.0,0.0,0.0,0.0,0.0,0.0,0.0,0.0,0.0,0.0,0.0,0.0,
0.0856,2.422739804803447,2.3805277226753843,2.3764933361401717,0.0,0.0,0.0,2.3932536212063344,0.0,0.0,0.0,0.0,0.0,0.0,0.0,0.0,0.0,0.0,0.0,0.0,0.0,0.0,
0.0998,2.422770211879447,2.380555113720047,2.3765213032261343,0.0,0.0,0.0,2.3932822096085427,0.0,0.0,0.0,0.0,0.0,0.0,0.0,0.0,0.0,0.0,0.0,0.0,0.0,0.0,
0.1141,2.4228055429571924,2.3805869401702617,2.376553799090993,0.0,0.0,0.0,2.393315427406149,0.0,0.0,0.0,0.0,0.0,0.0,0.0,0.0,0.0,0.0,0.0,0.0,0.0,0.0,
0.1284,2.422845601600523,2.3806230249907068,2.376590643017784,0.0,0.0,0.0,2.393353089869671,0.0,0.0,0.0,0.0,0.0,0.0,0.0,0.0,0.0,0.0,0.0,0.0,0.0,0.0,
0.1426,2.422890059519778,2.380663072367648,2.3766315330148506,0.0,0.0,0.0,2.393394888300759,0.0,0.0,0.0,0.0,0.0,0.0,0.0,0.0,0.0,0.0,0.0,0.0,0.0,0.0,
0.1569,2.4229395443634747,2.380707647577936,2.376677046304788,0.0,0.0,0.0,2.3934414127487327,0.0,0.0,0.0,0.0,0.0,0.0,0.0,0.0,0.0,0.0,0.0,0.0,0.0,0.0,
0.1712,2.4229937612304524,2.380756484859412,2.376726911591983,0.0,0.0,0.0,2.393492385893949,0.0,0.0,0.0,0.0,0.0,0.0,0.0,0.0,0.0,0.0,0.0,0.0,0.0,0.0,
0.1854,2.423052283242072,2.3808091995685077,2.376780736196652,0.0,0.0,0.0,2.393547406335744,0.0,0.0,0.0,0.0,0.0,0.0,0.0,0.0,0.0,0.0,0.0,0.0,0.0,0.0,
0.1997,2.423115936602703,2.380866535785291,2.376839279933835,0.0,0.0,0.0,2.393607250773943,0.0,0.0,0.0,0.0,0.0,0.0,0.0,0.0,0.0,0.0,0.0,0.0,0.0,0.0,
0.214,2.4231843278594436,2.3809281389486032,2.376902180852648,0.0,0.0,0.0,2.3936715492202314,0.0,0.0,0.0,0.0,0.0,0.0,0.0,0.0,0.0,0.0,0.0,0.0,0.0,0.0,
0.2282,2.423256931418549,2.380993535480271,2.3769689554737763,0.0,0.0,0.0,2.393739807457532,0.0,0.0,0.0,0.0,0.0,0.0,0.0,0.0,0.0,0.0,0.0,0.0,0.0,0.0,
0.2425,2.42333477228801,2.381063648469124,2.3770405464233937,0.0,0.0,0.0,2.393812989060176,0.0,0.0,0.0,0.0,0.0,0.0,0.0,0.0,0.0,0.0,0.0,0.0,0.0,0.0,
0.2567,2.423416764340621,2.381137499435675,2.377115954685891,0.0,0.0,0.0,2.3938900728207293,0.0,0.0,0.0,0.0,0.0,0.0,0.0,0.0,0.0,0.0,0.0,0.0,0.0,0.0,
0.271,2.4235040651322572,2.3812161308070445,2.3771962447664654,0.0,0.0,0.0,2.3939721469019224,0.0,0.0,0.0,0.0,0.0,0.0,0.0,0.0,0.0,0.0,0.0,0.0,0.0,0.0,
0.2853,2.4235961167621562,2.3812990398670513,2.377280903452676,0.0,0.0,0.0,2.394058686693961,0.0,0.0,0.0,0.0,0.0,0.0,0.0,0.0,0.0,0.0,0.0,0.0,0.0,0.0,
0.2995,2.4236922288287612,2.381385604583614,2.37736929568588,0.0,0.0,0.0,2.3941490430327517,0.0,0.0,0.0,0.0,0.0,0.0,0.0,0.0,0.0,0.0,0.0,0.0,0.0,0.0,
0.3138,2.423793758237614,2.3814770468455277,2.377462669264243,0.0,0.0,0.0,2.3942444914491285,0.0,0.0,0.0,0.0,0.0,0.0,0.0,0.0,0.0,0.0,0.0,0.0,0.0,0.0,
0.3281,2.423900048162304,2.3815727748268705,2.377560419989748,0.0,0.0,0.0,2.3943444143263073,0.0,0.0,0.0,0.0,0.0,0.0,0.0,0.0,0.0,0.0,0.0,0.0,0.0,0.0,
0.3423,2.424010309006469,2.3816720771622686,2.3776618215805865,0.0,0.0,0.0,2.3944480692497745,0.0,0.0,0.0,0.0,0.0,0.0,0.0,0.0,0.0,0.0,0.0,0.0,0.0,0.0,
0.3566,2.4241260974336205,2.3817763555408904,2.3777683054881233,0.0,0.0,0.0,2.394556919487545,0.0,0.0,0.0,0.0,0.0,0.0,0.0,0.0,0.0,0.0,0.0,0.0,0.0,0.0,
0.3709,2.424246657497555,2.3818849288656287,2.3778791763573306,0.0,0.0,0.0,2.3946702542401717,0.0,0.0,0.0,0.0,0.0,0.0,0.0,0.0,0.0,0.0,0.0,0.0,0.0,0.0,
0.3851,2.4243711001728094,2.3819969962432945,2.3779936164763282,0.0,0.0,0.0,2.3947872376308106,0.0,0.0,0.0,0.0,0.0,0.0,0.0,0.0,0.0,0.0,0.0,0.0,0.0,0.0,
0.3994,2.4245011823500775,2.3821141395524092,2.378113241363694,0.0,0.0,0.0,2.3949095210887266,0.0,0.0,0.0,0.0,0.0,0.0,0.0,0.0,0.0,0.0,0.0,0.0,0.0,0.0,
0.4136,2.42463508899656,2.382234723990159,2.3782363817369045,0.0,0.0,0.0,2.3950353982412076,0.0,0.0,0.0,0.0,0.0,0.0,0.0,0.0,0.0,0.0,0.0,0.0,0.0,0.0,
0.4279,2.4247747106223327,2.3823604516617722,2.378364775938909,0.0,0.0,0.0,2.395166646074338,0.0,0.0,0.0,0.0,0.0,0.0,0.0,0.0,0.0,0.0,0.0,0.0,0.0,0.0,
0.4422,2.4249191256469684,2.3824904923292456,2.3784975763053406,0.0,0.0,0.0,2.3953023980938517,0.0,0.0,0.0,0.0,0.0,0.0,0.0,0.0,0.0,0.0,0.0,0.0,0.0,0.0,
0.4564,2.4250672788054666,2.382623895456296,2.378633812280748,0.0,0.0,0.0,2.3954416621808368,0.0,0.0,0.0,0.0,0.0,0.0,0.0,0.0,0.0,0.0,0.0,0.0,0.0,0.0,
0.4707,2.425221261753357,2.3827625440986684,2.3787754070852998,0.0,0.0,0.0,2.3955864043124415,0.0,0.0,0.0,0.0,0.0,0.0,0.0,0.0,0.0,0.0,0.0,0.0,0.0,0.0,
0.485,2.4253800531271557,2.3829055181962224,2.3789214213118575,0.0,0.0,0.0,2.395735664211745,0.0,0.0,0.0,0.0,0.0,0.0,0.0,0.0,0.0,0.0,0.0,0.0,0.0,0.0,
0.4992,2.4255424974608877,2.3830517770439545,2.3790707922934944,0.0,0.0,0.0,2.3958883555994457,0.0,0.0,0.0,0.0,0.0,0.0,0.0,0.0,0.0,0.0,0.0,0.0,0.0,0.0,
0.5135,2.425710888189612,2.383203385173445,2.379225628686801,0.0,0.0,0.0,2.3960466340166193,0.0,0.0,0.0,0.0,0.0,0.0,0.0,0.0,0.0,0.0,0.0,0.0,0.0,0.0,
0.5278,2.425884103862696,2.383359332449973,2.3793848990734396,0.0,0.0,0.0,2.396209445128703,0.0,0.0,0.0,0.0,0.0,0.0,0.0,0.0,0.0,0.0,0.0,0.0,0.0,0.0,
0.542,2.426060888467579,2.383518487712946,2.3795474483699177,0.0,0.0,0.0,2.396375608183481,0.0,0.0,0.0,0.0,0.0,0.0,0.0,0.0,0.0,0.0,0.0,0.0,0.0,0.0,
0.5563,2.426243737915904,2.383683097547242,2.3797155712839433,0.0,0.0,0.0,2.396547468915696,0.0,0.0,0.0,0.0,0.0,0.0,0.0,0.0,0.0,0.0,0.0,0.0,0.0,0.0,
0.5706,2.426431430335102,2.3838520614655976,2.379888144090467,0.0,0.0,0.0,2.396723878630389,0.0,0.0,0.0,0.0,0.0,0.0,0.0,0.0,0.0,0.0,0.0,0.0,0.0,0.0,
0.5848,2.426622608789396,2.384024157539365,2.380063918957026,0.0,0.0,0.0,2.396903561761929,0.0,0.0,0.0,0.0,0.0,0.0,0.0,0.0,0.0,0.0,0.0,0.0,0.0,0.0,
0.5991,2.4268199724276656,2.384201815036586,2.3802453773131615,0.0,0.0,0.0,2.397089054925804,0.0,0.0,0.0,0.0,0.0,0.0,0.0,0.0,0.0,0.0,0.0,0.0,0.0,0.0,
0.6133,2.427020767522099,2.3843825547055997,2.3804299871020214,0.0,0.0,0.0,2.3972777697765735,0.0,0.0,0.0,0.0,0.0,0.0,0.0,0.0,0.0,0.0,0.0,0.0,0.0,0.0,
0.6276,2.4272278290084763,2.384568927836418,2.380620354488872,0.0,0.0,0.0,2.397472370444589,0.0,0.0,0.0,0.0,0.0,0.0,0.0,0.0,0.0,0.0,0.0,0.0,0.0,0.0,
0.6419,2.4274397668951244,2.3847596827380553,2.380815201245671,0.0,0.0,0.0,2.39767155029295,0.0,0.0,0.0,0.0,0.0,0.0,0.0,0.0,0.0,0.0,0.0,0.0,0.0,0.0,
0.6561,2.4276550551974108,2.3849534455078167,2.381013124217039,0.0,0.0,0.0,2.397873874974089,0.0,0.0,0.0,0.0,0.0,0.0,0.0,0.0,0.0,0.0,0.0,0.0,0.0,0.0,
0.6704,2.427876733499162,2.3851529512865506,2.381216917533676,0.0,0.0,0.0,2.3980822007731297,0.0,0.0,0.0,0.0,0.0,0.0,0.0,0.0,0.0,0.0,0.0,0.0,0.0,0.0,
0.6847,2.4281033103421032,2.385356857164042,2.3814252097388486,0.0,0.0,0.0,2.3982951257483314,0.0,0.0,0.0,0.0,0.0,0.0,0.0,0.0,0.0,0.0,0.0,0.0,0.0,0.0,
0.6989,2.4283331576592655,2.3855636975085615,2.3816365039056224,0.0,0.0,0.0,2.39851111969115,0.0,0.0,0.0,0.0,0.0,0.0,0.0,0.0,0.0,0.0,0.0,0.0,0.0,0.0,
0.7132,2.428569520616966,2.385776392084738,2.3818537829535984,0.0,0.0,0.0,2.398733231885101,0.0,0.0,0.0,0.0,0.0,0.0,0.0,0.0,0.0,0.0,0.0,0.0,0.0,0.0,
0.7275,2.4288108058401985,2.3859935063899798,2.382075581800299,0.0,0.0,0.0,2.3989599646768256,0.0,0.0,0.0,0.0,0.0,0.0,0.0,0.0,0.0,0.0,0.0,0.0,0.0,0.0,
0.7417,2.429055282685515,2.3862134826541097,2.382300309311386,0.0,0.0,0.0,2.399189691550337,0.0,0.0,0.0,0.0,0.0,0.0,0.0,0.0,0.0,0.0,0.0,0.0,0.0,0.0,
0.756,2.4293064029030313,2.386439426093479,2.3825311380776535,0.0,0.0,0.0,2.3994256556913878,0.0,0.0,0.0,0.0,0.0,0.0,0.0,0.0,0.0,0.0,0.0,0.0,0.0,0.0,
0.7702,2.429560662835862,2.386668183700436,2.3827648472265666,0.0,0.0,0.0,2.399664564587621,0.0,0.0,0.0,0.0,0.0,0.0,0.0,0.0,0.0,0.0,0.0,0.0,0.0,0.0,
0.7845,2.4298216523846,2.3869029846680547,2.3830047361672833,0.0,0.0,0.0,2.3999097910733127,0.0,0.0,0.0,0.0,0.0,0.0,0.0,0.0,0.0,0.0,0.0,0.0,0.0,0.0,
0.7988,2.430087607304608,2.387142241009739,2.383249182887851,0.0,0.0,0.0,2.4001596770673994,0.0,0.0,0.0,0.0,0.0,0.0,0.0,0.0,0.0,0.0,0.0,0.0,0.0,0.0,
0.813,2.430356624884116,2.387384240479757,2.383496438268083,0.0,0.0,0.0,2.4004124345439855,0.0,0.0,0.0,0.0,0.0,0.0,0.0,0.0,0.0,0.0,0.0,0.0,0.0,0.0,
0.8273,2.430632503426975,2.3876323992263937,2.3837499929908943,0.0,0.0,0.0,2.400671631881421,0.0,0.0,0.0,0.0,0.0,0.0,0.0,0.0,0.0,0.0,0.0,0.0,0.0,0.0,
0.8416,2.430913375411931,2.3878850365441373,2.3840081302192537,0.0,0.0,0.0,2.4009355140584407,0.0,0.0,0.0,0.0,0.0,0.0,0.0,0.0,0.0,0.0,0.0,0.0,0.0,0.0,
0.8558,2.431197234070022,2.3881403468230675,2.384269005320248,0.0,0.0,0.0,2.4012021954044456,0.0,0.0,0.0,0.0,0.0,0.0,0.0,0.0,0.0,0.0,0.0,0.0,0.0,0.0,
0.8701,2.431488087293303,2.388401934145157,2.3845363012939096,0.0,0.0,0.0,2.4014754409107897,0.0,0.0,0.0,0.0,0.0,0.0,0.0,0.0,0.0,0.0,0.0,0.0,0.0,0.0,
0.8844,2.4317839637122933,2.38866802461288,2.3848082059742577,0.0,0.0,0.0,2.4017533980998103,0.0,0.0,0.0,0.0,0.0,0.0,0.0,0.0,0.0,0.0,0.0,0.0,0.0,0.0,
0.8986,2.432082751882458,2.388936718740684,2.385082778670725,0.0,0.0,0.0,2.4020340830979556,0.0,0.0,0.0,0.0,0.0,0.0,0.0,0.0,0.0,0.0,0.0,0.0,0.0,0.0,
0.9129,2.4323886705401367,2.389211809580941,2.3853638958061696,0.0,0.0,0.0,2.4023214586424158,0.0,0.0,0.0,0.0,0.0,0.0,0.0,0.0,0.0,0.0,0.0,0.0,0.0,0.0,
0.9271,2.4326974516478908,2.3894894584123803,2.3856476349550997,0.0,0.0,0.0,2.4026115150051237,0.0,0.0,0.0,0.0,0.0,0.0,0.0,0.0,0.0,0.0,0.0,0.0,0.0,0.0,
0.9414,2.4330134550730382,2.3897735847245363,2.3859380019827707,0.0,0.0,0.0,2.4029083472601154,0.0,0.0,0.0,0.0,0.0,0.0,0.0,0.0,0.0,0.0,0.0,0.0,0.0,0.0,
0.9557,2.4333345350836417,2.3900622582449746,2.3862330247146804,0.0,0.0,0.0,2.4032099393477657,0.0,0.0,0.0,0.0,0.0,0.0,0.0,0.0,0.0,0.0,0.0,0.0,0.0,0.0,
0.9699,2.4336584043881664,2.39035342188759,2.386530601144801,0.0,0.0,0.0,2.403514142473519,0.0,0.0,0.0,0.0,0.0,0.0,0.0,0.0,0.0,0.0,0.0,0.0,0.0,0.0,
0.9842,2.4339896359523134,2.3906511859712385,2.3868349325446414,0.0,0.0,0.0,2.4038252514893976,0.0,0.0,0.0,0.0,0.0,0.0,0.0,0.0,0.0,0.0,0.0,0.0,0.0,0.0,
0.9985,2.4343259785020925,2.3909535256308185,2.3871439499183227,0.0,0.0,0.0,2.4041411513504114,0.0,0.0,0.0,0.0,0.0,0.0,0.0,0.0,0.0,0.0,0.0,0.0,0.0,0.0,
1.0127,2.4346650382475206,2.391258288398558,2.3874554535966555,0.0,0.0,0.0,2.4044595934142445,0.0,0.0,0.0,0.0,0.0,0.0,0.0,0.0,0.0,0.0,0.0,0.0,0.0,0.0,
1.027,2.4350116027051394,2.3915697766194617,2.387773841535002,0.0,0.0,0.0,2.4047850736198675,0.0,0.0,0.0,0.0,0.0,0.0,0.0,0.0,0.0,0.0,0.0,0.0,0.0,0.0,
1.0413,2.435363314357916,2.3918858702566856,2.388096947298725,0.0,0.0,0.0,2.405115377304442,0.0,0.0,0.0,0.0,0.0,0.0,0.0,0.0,0.0,0.0,0.0,0.0,0.0,0.0,
1.0555,2.4357176721661125,2.392204320840775,2.388422472894118,0.0,0.0,0.0,2.405448155300335,0.0,0.0,0.0,0.0,0.0,0.0,0.0,0.0,0.0,0.0,0.0,0.0,0.0,0.0,
1.0698,2.436079679726115,2.3925296240019547,2.3887550143049032,0.0,0.0,0.0,2.405788106010991,0.0,0.0,0.0,0.0,0.0,0.0,0.0,0.0,0.0,0.0,0.0,0.0,0.0,0.0,
1.084,2.4364442867243525,2.3928572405263546,2.3890899317944116,0.0,0.0,0.0,2.406130486348373,0.0,0.0,0.0,0.0,0.0,0.0,0.0,0.0,0.0,0.0,0.0,0.0,0.0,0.0,
1.0983,2.4368166415286687,2.393191795480077,2.389431953990332,0.0,0.0,0.0,2.406480130333026,0.0,0.0,0.0,0.0,0.0,0.0,0.0,0.0,0.0,0.0,0.0,0.0,0.0,0.0,
1.1126,2.4371942079758466,2.393531008912922,2.3897787506769665,0.0,0.0,0.0,2.406834655855245,0.0,0.0,0.0,0.0,0.0,0.0,0.0,0.0,0.0,0.0,0.0,0.0,0.0,0.0,
1.1268,2.437574304588205,2.393872470966265,2.3901278585038988,0.0,0.0,0.0,2.407191544686123,0.0,0.0,0.0,0.0,0.0,0.0,0.0,0.0,0.0,0.0,0.0,0.0,0.0,0.0,
1.1411,2.4379622985351745,2.3942210022305894,2.3904842065192087,0.0,0.0,0.0,2.4075558357616575,0.0,0.0,0.0,0.0,0.0,0.0,0.0,0.0,0.0,0.0,0.0,0.0,0.0,0.0,
1.1554,2.438355545358953,2.3945742258912457,2.390845365262694,0.0,0.0,0.0,2.4079250455042978,0.0,0.0,0.0,0.0,0.0,0.0,0.0,0.0,0.0,0.0,0.0,0.0,0.0,0.0,
1.1696,2.4387512541410166,2.3949296342819086,2.3912087711318346,0.0,0.0,0.0,2.40829655318492,0.0,0.0,0.0,0.0,0.0,0.0,0.0,0.0,0.0,0.0,0.0,0.0,0.0,0.0,
1.1839,2.4391550125939148,2.3952922449488114,2.3915795551250203,0.0,0.0,0.0,2.408675604222582,0.0,0.0,0.0,0.0,0.0,0.0,0.0,0.0,0.0,0.0,0.0,0.0,0.0,0.0,
1.1982,2.4395640671248415,2.395659583520234,2.3919551877982412,0.0,0.0,0.0,2.409059612814439,0.0,0.0,0.0,0.0,0.0,0.0,0.0,0.0,0.0,0.0,0.0,0.0,0.0,0.0,
1.2124,2.4399755164793033,2.396029043785384,2.392333004509929,0.0,0.0,0.0,2.409445854924872,0.0,0.0,0.0,0.0,0.0,0.0,0.0,0.0,0.0,0.0,0.0,0.0,0.0,0.0,
1.2267,2.44039517073787,2.3964058417448184,2.392718339811224,0.0,0.0,0.0,2.409839784097971,0.0,0.0,0.0,0.0,0.0,0.0,0.0,0.0,0.0,0.0,0.0,0.0,0.0,0.0,
1.2409,2.4408171757142156,2.396784719898146,2.3931058176588413,0.0,0.0,0.0,2.4102359044237343,0.0,0.0,0.0,0.0,0.0,0.0,0.0,0.0,0.0,0.0,0.0,0.0,0.0,0.0,
1.2552,2.4412474906151447,2.3971710272593687,2.393500909072498,0.0,0.0,0.0,2.4106398089823373,0.0,0.0,0.0,0.0,0.0,0.0,0.0,0.0,0.0,0.0,0.0,0.0,0.0,0.0,
1.2695,2.441683178065647,2.3975621253112234,2.3939009163093656,0.0,0.0,0.0,2.411048739895412,0.0,0.0,0.0,0.0,0.0,0.0,0.0,0.0,0.0,0.0,0.0,0.0,0.0,0.0,
1.2837,2.4421211509034544,2.39795524195135,2.394303004562345,0.0,0.0,0.0,2.41145979913905,0.0,0.0,0.0,0.0,0.0,0.0,0.0,0.0,0.0,0.0,0.0,0.0,0.0,0.0,
1.298,2.4425675939339584,2.398355927298316,2.3947128512391638,0.0,0.0,0.0,2.411878790823813,0.0,0.0,0.0,0.0,0.0,0.0,0.0,0.0,0.0,0.0,0.0,0.0,0.0,0.0,
1.3123,2.443019458208032,2.3987614432705815,2.3951276564690285,0.0,0.0,0.0,2.412302852649214,0.0,0.0,0.0,0.0,0.0,0.0,0.0,0.0,0.0,0.0,0.0,0.0,0.0,0.0,
1.3265,2.44347354363586,2.3991689170910373,2.3955444821289964,0.0,0.0,0.0,2.4127289809519645,0.0,0.0,0.0,0.0,0.0,0.0,0.0,0.0,0.0,0.0,0.0,0.0,0.0,0.0,
1.3408,2.4439362626788683,2.3995841016686486,2.3959692138193645,0.0,0.0,0.0,2.413163192722294,0.0,0.0,0.0,0.0,0.0,0.0,0.0,0.0,0.0,0.0,0.0,0.0,0.0,0.0,
1.3551,2.44440445382145,2.4000041585421523,2.396398948669717,0.0,0.0,0.0,2.41360252034444,0.0,0.0,0.0,0.0,0.0,0.0,0.0,0.0,0.0,0.0,0.0,0.0,0.0,0.0,
1.3693,2.444874802993964,2.4004261133960494,2.3968306443174248,0.0,0.0,0.0,2.414043853569146,0.0,0.0,0.0,0.0,0.0,0.0,0.0,0.0,0.0,0.0,0.0,0.0,0.0,0.0,
1.3836,2.4453539524627934,2.4008559236889555,2.397270396439433,0.0,0.0,0.0,2.4144934241970604,0.0,0.0,0.0,0.0,0.0,0.0,0.0,0.0,0.0,0.0,0.0,0.0,0.0,0.0,
1.3979,2.445838627109688,2.4012906497290185,2.3977151982557765,0.0,0.0,0.0,2.414948158364828,0.0,0.0,0.0,0.0,0.0,0.0,0.0,0.0,0.0,0.0,0.0,0.0,0.0,0.0,
1.4121,2.4463253977871444,2.401727214762053,2.3981619022007097,0.0,0.0,0.0,2.415404838249969,0.0,0.0,0.0,0.0,0.0,0.0,0.0,0.0,0.0,0.0,0.0,0.0,0.0,0.0,
1.4264,2.446821138809783,2.402171782631004,2.3986168159934813,0.0,0.0,0.0,2.41586991247809,0.0,0.0,0.0,0.0,0.0,0.0,0.0,0.0,0.0,0.0,0.0,0.0,0.0,0.0,
1.4406,2.447318935210343,2.4026181507068998,2.399073593388757,0.0,0.0,0.0,2.416336893102,0.0,0.0,0.0,0.0,0.0,0.0,0.0,0.0,0.0,0.0,0.0,0.0,0.0,0.0,
1.4549,2.4478258171133103,2.4030726213171123,2.3995386844336615,0.0,0.0,0.0,2.416812374288028,0.0,0.0,0.0,0.0,0.0,0.0,0.0,0.0,0.0,0.0,0.0,0.0,0.0,0.0,
1.4692,2.448338317726949,2.403532084142775,2.4000089071191963,0.0,0.0,0.0,2.417293102996307,0.0,0.0,0.0,0.0,0.0,0.0,0.0,0.0,0.0,0.0,0.0,0.0,0.0,0.0,
1.4834,2.4488528136311847,2.4039932896767047,2.400480936372814,0.0,0.0,0.0,2.417775679893568,0.0,0.0,0.0,0.0,0.0,0.0,0.0,0.0,0.0,0.0,0.0,0.0,0.0,0.0,
1.4977,2.4493765709521673,2.404462749859734,2.400961437745933,0.0,0.0,0.0,2.418266919519278,0.0,0.0,0.0,0.0,0.0,0.0,0.0,0.0,0.0,0.0,0.0,0.0,0.0,0.0,
1.512,2.449906006308884,2.4049372506942848,2.4014471226997705,0.0,0.0,0.0,2.4187634599009797,0.0,0.0,0.0,0.0,0.0,0.0,0.0,0.0,0.0,0.0,0.0,0.0,0.0,0.0,
1.5262,2.4504373780435733,2.405413437647962,2.4019345581883655,0.0,0.0,0.0,2.4192617912933003,0.0,0.0,0.0,0.0,0.0,0.0,0.0,0.0,0.0,0.0,0.0,0.0,0.0,0.0,
1.5405,2.450978190792066,2.405898034320712,2.402430627462115,0.0,0.0,0.0,2.419768950858298,0.0,0.0,0.0,0.0,0.0,0.0,0.0,0.0,0.0,0.0,0.0,0.0,0.0,0.0,
1.5548,2.451524743376007,2.4063877220476826,2.4029319343934104,0.0,0.0,0.0,2.4202814666057,0.0,0.0,0.0,0.0,0.0,0.0,0.0,0.0,0.0,0.0,0.0,0.0,0.0,0.0,
1.569,2.4520731746231843,2.4068790402280698,2.4034349368446364,0.0,0.0,0.0,2.420795717231963,0.0,0.0,0.0,0.0,0.0,0.0,0.0,0.0,0.0,0.0,0.0,0.0,0.0,0.0,
1.5833,2.452631230292149,2.407378926249936,2.403946738050325,0.0,0.0,0.0,2.421318964864137,0.0,0.0,0.0,0.0,0.0,0.0,0.0,0.0,0.0,0.0,0.0,0.0,0.0,0.0,
1.5975,2.453191126869819,2.4078804061779593,2.4044601987165937,0.0,0.0,0.0,2.421843910588124,0.0,0.0,0.0,0.0,0.0,0.0,0.0,0.0,0.0,0.0,0.0,0.0,0.0,0.0,
1.6118,2.4537607721779633,2.4083905609820677,2.4049825698761387,0.0,0.0,0.0,2.4223779676787234,0.0,0.0,0.0,0.0,0.0,0.0,0.0,0.0,0.0,0.0,0.0,0.0,0.0,0.0,
1.6261,2.4543362659817305,2.4089058953292897,2.4055102737007417,0.0,0.0,0.0,2.422917478337254,0.0,0.0,0.0,0.0,0.0,0.0,0.0,0.0,0.0,0.0,0.0,0.0,0.0,0.0,
1.6403,2.4549135450336665,2.409422769491092,2.406039583711937,0.0,0.0,0.0,2.423458632745565,0.0,0.0,0.0,0.0,0.0,0.0,0.0,0.0,0.0,0.0,0.0,0.0,0.0,0.0,
1.6546,2.4555007628734367,2.4099484819638057,2.4065779749421266,0.0,0.0,0.0,2.4240090732597896,0.0,0.0,0.0,0.0,0.0,0.0,0.0,0.0,0.0,0.0,0.0,0.0,0.0,0.0,
1.6689,2.4560938979991187,2.4104794299132957,2.407121758935755,0.0,0.0,0.0,2.42456502894939,0.0,0.0,0.0,0.0,0.0,0.0,0.0,0.0,0.0,0.0,0.0,0.0,0.0,0.0,
1.6831,2.456688763985225,2.411011864555233,2.407667096917022,0.0,0.0,0.0,2.425122575152493,0.0,0.0,0.0,0.0,0.0,0.0,0.0,0.0,0.0,0.0,0.0,0.0,0.0,0.0,
1.6974,2.457293762999072,2.4115533042757287,2.408221690458647,0.0,0.0,0.0,2.425689585911149,0.0,0.0,0.0,0.0,0.0,0.0,0.0,0.0,0.0,0.0,0.0,0.0,0.0,0.0,
1.7117,2.4579047508720735,2.412100037598661,2.4087817392532864,0.0,0.0,0.0,2.426262175908007,0.0,0.0,0.0,0.0,0.0,0.0,0.0,0.0,0.0,0.0,0.0,0.0,0.0,0.0,
1.7259,2.4585174165240193,2.412648205482266,2.4093432909370955,0.0,0.0,0.0,2.4268363043144605,0.0,0.0,0.0,0.0,0.0,0.0,0.0,0.0,0.0,0.0,0.0,0.0,0.0,0.0,
1.7402,2.4591404137778086,2.413205548658718,2.409914276265084,0.0,0.0,0.0,2.4274200795672036,0.0,0.0,0.0,0.0,0.0,0.0,0.0,0.0,0.0,0.0,0.0,0.0,0.0,0.0,
1.7544,2.459765054206664,2.4137642922425164,2.410486731080418,0.0,0.0,0.0,2.4280053591765327,0.0,0.0,0.0,0.0,0.0,0.0,0.0,0.0,0.0,0.0,0.0,0.0,0.0,0.0,
1.7687,2.460400160947416,2.4143323264328256,2.4110687402647004,0.0,0.0,0.0,2.428600409214981,0.0,0.0,0.0,0.0,0.0,0.0,0.0,0.0,0.0,0.0,0.0,0.0,0.0,0.0,
1.783,2.461041382221485,2.414905756113738,2.411656314327245,0.0,0.0,0.0,2.429201150887489,0.0,0.0,0.0,0.0,0.0,0.0,0.0,0.0,0.0,0.0,0.0,0.0,0.0,0.0,
1.7972,2.4616841958482714,2.415480535772251,2.412245308675173,0.0,0.0,0.0,2.429803346765232,0.0,0.0,0.0,0.0,0.0,0.0,0.0,0.0,0.0,0.0,0.0,0.0,0.0,0.0,
1.8115,2.462337681938085,2.4160647822600696,2.412844042008154,0.0,0.0,0.0,2.4304155020687697,0.0,0.0,0.0,0.0,0.0,0.0,0.0,0.0,0.0,0.0,0.0,0.0,0.0,0.0,
1.8258,2.462997362034929,2.4166544885570147,2.4134484094788644,0.0,0.0,0.0,2.431033420023603,0.0,0.0,0.0,0.0,0.0,0.0,0.0,0.0,0.0,0.0,0.0,0.0,0.0,0.0,
1.84,2.4636585850737776,2.4172454954586513,2.4140541492137384,0.0,0.0,0.0,2.4316527432487223,0.0,0.0,0.0,0.0,0.0,0.0,0.0,0.0,0.0,0.0,0.0,0.0,0.0,0.0,
1.8543,2.4643306915021346,2.4178461491882297,2.4146698166599654,0.0,0.0,0.0,2.4322822191167766,0.0,0.0,0.0,0.0,0.0,0.0,0.0,0.0,0.0,0.0,0.0,0.0,0.0,0.0,
