energies(eV),real_xx,real_yy,real_zz,real_xy,real_yz,real_xz,real_ave,imag_xx,imag_yy,imag_zz,imag_xy,imag_yz,imag_xz,imag_ave,absorption_xx,absorption_yy,absorption_zz,absorption_xy,absorption_yz,absorption_xz,absorption_ave,band_gap
0.0,4.271316024452576,3.45974055884232,4.107089700192985,0.0,0.0,0.0,3.946048761162627,0.0,0.0,0.0,0.0,0.0,0.0,0.0,0.0,0.0,0.0,0.0,0.0,0.0,0.0,3.3381999999999996
0.0154,4.271330963220464,3.4597512181330266,4.107105021479429,0.0,0.0,0.0,3.9460624009443066,0.0,0.0,0.0,0.0,0.0,0.0,0.0,0.0,0.0,0.0,0.0,0.0,0.0,0.0,
0.0309,4.271376169338247,3.4597834741919407,4.1071513854759125,0.0,0.0,0.0,3.9461036763353667,0.0,0.0,0.0,0.0,0.0,0.0,0.0,0.0,0.0,0.0,0.0,0.0,0.0,0.0,
0.0463,4.271451062968127,3.4598369134102547,4.10722819851004,0.0,0.0,0.0,3.94617205829614,0.0,0.0,0.0,0.0,0.0,0.0,0.0,0.0,0.0,0.0,0.0,0.0,0.0,0.0,
0.0618,4.271556622586308,3.459912234174611,4.107336465845876,0.0,0.0,0.0,3.946268440868932,0.0,0.0,0.0,0.0,0.0,0.0,0.0,0.0,0.0,0.0,0.0,0.0,0.0,0.0,
0.0772,4.271691494230739,3.4600084706732845,4.107474801167383,0.0,0.0,0.0,3.9463915886904686,0.0,0.0,0.0,0.0,0.0,0.0,0.0,0.0,0.0,0.0,0.0,0.0,0.0,0.0,
0.0926,4.271856272244344,3.460126047364017,4.107643817097234,0.0,0.0,0.0,3.9465420455685316,0.0,0.0,0.0,0.0,0.0,0.0,0.0,0.0,0.0,0.0,0.0,0.0,0.0,0.0,
0.1081,4.272052331355244,3.4602659456455815,4.107844927534048,0.0,0.0,0.0,3.946721068178291,0.0,0.0,0.0,0.0,0.0,0.0,0.0,0.0,0.0,0.0,0.0,0.0,0.0,0.0,
0.1235,4.272277156819982,3.4604263716604287,4.108075557367829,0.0,0.0,0.0,3.9469263619494135,0.0,0.0,0.0,0.0,0.0,0.0,0.0,0.0,0.0,0.0,0.0,0.0,0.0,0.0,
0.139,4.272533685978735,3.460609422001985,4.108338724928611,0.0,0.0,0.0,3.9471606109697768,0.0,0.0,0.0,0.0,0.0,0.0,0.0,0.0,0.0,0.0,0.0,0.0,0.0,0.0,
0.1544,4.272818628486997,3.460812749503543,4.108631060526765,0.0,0.0,0.0,3.9474208128391015,0.0,0.0,0.0,0.0,0.0,0.0,0.0,0.0,0.0,0.0,0.0,0.0,0.0,0.0,
0.1699,4.273135707132524,3.461039011449328,4.108956390092324,0.0,0.0,0.0,3.947710369558058,0.0,0.0,0.0,0.0,0.0,0.0,0.0,0.0,0.0,0.0,0.0,0.0,0.0,0.0,
0.1853,4.273480854963134,3.4612853066094127,4.10931054803577,0.0,0.0,0.0,3.9480255698694386,0.0,0.0,0.0,0.0,0.0,0.0,0.0,0.0,0.0,0.0,0.0,0.0,0.0,0.0,
0.2007,4.273856046829627,3.461553045152434,4.109695568371441,0.0,0.0,0.0,3.948368220117834,0.0,0.0,0.0,0.0,0.0,0.0,0.0,0.0,0.0,0.0,0.0,0.0,0.0,0.0,
0.2162,4.274264041582018,3.4618441968978506,4.110114291177055,0.0,0.0,0.0,3.9487408432189746,0.0,0.0,0.0,0.0,0.0,0.0,0.0,0.0,0.0,0.0,0.0,0.0,0.0,0.0,
0.2316,4.274699606207648,3.4621550286152467,4.110561355143959,0.0,0.0,0.0,3.9491386633222842,0.0,0.0,0.0,0.0,0.0,0.0,0.0,0.0,0.0,0.0,0.0,0.0,0.0,0.0,
0.2471,4.275168431485456,3.462489602641366,4.111042611398325,0.0,0.0,0.0,3.9495668818417156,0.0,0.0,0.0,0.0,0.0,0.0,0.0,0.0,0.0,0.0,0.0,0.0,0.0,0.0,
0.2625,4.275664504234175,3.462843629014763,4.111551898056244,0.0,0.0,0.0,3.950020010435061,0.0,0.0,0.0,0.0,0.0,0.0,0.0,0.0,0.0,0.0,0.0,0.0,0.0,0.0,
0.2779,4.276190789596601,3.4632192251537286,4.112092270115689,0.0,0.0,0.0,3.9505007616220063,0.0,0.0,0.0,0.0,0.0,0.0,0.0,0.0,0.0,0.0,0.0,0.0,0.0,0.0,
0.2934,4.2767510411405105,3.4636190714462476,4.112667594511867,0.0,0.0,0.0,3.951012569032875,0.0,0.0,0.0,0.0,0.0,0.0,0.0,0.0,0.0,0.0,0.0,0.0,0.0,0.0,
0.3088,4.2773380731604345,3.4640380410876572,4.113270505147643,0.0,0.0,0.0,3.951548873131911,0.0,0.0,0.0,0.0,0.0,0.0,0.0,0.0,0.0,0.0,0.0,0.0,0.0,0.0,
0.3243,4.277959555604385,3.464481609852212,4.113908893229261,0.0,0.0,0.0,3.9521166862286194,0.0,0.0,0.0,0.0,0.0,0.0,0.0,0.0,0.0,0.0,0.0,0.0,0.0,0.0,
0.3397,4.2786075175260265,3.464944090403424,4.114574585411637,0.0,0.0,0.0,3.9527087311136957,0.0,0.0,0.0,0.0,0.0,0.0,0.0,0.0,0.0,0.0,0.0,0.0,0.0,0.0,
0.3551,4.2792859202679905,3.4654283118440787,4.11527166560262,0.0,0.0,0.0,3.9533286325715635,0.0,0.0,0.0,0.0,0.0,0.0,0.0,0.0,0.0,0.0,0.0,0.0,0.0,0.0,
0.3706,4.279999519589579,3.4659376707409164,4.11600503761866,0.0,0.0,0.0,3.9539807426497178,0.0,0.0,0.0,0.0,0.0,0.0,0.0,0.0,0.0,0.0,0.0,0.0,0.0,0.0,
0.386,4.280739163271546,3.466465636357855,4.116765312378407,0.0,0.0,0.0,3.9546567040026024,0.0,0.0,0.0,0.0,0.0,0.0,0.0,0.0,0.0,0.0,0.0,0.0,0.0,0.0,
0.4015,4.281514515564792,3.4670191092619134,4.117562441369522,0.0,0.0,0.0,3.9553653553987425,0.0,0.0,0.0,0.0,0.0,0.0,0.0,0.0,0.0,0.0,0.0,0.0,0.0,0.0,
0.4169,4.282315632396067,3.4675909932286744,4.118386219540664,0.0,0.0,0.0,3.956097615055135,0.0,0.0,0.0,0.0,0.0,0.0,0.0,0.0,0.0,0.0,0.0,0.0,0.0,0.0,
0.4324,4.283152981399011,3.46818876297249,4.119247429910043,0.0,0.0,0.0,3.956863058093848,0.0,0.0,0.0,0.0,0.0,0.0,0.0,0.0,0.0,0.0,0.0,0.0,0.0,0.0,
0.4478,4.284015823559301,3.4688047544664675,4.120135047376166,0.0,0.0,0.0,3.9576518751339784,0.0,0.0,0.0,0.0,0.0,0.0,0.0,0.0,0.0,0.0,0.0,0.0,0.0,0.0,
0.4632,4.284909528939808,3.4694428037044487,4.1210546151308165,0.0,0.0,0.0,3.958468982591691,0.0,0.0,0.0,0.0,0.0,0.0,0.0,0.0,0.0,0.0,0.0,0.0,0.0,0.0,
0.4787,4.285840273111431,3.470107322466835,4.122012511088931,0.0,0.0,0.0,3.959320035555732,0.0,0.0,0.0,0.0,0.0,0.0,0.0,0.0,0.0,0.0,0.0,0.0,0.0,0.0,
0.4941,4.286796119597432,3.47078979119024,4.1229964730103354,0.0,0.0,0.0,3.960194127932669,0.0,0.0,0.0,0.0,0.0,0.0,0.0,0.0,0.0,0.0,0.0,0.0,0.0,0.0,
0.5096,4.287789558353133,3.4714991304121305,4.124019381746156,0.0,0.0,0.0,3.9611026901704727,0.0,0.0,0.0,0.0,0.0,0.0,0.0,0.0,0.0,0.0,0.0,0.0,0.0,0.0,
0.525,4.2888078491236445,3.472226246140135,4.125068143294678,0.0,0.0,0.0,3.9620340795194857,0.0,0.0,0.0,0.0,0.0,0.0,0.0,0.0,0.0,0.0,0.0,0.0,0.0,0.0,
0.5404,4.289857380686065,3.472975702960593,4.126149360116374,0.0,0.0,0.0,3.9629941479210107,0.0,0.0,0.0,0.0,0.0,0.0,0.0,0.0,0.0,0.0,0.0,0.0,0.0,0.0,
0.5559,4.2909453572412914,3.473752648689984,4.127270482703134,0.0,0.0,0.0,3.96398949621147,0.0,0.0,0.0,0.0,0.0,0.0,0.0,0.0,0.0,0.0,0.0,0.0,0.0,0.0,
0.5713,4.29205782660493,3.4745471229491947,4.128417160702821,0.0,0.0,0.0,3.9650073700856487,0.0,0.0,0.0,0.0,0.0,0.0,0.0,0.0,0.0,0.0,0.0,0.0,0.0,0.0,
0.5868,4.293209326106465,3.475369510910811,4.12960440654107,0.0,0.0,0.0,3.9660610811861154,0.0,0.0,0.0,0.0,0.0,0.0,0.0,0.0,0.0,0.0,0.0,0.0,0.0,0.0,
0.6022,4.294385089296742,3.47620926990029,4.13081702414797,0.0,0.0,0.0,3.9671371277816676,0.0,0.0,0.0,0.0,0.0,0.0,0.0,0.0,0.0,0.0,0.0,0.0,0.0,0.0,
0.6177,4.295600480981079,3.4770773773296324,4.1320708899417244,0.0,0.0,0.0,3.9682495827508117,0.0,0.0,0.0,0.0,0.0,0.0,0.0,0.0,0.0,0.0,0.0,0.0,0.0,0.0,
0.6331,4.296839915772319,3.4779627047221324,4.133349955894408,0.0,0.0,0.0,3.96938419212962,0.0,0.0,0.0,0.0,0.0,0.0,0.0,0.0,0.0,0.0,0.0,0.0,0.0,0.0,
0.6485,4.298111231254843,3.478870853672131,4.134662338066737,0.0,0.0,0.0,3.9705481409979035,0.0,0.0,0.0,0.0,0.0,0.0,0.0,0.0,0.0,0.0,0.0,0.0,0.0,0.0,
0.664,4.299423097245086,3.4798080216282234,4.1360170232471525,0.0,0.0,0.0,3.9717493807068203,0.0,0.0,0.0,0.0,0.0,0.0,0.0,0.0,0.0,0.0,0.0,0.0,0.0,0.0,
0.6794,4.300758691917149,3.4807621953355596,4.137396674324297,0.0,0.0,0.0,3.9729725205256687,0.0,0.0,0.0,0.0,0.0,0.0,0.0,0.0,0.0,0.0,0.0,0.0,0.0,0.0,
0.6949,4.302135469924886,3.4817458487519857,4.138819356853376,0.0,0.0,0.0,3.9742335585100825,0.0,0.0,0.0,0.0,0.0,0.0,0.0,0.0,0.0,0.0,0.0,0.0,0.0,0.0,
0.7103,4.30353577760018,3.482746373134027,4.140266864468281,0.0,0.0,0.0,3.97551633840083,0.0,0.0,0.0,0.0,0.0,0.0,0.0,0.0,0.0,0.0,0.0,0.0,0.0,0.0,
0.7257,4.304968506231825,3.483770124968583,4.141748420185804,0.0,0.0,0.0,3.9768290171287375,0.0,0.0,0.0,0.0,0.0,0.0,0.0,0.0,0.0,0.0,0.0,0.0,0.0,0.0,
0.7412,4.306443393535021,3.484824067263936,4.1432741370515735,0.0,0.0,0.0,3.9781805326168436,0.0,0.0,0.0,0.0,0.0,0.0,0.0,0.0,0.0,0.0,0.0,0.0,0.0,0.0,
0.7566,4.307941528719035,3.485894690968285,4.144824491811098,0.0,0.0,0.0,3.9795535704994727,0.0,0.0,0.0,0.0,0.0,0.0,0.0,0.0,0.0,0.0,0.0,0.0,0.0,0.0,
0.7721,4.309482492162875,3.4869959935551016,4.146419788125573,0.0,0.0,0.0,3.9809660912811835,0.0,0.0,0.0,0.0,0.0,0.0,0.0,0.0,0.0,0.0,0.0,0.0,0.0,0.0,
0.7875,4.31104652650965,3.4881138594256886,4.148039613632275,0.0,0.0,0.0,3.9823999998558715,0.0,0.0,0.0,0.0,0.0,0.0,0.0,0.0,0.0,0.0,0.0,0.0,0.0,0.0,
0.8029,4.312643595305081,3.4892554139150502,4.149694323840658,0.0,0.0,0.0,3.983864444353596,0.0,0.0,0.0,0.0,0.0,0.0,0.0,0.0,0.0,0.0,0.0,0.0,0.0,0.0,
0.8184,4.314284524642865,3.4904284010018674,4.151395186359396,0.0,0.0,0.0,3.985369370668043,0.0,0.0,0.0,0.0,0.0,0.0,0.0,0.0,0.0,0.0,0.0,0.0,0.0,0.0,
0.8338,4.315948276566412,3.491617787141806,4.153120440177703,0.0,0.0,0.0,3.9868955012953067,0.0,0.0,0.0,0.0,0.0,0.0,0.0,0.0,0.0,0.0,0.0,0.0,0.0,0.0,
0.8493,4.317656597936959,3.4928391239792953,4.154892683078758,0.0,0.0,0.0,3.9884628016650043,0.0,0.0,0.0,0.0,0.0,0.0,0.0,0.0,0.0,0.0,0.0,0.0,0.0,0.0,
0.8647,4.319387587595992,3.494076758921656,4.156689242361885,0.0,0.0,0.0,3.990051196293178,0.0,0.0,0.0,0.0,0.0,0.0,0.0,0.0,0.0,0.0,0.0,0.0,0.0,0.0,
0.8802,4.321163872125488,3.4953468751407604,4.158533651428762,0.0,0.0,0.0,3.99168146623167,0.0,0.0,0.0,0.0,0.0,0.0,0.0,0.0,0.0,0.0,0.0,0.0,0.0,0.0,
0.8956,4.322962679947358,3.496633195569289,4.160402316041964,0.0,0.0,0.0,3.993332730519537,0.0,0.0,0.0,0.0,0.0,0.0,0.0,0.0,0.0,0.0,0.0,0.0,0.0,0.0,
0.911,4.324795512032037,3.497943949216267,4.162307227446807,0.0,0.0,0.0,3.99501556289837,0.0,0.0,0.0,0.0,0.0,0.0,0.0,0.0,0.0,0.0,0.0,0.0,0.0,0.0,
0.9265,4.32667475791647,3.4992880033127975,4.164261324939626,0.0,0.0,0.0,3.996741362056298,0.0,0.0,0.0,0.0,0.0,0.0,0.0,0.0,0.0,0.0,0.0,0.0,0.0,0.0,
0.9419,4.328576327567985,3.5006481343859375,4.166239613979858,0.0,0.0,0.0,3.9984880253112602,0.0,0.0,0.0,0.0,0.0,0.0,0.0,0.0,0.0,0.0,0.0,0.0,0.0,0.0,
0.9574,4.33052507984837,3.5020421293042365,4.168268013384498,0.0,0.0,0.0,4.0002784075123685,0.0,0.0,0.0,0.0,0.0,0.0,0.0,0.0,0.0,0.0,0.0,0.0,0.0,0.0,
0.9728,4.332496034810523,3.5034521254568665,4.170320580331172,0.0,0.0,0.0,4.00208958019952,0.0,0.0,0.0,0.0,0.0,0.0,0.0,0.0,0.0,0.0,0.0,0.0,0.0,0.0,
0.9882,4.334501820739506,3.504887162157686,4.172410515367435,0.0,0.0,0.0,4.003933166088209,0.0,0.0,0.0,0.0,0.0,0.0,0.0,0.0,0.0,0.0,0.0,0.0,0.0,0.0,
1.0037,4.336555975699426,3.506356932917066,4.174551996705034,0.0,0.0,0.0,4.005821635107176,0.0,0.0,0.0,0.0,0.0,0.0,0.0,0.0,0.0,0.0,0.0,0.0,0.0,0.0,
1.0191,4.338632170458137,3.507842605521157,4.176717638744927,0.0,0.0,0.0,4.007730804908074,0.0,0.0,0.0,0.0,0.0,0.0,0.0,0.0,0.0,0.0,0.0,0.0,0.0,0.0,
1.0346,4.340757549819436,3.509363610957832,4.178935820959418,0.0,0.0,0.0,4.009685660578896,0.0,0.0,0.0,0.0,0.0,0.0,0.0,0.0,0.0,0.0,0.0,0.0,0.0,0.0,
1.05,4.342904872947819,3.510900461550478,4.181178179458426,0.0,0.0,0.0,4.011661171318908,0.0,0.0,0.0,0.0,0.0,0.0,0.0,0.0,0.0,0.0,0.0,0.0,0.0,0.0,
1.0654,4.345087923168109,3.5124630278155555,4.183459163348928,0.0,0.0,0.0,4.013670038110864,0.0,0.0,0.0,0.0,0.0,0.0,0.0,0.0,0.0,0.0,0.0,0.0,0.0,0.0,
1.0809,4.347321417155756,3.5140618522293776,4.185794232624875,0.0,0.0,0.0,4.015725834003336,0.0,0.0,0.0,0.0,0.0,0.0,0.0,0.0,0.0,0.0,0.0,0.0,0.0,0.0,
1.0963,4.349576730565305,3.515676451742264,4.188153533048143,0.0,0.0,0.0,4.017802238451904,0.0,0.0,0.0,0.0,0.0,0.0,0.0,0.0,0.0,0.0,0.0,0.0,0.0,0.0,
1.1118,4.3518833537922,3.517327946425374,4.190567989203993,0.0,0.0,0.0,4.019926429807189,0.0,0.0,0.0,0.0,0.0,0.0,0.0,0.0,0.0,0.0,0.0,0.0,0.0,0.0,
1.1272,4.3542117268571126,3.5189951796656516,4.19300673500356,0.0,0.0,0.0,4.022071213842108,0.0,0.0,0.0,0.0,0.0,0.0,0.0,0.0,0.0,0.0,0.0,0.0,0.0,0.0,
1.1427,4.356592297140452,3.5206999612870815,4.195501739637129,0.0,0.0,0.0,4.024264666021554,0.0,0.0,0.0,0.0,0.0,0.0,0.0,0.0,0.0,0.0,0.0,0.0,0.0,0.0,
1.1581,4.358994558717505,3.5224204533421775,4.198021110664808,0.0,0.0,0.0,4.026478707574831,0.0,0.0,0.0,0.0,0.0,0.0,0.0,0.0,0.0,0.0,0.0,0.0,0.0,0.0,
1.1735,4.361433964810983,3.5241677298811513,4.200581120787559,0.0,0.0,0.0,4.028727605159898,0.0,0.0,0.0,0.0,0.0,0.0,0.0,0.0,0.0,0.0,0.0,0.0,0.0,0.0,
1.189,4.363926939294969,3.525953565048161,4.2031991068431775,0.0,0.0,0.0,4.031026537062103,0.0,0.0,0.0,0.0,0.0,0.0,0.0,0.0,0.0,0.0,0.0,0.0,0.0,0.0,
1.2044,4.3664415386501085,3.527755084762035,4.205841609970854,0.0,0.0,0.0,4.033346077794333,0.0,0.0,0.0,0.0,0.0,0.0,0.0,0.0,0.0,0.0,0.0,0.0,0.0,0.0,
1.2199,4.369010650283597,3.5295958591766836,4.208543279943931,0.0,0.0,0.0,4.03571659646807,0.0,0.0,0.0,0.0,0.0,0.0,0.0,0.0,0.0,0.0,0.0,0.0,0.0,0.0,
1.2353,4.371601357133287,3.531452312066554,4.21126959245068,0.0,0.0,0.0,4.038107753883507,0.0,0.0,0.0,0.0,0.0,0.0,0.0,0.0,0.0,0.0,0.0,0.0,0.0,0.0,
1.2507,4.374230347119042,3.5333364087975365,4.214038183680017,0.0,0.0,0.0,4.040534979865532,0.0,0.0,0.0,0.0,0.0,0.0,0.0,0.0,0.0,0.0,0.0,0.0,0.0,0.0,
1.2662,4.376915308790948,3.535260837461193,4.2168677973516,0.0,0.0,0.0,4.043014647867913,0.0,0.0,0.0,0.0,0.0,0.0,0.0,0.0,0.0,0.0,0.0,0.0,0.0,0.0,
1.2816,4.379621844091064,3.5372009529586146,4.219722280898483,0.0,0.0,0.0,4.045515025982721,0.0,0.0,0.0,0.0,0.0,0.0,0.0,0.0,0.0,0.0,0.0,0.0,0.0,0.0,
1.2971,4.382385356390398,3.5391821431145676,4.222639075165214,0.0,0.0,0.0,4.048068858223393,0.0,0.0,0.0,0.0,0.0,0.0,0.0,0.0,0.0,0.0,0.0,0.0,0.0,0.0,
1.3125,4.385170443704248,3.5411790377565437,4.225580918597103,0.0,0.0,0.0,4.0506434666859645,0.0,0.0,0.0,0.0,0.0,0.0,0.0,0.0,0.0,0.0,0.0,0.0,0.0,0.0,
1.328,4.388013539438999,3.5432177696247935,4.228586402993704,0.0,0.0,0.0,4.053272570685832,0.0,0.0,0.0,0.0,0.0,0.0,0.0,0.0,0.0,0.0,0.0,0.0,0.0,0.0,
1.3434,4.39087822469031,3.5452722336624647,4.231617139039571,0.0,0.0,0.0,4.055922532464115,0.0,0.0,0.0,0.0,0.0,0.0,0.0,0.0,0.0,0.0,0.0,0.0,0.0,0.0,
1.3588,4.393782983209604,3.5473556938847857,4.234692770897748,0.0,0.0,0.0,4.058610482664046,0.0,0.0,0.0,0.0,0.0,0.0,0.0,0.0,0.0,0.0,0.0,0.0,0.0,0.0,
1.3743,4.396747346538964,3.549482172667934,4.237834119592055,0.0,0.0,0.0,4.061354546266318,0.0,0.0,0.0,0.0,0.0,0.0,0.0,0.0,0.0,0.0,0.0,0.0,0.0,0.0,
1.3897,4.39973334662591,3.551624444620522,4.241001069054256,0.0,0.0,0.0,4.06411962010023,0.0,0.0,0.0,0.0,0.0,0.0,0.0,0.0,0.0,0.0,0.0,0.0,0.0,0.0,
1.4052,4.402780052370321,3.5538105504929285,4.2442351788507775,0.0,0.0,0.0,4.066941927238009,0.0,0.0,0.0,0.0,0.0,0.0,0.0,0.0,0.0,0.0,0.0,0.0,0.0,0.0,
1.4206,4.40584844411903,3.556012503807342,4.247495154591533,0.0,0.0,0.0,4.069785367505968,0.0,0.0,0.0,0.0,0.0,0.0,0.0,0.0,0.0,0.0,0.0,0.0,0.0,0.0,
1.436,4.4089583415408775,3.5582445364087656,4.250802154492227,0.0,0.0,0.0,4.0726683441472895,0.0,0.0,0.0,0.0,0.0,0.0,0.0,0.0,0.0,0.0,0.0,0.0,0.0,0.0,
1.4515,4.412130649856833,3.5605216670619253,4.254178570072769,0.0,0.0,0.0,4.075610295663842,0.0,0.0,0.0,0.0,0.0,0.0,0.0,0.0,0.0,0.0,0.0,0.0,0.0,0.0,
1.4669,4.4153247458066565,3.5628147477929955,4.25758130026676,0.0,0.0,0.0,4.078573597955471,0.0,0.0,0.0,0.0,0.0,0.0,0.0,0.0,0.0,0.0,0.0,0.0,0.0,0.0,
1.4824,4.418582429555027,3.565153799808316,4.261055016413557,0.0,0.0,0.0,4.081597081925634,0.0,0.0,0.0,0.0,0.0,0.0,0.0,0.0,0.0,0.0,0.0,0.0,0.0,0.0,
1.4978,4.421861988162306,3.5675088852549086,4.26455538285933,0.0,0.0,0.0,4.084642085425514,0.0,0.0,0.0,0.0,0.0,0.0,0.0,0.0,0.0,0.0,0.0,0.0,0.0,0.0,
1.5132,4.425184626894811,3.5698952414042995,4.268105147599562,0.0,0.0,0.0,4.087728338632892,0.0,0.0,0.0,0.0,0.0,0.0,0.0,0.0,0.0,0.0,0.0,0.0,0.0,0.0,
1.5287,4.428572678103394,3.5723289238814684,4.271728354959494,0.0,0.0,0.0,4.090876652314786,0.0,0.0,0.0,0.0,0.0,0.0,0.0,0.0,0.0,0.0,0.0,0.0,0.0,0.0,
1.5441,4.43198276545991,3.5747787881159967,4.275378773645821,0.0,0.0,0.0,4.094046775740575,0.0,0.0,0.0,0.0,0.0,0.0,0.0,0.0,0.0,0.0,0.0,0.0,0.0,0.0,
1.5596,4.435459525796201,3.5772769155577815,4.27910434773224,0.0,0.0,0.0,4.097280263028741,0.0,0.0,0.0,0.0,0.0,0.0,0.0,0.0,0.0,0.0,0.0,0.0,0.0,0.0,
1.575,4.438958451309216,3.5797913401283648,4.282857548686035,0.0,0.0,0.0,4.100535780041206,0.0,0.0,0.0,0.0,0.0,0.0,0.0,0.0,0.0,0.0,0.0,0.0,0.0,0.0,
1.5905,4.44252534611465,3.5823549920557713,4.286687679847386,0.0,0.0,0.0,4.103856006005936,0.0,0.0,0.0,0.0,0.0,0.0,0.0,0.0,0.0,0.0,0.0,0.0,0.0,0.0,
1.6059,4.446114553083451,3.5849350702372407,4.290545888402804,0.0,0.0,0.0,4.107198503907831,0.0,0.0,0.0,0.0,0.0,0.0,0.0,0.0,0.0,0.0,0.0,0.0,0.0,0.0,
1.6213,4.4497493109189294,3.5875482904159033,4.2944572932789935,0.0,0.0,0.0,4.110584964871276,0.0,0.0,0.0,0.0,0.0,0.0,0.0,0.0,0.0,0.0,0.0,0.0,0.0,0.0,
1.6368,4.453454050641369,3.5902122361007343,4.298448410697696,0.0,0.0,0.0,4.114038232479934,0.0,0.0,0.0,0.0,0.0,0.0,0.0,0.0,0.0,0.0,0.0,0.0,0.0,0.0,
1.6522,4.45718135808916,3.5928928285662103,4.302468350302172,0.0,0.0,0.0,4.117514178985847,0.0,0.0,0.0,0.0,0.0,0.0,0.0,0.0,0.0,0.0,0.0,0.0,0.0,0.0,
1.6677,4.460980039739336,3.5956251838104563,4.3065699463776905,0.0,0.0,0.0,4.121058389975828,0.0,0.0,0.0,0.0,0.0,0.0,0.0,0.0,0.0,0.0,0.0,0.0,0.0,0.0,
1.6831,4.464801484476087,3.5983743520013314,4.310700911320489,0.0,0.0,0.0,4.124625582599303,0.0,0.0,0.0,0.0,0.0,0.0,0.0,0.0,0.0,0.0,0.0,0.0,0.0,0.0,
1.6985,4.468670457576108,3.6011581611087298,4.314888175162136,0.0,0.0,0.0,4.128238931282325,0.0,0.0,0.0,0.0,0.0,0.0,0.0,0.0,0.0,0.0,0.0,0.0,0.0,0.0,
1.714,4.472612968894444,3.6039953464849495,4.3191601478343955,0.0,0.0,0.0,4.131922821071263,0.0,0.0,0.0,0.0,0.0,0.0,0.0,0.0,0.0,0.0,0.0,0.0,0.0,0.0,
1.7294,4.476578575486048,3.6068496239891057,4.32346238864862,0.0,0.0,0.0,4.135630196041258,0.0,0.0,0.0,0.0,0.0,0.0,0.0,0.0,0.0,0.0,0.0,0.0,0.0,0.0,
1.7449,4.48061921906725,3.609758396124443,4.327851474413905,0.0,0.0,0.0,4.139409696535199,0.0,0.0,0.0,0.0,0.0,0.0,0.0,0.0,0.0,0.0,0.0,0.0,0.0,0.0,
1.7603,4.484683207418383,3.6126844679770547,4.332271485685703,0.0,0.0,0.0,4.143213053693714,0.0,0.0,0.0,0.0,0.0,0.0,0.0,0.0,0.0,0.0,0.0,0.0,0.0,0.0,
1.7757,4.488796901690889,3.6156468322882094,4.336751275829425,0.0,0.0,0.0,4.147065003269508,0.0,0.0,0.0,0.0,0.0,0.0,0.0,0.0,0.0,0.0,0.0,0.0,0.0,0.0,
1.7912,4.4929879652177895,3.6186654328709045,4.341321270900057,0.0,0.0,0.0,4.150991556329584,0.0,0.0,0.0,0.0,0.0,0.0,0.0,0.0,0.0,0.0,0.0,0.0,0.0,0.0,
1.8066,4.497202791748368,3.621701678159952,4.345923269175591,0.0,0.0,0.0,4.154942579694636,0.0,0.0,0.0,0.0,0.0,0.0,0.0,0.0,0.0,0.0,0.0,0.0,0.0,0.0,
1.8221,4.501496604837142,3.6247953683538583,4.350617827995814,0.0,0.0,0.0,4.158969933728938,0.0,0.0,0.0,0.0,0.0,0.0,0.0,0.0,0.0,0.0,0.0,0.0,0.0,0.0,
1.8375,4.505814491428545,3.62790695746858,4.355345175649219,0.0,0.0,0.0,4.163022208182115,0.0,0.0,0.0,0.0,0.0,0.0,0.0,0.0,0.0,0.0,0.0,0.0,0.0,0.0,
1.853,4.510213033135264,3.631077239142966,4.3601675361014465,0.0,0.0,0.0,4.167152602793226,0.0,0.0,0.0,0.0,0.0,0.0,0.0,0.0,0.0,0.0,0.0,0.0,0.0,0.0,
1.8684,4.514635985478357,3.6342656942888936,4.365023528103153,0.0,0.0,0.0,4.171308402623468,0.0,0.0,0.0,0.0,0.0,0.0,0.0,0.0,0.0,0.0,0.0,0.0,0.0,0.0,
1.8838,4.519112074824888,3.637493045670499,4.36994491470784,0.0,0.0,0.0,4.175516678401076,0.0,0.0,0.0,0.0,0.0,0.0,0.0,0.0,0.0,0.0,0.0,0.0,0.0,0.0,
1.8993,4.523671420606564,3.6407810360880672,4.374965181697252,0.0,0.0,0.0,4.179805879463961,0.0,0.0,0.0,0.0,0.0,0.0,0.0,0.0,0.0,0.0,0.0,0.0,0.0,0.0,
1.9147,4.528255735148116,3.6440876517673066,4.380020457959539,0.0,0.0,0.0,4.184121281624987,0.0,0.0,0.0,0.0,0.0,0.0,0.0,0.0,0.0,0.0,0.0,0.0,0.0,0.0,
1.9302,4.532925113500725,3.647456259774485,4.385177333606746,0.0,0.0,0.0,4.188519568960652,0.0,0.0,0.0,0.0,0.0,0.0,0.0,0.0,0.0,0.0,0.0,0.0,0.0,0.0,
1.9456,4.5376198707079,3.65084382322665,4.3903702207227076,0.0,0.0,0.0,4.192944638219085,0.0,0.0,0.0,0.0,0.0,0.0,0.0,0.0,0.0,0.0,0.0,0.0,0.0,0.0,
1.961,4.542370527046379,3.654272379879344,4.395633138499165,0.0,0.0,0.0,4.197425348474963,0.0,0.0,0.0,0.0,0.0,0.0,0.0,0.0,0.0,0.0,0.0,0.0,0.0,0.0,
1.9765,4.5472090691318305,3.657765043143197,4.401001953000415,0.0,0.0,0.0,4.201992021758481,0.0,0.0,0.0,0.0,0.0,0.0,0.0,0.0,0.0,0.0,0.0,0.0,0.0,0.0,
1.9919,4.552073665158041,3.661277202727599,4.406408415907185,0.0,0.0,0.0,4.206586427930941,0.0,0.0,0.0,0.0,0.0,0.0,0.0,0.0,0.0,0.0,0.0,0.0,0.0,0.0,
2.0074,4.557028110623432,3.6648549410499234,4.41192380324712,0.0,0.0,0.0,4.211268951640158,0.0,0.0,0.0,0.0,0.0,0.0,0.0,0.0,0.0,0.0,0.0,0.0,0.0,0.0,
2.0228,4.562009103755694,3.6684525694970813,4.417478029071883,0.0,0.0,0.0,4.215979900774886,0.0,0.0,0.0,0.0,0.0,0.0,0.0,0.0,0.0,0.0,0.0,0.0,0.0,0.0,
