energies(eV),real_xx,real_yy,real_zz,real_xy,real_yz,real_xz,real_ave,imag_xx,imag_yy,imag_zz,imag_xy,imag_yz,imag_xz,imag_ave,absorption_xx,absorption_yy,absorption_zz,absorption_xy,absorption_yz,absorption_xz,absorption_ave,band_gap
0.0,2.8672716287400917,2.8672716287400917,2.989452177137828,0.0,0.0,0.0,2.9079984782060038,0.0,0.0,0.0,0.0,0.0,0.0,0.0,0.0,0.0,0.0,0.0,0.0,0.0,0.0,5.390499999999999
0.0179,2.867276638524209,2.867276638524209,2.9894579871881994,0.0,0.0,0.0,2.9080037547455393,0.0,0.0,0.0,0.0,0.0,0.0,0.0,0.0,0.0,0.0,0.0,0.0,0.0,0.0,
0.0358,2.8672916680926077,2.8672916680926077,2.9894754176140035,0.0,0.0,0.0,2.90801958459974,0.0,0.0,0.0,0.0,0.0,0.0,0.0,0.0,0.0,0.0,0.0,0.0,0.0,0.0,
0.0537,2.8673167180933974,2.8673167180933974,2.989504469239331,0.0,0.0,0.0,2.9080459684753754,0.0,0.0,0.0,0.0,0.0,0.0,0.0,0.0,0.0,0.0,0.0,0.0,0.0,0.0,
0.0716,2.867351789606851,2.867351789606851,2.989545143437827,0.0,0.0,0.0,2.9080829075505097,0.0,0.0,0.0,0.0,0.0,0.0,0.0,0.0,0.0,0.0,0.0,0.0,0.0,0.0,
0.0895,2.8673968841455677,2.8673968841455677,2.9895974421328195,0.0,0.0,0.0,2.9081304034746513,0.0,0.0,0.0,0.0,0.0,0.0,0.0,0.0,0.0,0.0,0.0,0.0,0.0,0.0,
0.1073,2.867451667873895,2.867451667873895,2.989660978369561,0.0,0.0,0.0,2.908188104705784,0.0,0.0,0.0,0.0,0.0,0.0,0.0,0.0,0.0,0.0,0.0,0.0,0.0,0.0,
0.1252,2.8675167587049315,2.8675167587049315,2.9897364690464237,0.0,0.0,0.0,2.908256662152096,0.0,0.0,0.0,0.0,0.0,0.0,0.0,0.0,0.0,0.0,0.0,0.0,0.0,0.0,
0.1431,2.8675918796780095,2.8675918796780095,2.989823593269639,0.0,0.0,0.0,2.908335784208553,0.0,0.0,0.0,0.0,0.0,0.0,0.0,0.0,0.0,0.0,0.0,0.0,0.0,0.0,
0.161,2.867677034034928,2.867677034034928,2.9899223551617804,0.0,0.0,0.0,2.9084254744105453,0.0,0.0,0.0,0.0,0.0,0.0,0.0,0.0,0.0,0.0,0.0,0.0,0.0,0.0,
0.1789,2.867772225451283,2.867772225451283,2.990032759397164,0.0,0.0,0.0,2.908525736766576,0.0,0.0,0.0,0.0,0.0,0.0,0.0,0.0,0.0,0.0,0.0,0.0,0.0,0.0,
0.1968,2.867877458036916,2.867877458036916,2.9901548112026024,0.0,0.0,0.0,2.9086365757588113,0.0,0.0,0.0,0.0,0.0,0.0,0.0,0.0,0.0,0.0,0.0,0.0,0.0,0.0,
0.2147,2.8679927363364452,2.8679927363364452,2.9902885163580293,0.0,0.0,0.0,2.90875799634364,0.0,0.0,0.0,0.0,0.0,0.0,0.0,0.0,0.0,0.0,0.0,0.0,0.0,0.0,
0.2326,2.8681180653298135,2.8681180653298135,2.9904338811974243,0.0,0.0,0.0,2.9088900039523504,0.0,0.0,0.0,0.0,0.0,0.0,0.0,0.0,0.0,0.0,0.0,0.0,0.0,0.0,
0.2505,2.8682534504329062,2.8682534504329062,2.990590912609514,0.0,0.0,0.0,2.9090326044917756,0.0,0.0,0.0,0.0,0.0,0.0,0.0,0.0,0.0,0.0,0.0,0.0,0.0,0.0,
0.2684,2.8683988974983095,2.8683988974983095,2.9907596180388762,0.0,0.0,0.0,2.909185804345165,0.0,0.0,0.0,0.0,0.0,0.0,0.0,0.0,0.0,0.0,0.0,0.0,0.0,0.0,
0.2862,2.868553516036597,2.868553516036597,2.990938965271247,0.0,0.0,0.0,2.9093486657814807,0.0,0.0,0.0,0.0,0.0,0.0,0.0,0.0,0.0,0.0,0.0,0.0,0.0,0.0,
0.3041,2.8687190500302977,2.8687190500302977,2.9911309779620234,0.0,0.0,0.0,2.9095230260075398,0.0,0.0,0.0,0.0,0.0,0.0,0.0,0.0,0.0,0.0,0.0,0.0,0.0,0.0,
0.322,2.8688946661302537,2.8688946661302537,2.9913346902968065,0.0,0.0,0.0,2.909708007519105,0.0,0.0,0.0,0.0,0.0,0.0,0.0,0.0,0.0,0.0,0.0,0.0,0.0,0.0,
0.3399,2.8690803719410654,2.8690803719410654,2.9915501119513324,0.0,0.0,0.0,2.9099036186111547,0.0,0.0,0.0,0.0,0.0,0.0,0.0,0.0,0.0,0.0,0.0,0.0,0.0,0.0,
0.3578,2.8692761755082157,2.8692761755082157,2.9917772531630566,0.0,0.0,0.0,2.910109868059829,0.0,0.0,0.0,0.0,0.0,0.0,0.0,0.0,0.0,0.0,0.0,0.0,0.0,0.0,
0.3757,2.8694820853190857,2.8694820853190857,2.9920161247326167,0.0,0.0,0.0,2.910326765123596,0.0,0.0,0.0,0.0,0.0,0.0,0.0,0.0,0.0,0.0,0.0,0.0,0.0,0.0,
0.3936,2.86969811030405,2.86969811030405,2.992266738025249,0.0,0.0,0.0,2.9105543195444494,0.0,0.0,0.0,0.0,0.0,0.0,0.0,0.0,0.0,0.0,0.0,0.0,0.0,0.0,
0.4115,2.8699242598375614,2.8699242598375614,2.992529104972521,0.0,0.0,0.0,2.9107925415492146,0.0,0.0,0.0,0.0,0.0,0.0,0.0,0.0,0.0,0.0,0.0,0.0,0.0,0.0,
0.4294,2.870160543739374,2.870160543739374,2.992803238073858,0.0,0.0,0.0,2.9110414418508683,0.0,0.0,0.0,0.0,0.0,0.0,0.0,0.0,0.0,0.0,0.0,0.0,0.0,0.0,
0.4473,2.8704069722757497,2.8704069722757497,2.993089150398328,0.0,0.0,0.0,2.9113010316499426,0.0,0.0,0.0,0.0,0.0,0.0,0.0,0.0,0.0,0.0,0.0,0.0,0.0,0.0,
0.4652,2.870663556160841,2.870663556160841,2.9933868555865226,0.0,0.0,0.0,2.911571322636068,0.0,0.0,0.0,0.0,0.0,0.0,0.0,0.0,0.0,0.0,0.0,0.0,0.0,0.0,
0.483,2.8709287880715904,2.8709287880715904,2.9936946059101217,0.0,0.0,0.0,2.911850727351101,0.0,0.0,0.0,0.0,0.0,0.0,0.0,0.0,0.0,0.0,0.0,0.0,0.0,0.0,
0.5009,2.871205659700531,2.871205659700531,2.9940158739569016,0.0,0.0,0.0,2.912142397785988,0.0,0.0,0.0,0.0,0.0,0.0,0.0,0.0,0.0,0.0,0.0,0.0,0.0,0.0,
0.5188,2.871492721452772,2.871492721452772,2.994348979150056,0.0,0.0,0.0,2.9124448073518665,0.0,0.0,0.0,0.0,0.0,0.0,0.0,0.0,0.0,0.0,0.0,0.0,0.0,0.0,
0.5367,2.871789985845467,2.871789985845467,2.994693937432743,0.0,0.0,0.0,2.9127579697078922,0.0,0.0,0.0,0.0,0.0,0.0,0.0,0.0,0.0,0.0,0.0,0.0,0.0,0.0,
0.5546,2.8720974658509664,2.8720974658509664,2.995050765329988,0.0,0.0,0.0,2.91308189901064,0.0,0.0,0.0,0.0,0.0,0.0,0.0,0.0,0.0,0.0,0.0,0.0,0.0,0.0,
0.5725,2.872415174898523,2.872415174898523,2.9954194799510345,0.0,0.0,0.0,2.913416609916027,0.0,0.0,0.0,0.0,0.0,0.0,0.0,0.0,0.0,0.0,0.0,0.0,0.0,0.0,
0.5904,2.872743126875941,2.872743126875941,2.995800098991633,0.0,0.0,0.0,2.9137621175811717,0.0,0.0,0.0,0.0,0.0,0.0,0.0,0.0,0.0,0.0,0.0,0.0,0.0,0.0,
0.6083,2.8730813361314844,2.8730813361314844,2.9961926407367088,0.0,0.0,0.0,2.914118437666559,0.0,0.0,0.0,0.0,0.0,0.0,0.0,0.0,0.0,0.0,0.0,0.0,0.0,0.0,
0.6262,2.873429817475567,2.873429817475567,2.9965971240628355,0.0,0.0,0.0,2.91448558633799,0.0,0.0,0.0,0.0,0.0,0.0,0.0,0.0,0.0,0.0,0.0,0.0,0.0,0.0,
0.6441,2.8737885861827728,2.8737885861827728,2.997013568440951,0.0,0.0,0.0,2.9148635802688325,0.0,0.0,0.0,0.0,0.0,0.0,0.0,0.0,0.0,0.0,0.0,0.0,0.0,0.0,
0.6619,2.8741555674915302,2.8741555674915302,2.997439567182834,0.0,0.0,0.0,2.915250234055298,0.0,0.0,0.0,0.0,0.0,0.0,0.0,0.0,0.0,0.0,0.0,0.0,0.0,0.0,
0.6798,2.874534900919448,2.874534900919448,2.9978799273614927,0.0,0.0,0.0,2.9156499097334625,0.0,0.0,0.0,0.0,0.0,0.0,0.0,0.0,0.0,0.0,0.0,0.0,0.0,0.0,
0.6977,2.874924570244467,2.874924570244467,2.9983323104786836,0.0,0.0,0.0,2.9160604836558726,0.0,0.0,0.0,0.0,0.0,0.0,0.0,0.0,0.0,0.0,0.0,0.0,0.0,0.0,
0.7156,2.8753245926153497,2.8753245926153497,2.9987967384079632,0.0,0.0,0.0,2.9164819745462207,0.0,0.0,0.0,0.0,0.0,0.0,0.0,0.0,0.0,0.0,0.0,0.0,0.0,0.0,
0.7335,2.875734985655393,2.875734985655393,2.999273233631965,0.0,0.0,0.0,2.9169144016475834,0.0,0.0,0.0,0.0,0.0,0.0,0.0,0.0,0.0,0.0,0.0,0.0,0.0,0.0,
0.7514,2.8761557674648284,2.8761557674648284,2.99976181924559,0.0,0.0,0.0,2.9173577847250822,0.0,0.0,0.0,0.0,0.0,0.0,0.0,0.0,0.0,0.0,0.0,0.0,0.0,0.0,
0.7693,2.8765869566230746,2.8765869566230746,3.0002625189593535,0.0,0.0,0.0,2.9178121440685008,0.0,0.0,0.0,0.0,0.0,0.0,0.0,0.0,0.0,0.0,0.0,0.0,0.0,0.0,
0.7872,2.8770285721912163,2.8770285721912163,3.000775357102838,0.0,0.0,0.0,2.9182775004950905,0.0,0.0,0.0,0.0,0.0,0.0,0.0,0.0,0.0,0.0,0.0,0.0,0.0,0.0,
0.8051,2.877480633714449,2.877480633714449,3.0013003586281126,0.0,0.0,0.0,2.918753875352337,0.0,0.0,0.0,0.0,0.0,0.0,0.0,0.0,0.0,0.0,0.0,0.0,0.0,0.0,
0.823,2.8779431612246937,2.8779431612246937,3.001837549113415,0.0,0.0,0.0,2.9192412905209344,0.0,0.0,0.0,0.0,0.0,0.0,0.0,0.0,0.0,0.0,0.0,0.0,0.0,0.0,
0.8409,2.878416175243197,2.878416175243197,3.002386954766825,0.0,0.0,0.0,2.9197397684177395,0.0,0.0,0.0,0.0,0.0,0.0,0.0,0.0,0.0,0.0,0.0,0.0,0.0,0.0,
0.8587,2.87889696631939,2.87889696631939,3.002945430678643,0.0,0.0,0.0,2.920246454439141,0.0,0.0,0.0,0.0,0.0,0.0,0.0,0.0,0.0,0.0,0.0,0.0,0.0,0.0,
0.8766,2.8793909580068164,2.8793909580068164,3.0035192792088243,0.0,0.0,0.0,2.9207670650741524,0.0,0.0,0.0,0.0,0.0,0.0,0.0,0.0,0.0,0.0,0.0,0.0,0.0,0.0,
0.8945,2.8798955006050697,2.8798955006050697,3.0041054251900374,0.0,0.0,0.0,2.9212988088000587,0.0,0.0,0.0,0.0,0.0,0.0,0.0,0.0,0.0,0.0,0.0,0.0,0.0,0.0,
0.9124,2.8804106166175067,2.8804106166175067,3.0047038973851814,0.0,0.0,0.0,2.9218417102067313,0.0,0.0,0.0,0.0,0.0,0.0,0.0,0.0,0.0,0.0,0.0,0.0,0.0,0.0,
0.9303,2.8809363290509387,2.8809363290509387,3.005314725206986,0.0,0.0,0.0,2.9223957944362877,0.0,0.0,0.0,0.0,0.0,0.0,0.0,0.0,0.0,0.0,0.0,0.0,0.0,0.0,
0.9482,2.881472661418794,2.881472661418794,3.0059379387223717,0.0,0.0,0.0,2.9229610871866534,0.0,0.0,0.0,0.0,0.0,0.0,0.0,0.0,0.0,0.0,0.0,0.0,0.0,0.0,
0.9661,2.8820196377441,2.8820196377441,3.0065735686568535,0.0,0.0,0.0,2.9235376147150176,0.0,0.0,0.0,0.0,0.0,0.0,0.0,0.0,0.0,0.0,0.0,0.0,0.0,0.0,
0.984,2.8825772825627833,2.8825772825627833,3.007221646399089,0.0,0.0,0.0,2.924125403841552,0.0,0.0,0.0,0.0,0.0,0.0,0.0,0.0,0.0,0.0,0.0,0.0,0.0,0.0,
1.0019,2.88314562092693,2.88314562092693,3.0078822040055293,0.0,0.0,0.0,2.9247244819531297,0.0,0.0,0.0,0.0,0.0,0.0,0.0,0.0,0.0,0.0,0.0,0.0,0.0,0.0,
1.0198,2.8837246784081527,2.8837246784081527,3.0085552742051633,0.0,0.0,0.0,2.925334877007156,0.0,0.0,0.0,0.0,0.0,0.0,0.0,0.0,0.0,0.0,0.0,0.0,0.0,0.0,
1.0376,2.8843111562180646,2.8843111562180646,3.0092370252347207,0.0,0.0,0.0,2.9259531125569502,0.0,0.0,0.0,0.0,0.0,0.0,0.0,0.0,0.0,0.0,0.0,0.0,0.0,0.0,
1.0555,2.8849116704907103,2.8849116704907103,3.009935151146488,0.0,0.0,0.0,2.926586164042636,0.0,0.0,0.0,0.0,0.0,0.0,0.0,0.0,0.0,0.0,0.0,0.0,0.0,0.0,
1.0734,2.8855229835938516,2.8855229835938516,3.0106458917266767,0.0,0.0,0.0,2.927230619638127,0.0,0.0,0.0,0.0,0.0,0.0,0.0,0.0,0.0,0.0,0.0,0.0,0.0,0.0,
1.0913,2.886145123209258,2.886145123209258,3.011369282440394,0.0,0.0,0.0,2.9278865096196363,0.0,0.0,0.0,0.0,0.0,0.0,0.0,0.0,0.0,0.0,0.0,0.0,0.0,0.0,
1.1092,2.8867781175562146,2.8867781175562146,3.0121053594507314,0.0,0.0,0.0,2.9285538648543867,0.0,0.0,0.0,0.0,0.0,0.0,0.0,0.0,0.0,0.0,0.0,0.0,0.0,0.0,
1.1271,2.8874219953952647,2.8874219953952647,3.012854159624282,0.0,0.0,0.0,2.9292327168049375,0.0,0.0,0.0,0.0,0.0,0.0,0.0,0.0,0.0,0.0,0.0,0.0,0.0,0.0,
1.145,2.888076786032211,2.888076786032211,3.013615720536663,0.0,0.0,0.0,2.9299230975336954,0.0,0.0,0.0,0.0,0.0,0.0,0.0,0.0,0.0,0.0,0.0,0.0,0.0,0.0,
1.1629,2.888742519322086,2.888742519322086,3.0143900804782793,0.0,0.0,0.0,2.930625039707484,0.0,0.0,0.0,0.0,0.0,0.0,0.0,0.0,0.0,0.0,0.0,0.0,0.0,0.0,
1.1808,2.889419225673281,2.889419225673281,3.0151772784600985,0.0,0.0,0.0,2.9313385766022204,0.0,0.0,0.0,0.0,0.0,0.0,0.0,0.0,0.0,0.0,0.0,0.0,0.0,0.0,
1.1987,2.890106936051704,2.890106936051704,3.015977354219633,0.0,0.0,0.0,2.93206374210768,0.0,0.0,0.0,0.0,0.0,0.0,0.0,0.0,0.0,0.0,0.0,0.0,0.0,0.0,
1.2166,2.8908056819850385,2.8908056819850385,3.0167903482270297,0.0,0.0,0.0,2.9328005707323688,0.0,0.0,0.0,0.0,0.0,0.0,0.0,0.0,0.0,0.0,0.0,0.0,0.0,0.0,
1.2344,2.891511499325605,2.891511499325605,3.0176116513516407,0.0,0.0,0.0,2.9335448833342834,0.0,0.0,0.0,0.0,0.0,0.0,0.0,0.0,0.0,0.0,0.0,0.0,0.0,0.0,
1.2523,2.892232351116311,2.892232351116311,3.0184505334755,0.0,0.0,0.0,2.934305078569374,0.0,0.0,0.0,0.0,0.0,0.0,0.0,0.0,0.0,0.0,0.0,0.0,0.0,0.0,
1.2702,2.8929643362726685,2.8929643362726685,3.019302459475707,0.0,0.0,0.0,2.9350770440070146,0.0,0.0,0.0,0.0,0.0,0.0,0.0,0.0,0.0,0.0,0.0,0.0,0.0,0.0,
1.2881,2.893707488610908,2.893707488610908,3.02016747281225,0.0,0.0,0.0,2.9358608166780225,0.0,0.0,0.0,0.0,0.0,0.0,0.0,0.0,0.0,0.0,0.0,0.0,0.0,0.0,
1.306,2.8944618425317907,2.8944618425317907,3.02104561771022,0.0,0.0,0.0,2.9366564342579338,0.0,0.0,0.0,0.0,0.0,0.0,0.0,0.0,0.0,0.0,0.0,0.0,0.0,0.0,
1.3239,2.895227433025453,2.895227433025453,3.0219369391666686,0.0,0.0,0.0,2.937463935072525,0.0,0.0,0.0,0.0,0.0,0.0,0.0,0.0,0.0,0.0,0.0,0.0,0.0,0.0,
1.3418,2.896004295676316,2.896004295676316,3.0228414829577117,0.0,0.0,0.0,2.9382833581034475,0.0,0.0,0.0,0.0,0.0,0.0,0.0,0.0,0.0,0.0,0.0,0.0,0.0,0.0,
1.3597,2.8967924666681624,2.8967924666681624,3.0237592956457098,0.0,0.0,0.0,2.939114742994011,0.0,0.0,0.0,0.0,0.0,0.0,0.0,0.0,0.0,0.0,0.0,0.0,0.0,0.0,
1.3776,2.897591982789267,2.897591982789267,3.024690424586635,0.0,0.0,0.0,2.939958130055056,0.0,0.0,0.0,0.0,0.0,0.0,0.0,0.0,0.0,0.0,0.0,0.0,0.0,0.0,
1.3955,2.89840288143759,2.89840288143759,3.025634917937603,0.0,0.0,0.0,2.9408135602709273,0.0,0.0,0.0,0.0,0.0,0.0,0.0,0.0,0.0,0.0,0.0,0.0,0.0,0.0,
1.4133,2.8992205748704576,2.8992205748704576,3.0265874358805345,0.0,0.0,0.0,2.9416761952071497,0.0,0.0,0.0,0.0,0.0,0.0,0.0,0.0,0.0,0.0,0.0,0.0,0.0,0.0,
1.4312,2.9000542891067163,2.9000542891067163,3.0275587304129186,0.0,0.0,0.0,2.942555769542117,0.0,0.0,0.0,0.0,0.0,0.0,0.0,0.0,0.0,0.0,0.0,0.0,0.0,0.0,
1.4491,2.9008995015554278,2.9008995015554278,3.0285435384258528,0.0,0.0,0.0,2.9434475138455696,0.0,0.0,0.0,0.0,0.0,0.0,0.0,0.0,0.0,0.0,0.0,0.0,0.0,0.0,
1.467,2.9017562521044633,2.9017562521044633,3.0295419113545403,0.0,0.0,0.0,2.944351471854489,0.0,0.0,0.0,0.0,0.0,0.0,0.0,0.0,0.0,0.0,0.0,0.0,0.0,0.0,
1.4849,2.902624581279227,2.902624581279227,3.0305539014752396,0.0,0.0,0.0,2.9452676880112314,0.0,0.0,0.0,0.0,0.0,0.0,0.0,0.0,0.0,0.0,0.0,0.0,0.0,0.0,
1.5028,2.9035045302485374,2.9035045302485374,3.0315795619136594,0.0,0.0,0.0,2.9461962074702446,0.0,0.0,0.0,0.0,0.0,0.0,0.0,0.0,0.0,0.0,0.0,0.0,0.0,0.0,
1.5207,2.904396140830632,2.904396140830632,3.0326189466537445,0.0,0.0,0.0,2.947137076105003,0.0,0.0,0.0,0.0,0.0,0.0,0.0,0.0,0.0,0.0,0.0,0.0,0.0,0.0,
1.5386,2.9052994554993132,2.9052994554993132,3.033672110546424,0.0,0.0,0.0,2.948090340515017,0.0,0.0,0.0,0.0,0.0,0.0,0.0,0.0,0.0,0.0,0.0,0.0,0.0,0.0,
1.5565,2.906214517390217,2.906214517390217,3.034739109318628,0.0,0.0,0.0,2.9490560480330203,0.0,0.0,0.0,0.0,0.0,0.0,0.0,0.0,0.0,0.0,0.0,0.0,0.0,0.0,
1.5744,2.90714137030713,2.90714137030713,3.0358199995825275,0.0,0.0,0.0,2.950034246732262,0.0,0.0,0.0,0.0,0.0,0.0,0.0,0.0,0.0,0.0,0.0,0.0,0.0,0.0,
1.5923,2.9080800587285953,2.9080800587285953,3.036914838844908,0.0,0.0,0.0,2.951024985434033,0.0,0.0,0.0,0.0,0.0,0.0,0.0,0.0,0.0,0.0,0.0,0.0,0.0,0.0,
1.6101,2.909025284287422,2.909025284287422,3.0380174518251546,0.0,0.0,0.0,2.9520226734666664,0.0,0.0,0.0,0.0,0.0,0.0,0.0,0.0,0.0,0.0,0.0,0.0,0.0,0.0,
1.628,2.9099877131282605,2.9099877131282605,3.0391402864795944,0.0,0.0,0.0,2.953038570912039,0.0,0.0,0.0,0.0,0.0,0.0,0.0,0.0,0.0,0.0,0.0,0.0,0.0,0.0,
1.6459,2.9109621147622056,2.9109621147622056,3.0402772477778948,0.0,0.0,0.0,2.954067159100769,0.0,0.0,0.0,0.0,0.0,0.0,0.0,0.0,0.0,0.0,0.0,0.0,0.0,0.0,
1.6638,2.9119485364301214,2.9119485364301214,3.041428396897609,0.0,0.0,0.0,2.9551084899192843,0.0,0.0,0.0,0.0,0.0,0.0,0.0,0.0,0.0,0.0,0.0,0.0,0.0,0.0,
1.6817,2.9129470260819827,2.9129470260819827,3.0425937959606464,0.0,0.0,0.0,2.9561626160415373,0.0,0.0,0.0,0.0,0.0,0.0,0.0,0.0,0.0,0.0,0.0,0.0,0.0,0.0,
1.6996,2.913957632384084,2.913957632384084,3.043773508043861,0.0,0.0,0.0,2.957229590937343,0.0,0.0,0.0,0.0,0.0,0.0,0.0,0.0,0.0,0.0,0.0,0.0,0.0,0.0,
1.7175,2.9149804047265455,2.9149804047265455,3.0449675971897943,0.0,0.0,0.0,2.958309468880962,0.0,0.0,0.0,0.0,0.0,0.0,0.0,0.0,0.0,0.0,0.0,0.0,0.0,0.0,
1.7354,2.916015393230877,2.916015393230877,3.0461761284177125,0.0,0.0,0.0,2.959402304959822,0.0,0.0,0.0,0.0,0.0,0.0,0.0,0.0,0.0,0.0,0.0,0.0,0.0,0.0,
1.7533,2.917062648757673,2.917062648757673,3.0473991677347816,0.0,0.0,0.0,2.960508155083376,0.0,0.0,0.0,0.0,0.0,0.0,0.0,0.0,0.0,0.0,0.0,0.0,0.0,0.0,
1.7712,2.918122222914469,2.918122222914469,3.048636782147552,0.0,0.0,0.0,2.9616270759921632,0.0,0.0,0.0,0.0,0.0,0.0,0.0,0.0,0.0,0.0,0.0,0.0,0.0,0.0,
1.789,2.919188145082858,2.919188145082858,3.0498820030204135,0.0,0.0,0.0,2.962752764395377,0.0,0.0,0.0,0.0,0.0,0.0,0.0,0.0,0.0,0.0,0.0,0.0,0.0,0.0,
1.8069,2.920272444792916,2.920272444792916,3.0511488903157185,0.0,0.0,0.0,2.9638979266338503,0.0,0.0,0.0,0.0,0.0,0.0,0.0,0.0,0.0,0.0,0.0,0.0,0.0,0.0,
1.8248,2.92136922221509,2.92136922221509,3.052430559445994,0.0,0.0,0.0,2.9650563346253915,0.0,0.0,0.0,0.0,0.0,0.0,0.0,0.0,0.0,0.0,0.0,0.0,0.0,0.0,
1.8427,2.922478532022083,2.922478532022083,3.053727081528407,0.0,0.0,0.0,2.9662280485241914,0.0,0.0,0.0,0.0,0.0,0.0,0.0,0.0,0.0,0.0,0.0,0.0,0.0,0.0,
1.8606,2.92360042967519,2.92360042967519,3.0550385287401385,0.0,0.0,0.0,2.9674131293635058,0.0,0.0,0.0,0.0,0.0,0.0,0.0,0.0,0.0,0.0,0.0,0.0,0.0,0.0,
1.8785,2.9247349714331135,2.9247349714331135,3.0563649743313075,0.0,0.0,0.0,2.968611639065845,0.0,0.0,0.0,0.0,0.0,0.0,0.0,0.0,0.0,0.0,0.0,0.0,0.0,0.0,
1.8964,2.9258822143608874,2.9258822143608874,3.057706492638043,0.0,0.0,0.0,2.9698236404532725,0.0,0.0,0.0,0.0,0.0,0.0,0.0,0.0,0.0,0.0,0.0,0.0,0.0,0.0,
1.9143,2.927042216339079,2.927042216339079,3.0590631590959516,0.0,0.0,0.0,2.9710491972580364,0.0,0.0,0.0,0.0,0.0,0.0,0.0,0.0,0.0,0.0,0.0,0.0,0.0,0.0,
1.9322,2.9282150360730945,2.9282150360730945,3.0604350502537883,0.0,0.0,0.0,2.972288374133326,0.0,0.0,0.0,0.0,0.0,0.0,0.0,0.0,0.0,0.0,0.0,0.0,0.0,0.0,
1.9501,2.929400733102713,2.929400733102713,3.061822243787364,0.0,0.0,0.0,2.973541236664263,0.0,0.0,0.0,0.0,0.0,0.0,0.0,0.0,0.0,0.0,0.0,0.0,0.0,0.0,
1.968,2.93059936781178,2.93059936781178,3.0632248185138238,0.0,0.0,0.0,2.974807851379128,0.0,0.0,0.0,0.0,0.0,0.0,0.0,0.0,0.0,0.0,0.0,0.0,0.0,0.0,
1.9858,2.9318041963138812,2.9318041963138812,3.0646348893222783,0.0,0.0,0.0,2.9760810939833466,0.0,0.0,0.0,0.0,0.0,0.0,0.0,0.0,0.0,0.0,0.0,0.0,0.0,0.0,
2.0037,2.933028817818501,2.933028817818501,3.0660683804679327,0.0,0.0,0.0,2.977375338701645,0.0,0.0,0.0,0.0,0.0,0.0,0.0,0.0,0.0,0.0,0.0,0.0,0.0,0.0,
2.0216,2.9342665629639413,2.9342665629639413,3.06751749578914,0.0,0.0,0.0,2.978683540572341,0.0,0.0,0.0,0.0,0.0,0.0,0.0,0.0,0.0,0.0,0.0,0.0,0.0,0.0,
2.0395,2.9355174956060077,2.9355174956060077,3.068982318809646,0.0,0.0,0.0,2.9800057700072204,0.0,0.0,0.0,0.0,0.0,0.0,0.0,0.0,0.0,0.0,0.0,0.0,0.0,0.0,
2.0574,2.9367816804959186,2.9367816804959186,3.0704629342700236,0.0,0.0,0.0,2.9813420984206203,0.0,0.0,0.0,0.0,0.0,0.0,0.0,0.0,0.0,0.0,0.0,0.0,0.0,0.0,
2.0753,2.9380591832910206,2.9380591832910206,3.071959428143657,0.0,0.0,0.0,2.9826925982418993,0.0,0.0,0.0,0.0,0.0,0.0,0.0,0.0,0.0,0.0,0.0,0.0,0.0,0.0,
2.0932,2.939350070566011,2.939350070566011,3.0734718876531413,0.0,0.0,0.0,2.984057342928388,0.0,0.0,0.0,0.0,0.0,0.0,0.0,0.0,0.0,0.0,0.0,0.0,0.0,0.0,
2.1111,2.940654409824142,2.940654409824142,3.0750004012870056,0.0,0.0,0.0,2.9854364069784296,0.0,0.0,0.0,0.0,0.0,0.0,0.0,0.0,0.0,0.0,0.0,0.0,0.0,0.0,
2.129,2.9419722695088204,2.9419722695088204,3.0765450588167074,0.0,0.0,0.0,2.9868298659447827,0.0,0.0,0.0,0.0,0.0,0.0,0.0,0.0,0.0,0.0,0.0,0.0,0.0,0.0,
2.1469,2.9433037190152387,2.9433037190152387,3.078105951314031,0.0,0.0,0.0,2.9882377964481694,0.0,0.0,0.0,0.0,0.0,0.0,0.0,0.0,0.0,0.0,0.0,0.0,0.0,0.0,
2.1647,2.944641276048113,2.944641276048113,3.079674314359949,0.0,0.0,0.0,2.989652288818725,0.0,0.0,0.0,0.0,0.0,0.0,0.0,0.0,0.0,0.0,0.0,0.0,0.0,0.0,
2.1826,2.946000040338734,2.946000040338734,3.0812678632976263,0.0,0.0,0.0,2.9910893146583644,0.0,0.0,0.0,0.0,0.0,0.0,0.0,0.0,0.0,0.0,0.0,0.0,0.0,0.0,
2.2005,2.9473726080618237,2.9473726080618237,3.0828779278646503,0.0,0.0,0.0,2.992541047996099,0.0,0.0,0.0,0.0,0.0,0.0,0.0,0.0,0.0,0.0,0.0,0.0,0.0,0.0,
2.2184,2.9487590525363734,2.9487590525363734,3.08450460450759,0.0,0.0,0.0,2.9940075698601123,0.0,0.0,0.0,0.0,0.0,0.0,0.0,0.0,0.0,0.0,0.0,0.0,0.0,0.0,
2.2363,2.9501594480953397,2.9501594480953397,3.086147991065658,0.0,0.0,0.0,2.9954889624187793,0.0,0.0,0.0,0.0,0.0,0.0,0.0,0.0,0.0,0.0,0.0,0.0,0.0,0.0,
2.2542,2.9515738700989007,2.9515738700989007,3.0878081867903875,0.0,0.0,0.0,2.996985308996063,0.0,0.0,0.0,0.0,0.0,0.0,0.0,0.0,0.0,0.0,0.0,0.0,0.0,0.0,
2.2721,2.953002394947833,2.953002394947833,3.0894852923657528,0.0,0.0,0.0,2.9984966940871396,0.0,0.0,0.0,0.0,0.0,0.0,0.0,0.0,0.0,0.0,0.0,0.0,0.0,0.0,
2.29,2.9544451000972414,2.9544451000972414,3.0911794099284746,0.0,0.0,0.0,3.000023203374319,0.0,0.0,0.0,0.0,0.0,0.0,0.0,0.0,0.0,0.0,0.0,0.0,0.0,0.0,
2.3079,2.9559020640705747,2.9559020640705747,3.0928906430891154,0.0,0.0,0.0,3.0015649237434214,0.0,0.0,0.0,0.0,0.0,0.0,0.0,0.0,0.0,0.0,0.0,0.0,0.0,0.0,
2.3258,2.957373366473843,2.957373366473843,3.094619096953241,0.0,0.0,0.0,3.003121943300309,0.0,0.0,0.0,0.0,0.0,0.0,0.0,0.0,0.0,0.0,0.0,0.0,0.0,0.0,
