energies(eV),real_xx,real_yy,real_zz,real_xy,real_yz,real_xz,real_ave,imag_xx,imag_yy,imag_zz,imag_xy,imag_yz,imag_xz,imag_ave,absorption_xx,absorption_yy,absorption_zz,absorption_xy,absorption_yz,absorption_xz,absorption_ave,band_gap
0.0,2.2342088293877014,2.219667453659957,2.2499877100983396,0.0,0.0,0.0,2.234621331048666,0.0,0.0,0.0,0.0,0.0,0.0,0.0,0.0,0.0,0.0,0.0,0.0,0.0,0.0,8.1289
0.0163,2.2342104450704943,2.219669057056903,2.2499893696928863,0.0,0.0,0.0,2.234622957273428,0.0,0.0,0.0,0.0,0.0,0.0,0.0,0.0,0.0,0.0,0.0,0.0,0.0,0.0,
0.0325,2.234215252563849,2.2196738279935726,2.2499943078469817,0.0,0.0,0.0,2.234627796134801,0.0,0.0,0.0,0.0,0.0,0.0,0.0,0.0,0.0,0.0,0.0,0.0,0.0,0.0,
0.0488,2.2342233113187495,2.2196818254690225,2.2500025856289567,0.0,0.0,0.0,2.2346359074722426,0.0,0.0,0.0,0.0,0.0,0.0,0.0,0.0,0.0,0.0,0.0,0.0,0.0,0.0,
0.065,2.2342345226186855,2.21969295151768,2.2500141016418977,0.0,0.0,0.0,2.2346471919260877,0.0,0.0,0.0,0.0,0.0,0.0,0.0,0.0,0.0,0.0,0.0,0.0,0.0,0.0,
0.0813,2.2342490251061324,2.2197073437281607,2.2500289983000945,0.0,0.0,0.0,2.2346617890447957,0.0,0.0,0.0,0.0,0.0,0.0,0.0,0.0,0.0,0.0,0.0,0.0,0.0,0.0,
0.0976,2.234266759787776,2.2197249435562614,2.2500472150116138,0.0,0.0,0.0,2.2346796394518837,0.0,0.0,0.0,0.0,0.0,0.0,0.0,0.0,0.0,0.0,0.0,0.0,0.0,0.0,
0.1138,2.2342875885400724,2.219745613929302,2.250068609904294,0.0,0.0,0.0,2.2347006041245563,0.0,0.0,0.0,0.0,0.0,0.0,0.0,0.0,0.0,0.0,0.0,0.0,0.0,0.0,
0.1301,2.23431176893801,2.2197696104644344,2.2500934475609964,0.0,0.0,0.0,2.234724942321147,0.0,0.0,0.0,0.0,0.0,0.0,0.0,0.0,0.0,0.0,0.0,0.0,0.0,0.0,
0.1463,2.2343390047816163,2.2197966392147594,2.250121423738366,0.0,0.0,0.0,2.2347523559115805,0.0,0.0,0.0,0.0,0.0,0.0,0.0,0.0,0.0,0.0,0.0,0.0,0.0,0.0,
0.1626,2.234369632878151,2.219827034427509,2.250152884407743,0.0,0.0,0.0,2.2347831839044674,0.0,0.0,0.0,0.0,0.0,0.0,0.0,0.0,0.0,0.0,0.0,0.0,0.0,0.0,
0.1788,2.234403278046128,2.2198604237749664,2.250187444198804,0.0,0.0,0.0,2.2348170486732997,0.0,0.0,0.0,0.0,0.0,0.0,0.0,0.0,0.0,0.0,0.0,0.0,0.0,0.0,
0.1951,2.2344403563527626,2.2198972201619567,2.2502255305002734,0.0,0.0,0.0,2.2348543690049976,0.0,0.0,0.0,0.0,0.0,0.0,0.0,0.0,0.0,0.0,0.0,0.0,0.0,0.0,
0.2114,2.2344806707998384,2.2199372280894454,2.2502669409708487,0.0,0.0,0.0,2.2348949466200443,0.0,0.0,0.0,0.0,0.0,0.0,0.0,0.0,0.0,0.0,0.0,0.0,0.0,0.0,
0.2276,2.234523945162403,2.219980173434009,2.2503113918884385,0.0,0.0,0.0,2.2349385034949503,0.0,0.0,0.0,0.0,0.0,0.0,0.0,0.0,0.0,0.0,0.0,0.0,0.0,0.0,
0.2439,2.234570714585912,2.2200265872738596,2.250359432962298,0.0,0.0,0.0,2.234985578274023,0.0,0.0,0.0,0.0,0.0,0.0,0.0,0.0,0.0,0.0,0.0,0.0,0.0,0.0,
0.2601,2.234620406165093,2.2200759010610662,2.2504104757250527,0.0,0.0,0.0,2.2350355943170706,0.0,0.0,0.0,0.0,0.0,0.0,0.0,0.0,0.0,0.0,0.0,0.0,0.0,0.0,
0.2764,2.234673634403291,2.2201287246287995,2.250465151405474,0.0,0.0,0.0,2.2350891701458546,0.0,0.0,0.0,0.0,0.0,0.0,0.0,0.0,0.0,0.0,0.0,0.0,0.0,0.0,
0.2927,2.234730103597701,2.2201847645242707,2.250523156277815,0.0,0.0,0.0,2.235146008133262,0.0,0.0,0.0,0.0,0.0,0.0,0.0,0.0,0.0,0.0,0.0,0.0,0.0,0.0,
0.3089,2.234789438701072,2.220243648553322,2.2505841051127833,0.0,0.0,0.0,2.235205730789059,0.0,0.0,0.0,0.0,0.0,0.0,0.0,0.0,0.0,0.0,0.0,0.0,0.0,0.0,
0.3252,2.234852373472798,2.220306104899236,2.25064875164516,0.0,0.0,0.0,2.2352690766723984,0.0,0.0,0.0,0.0,0.0,0.0,0.0,0.0,0.0,0.0,0.0,0.0,0.0,0.0,
0.3414,2.2349181369905593,2.2203713685023603,2.250716304004657,0.0,0.0,0.0,2.2353352698325253,0.0,0.0,0.0,0.0,0.0,0.0,0.0,0.0,0.0,0.0,0.0,0.0,0.0,0.0,
0.3577,2.2349875425105665,2.220440246439047,2.250787597590521,0.0,0.0,0.0,2.2354051288467116,0.0,0.0,0.0,0.0,0.0,0.0,0.0,0.0,0.0,0.0,0.0,0.0,0.0,0.0,
0.374,2.2350601954746825,2.220512347152914,2.2508622271353547,0.0,0.0,0.0,2.2354782565876503,0.0,0.0,0.0,0.0,0.0,0.0,0.0,0.0,0.0,0.0,0.0,0.0,0.0,0.0,
0.3902,2.2351356218217466,2.2205872001885756,2.250939705702816,0.0,0.0,0.0,2.2355541759043795,0.0,0.0,0.0,0.0,0.0,0.0,0.0,0.0,0.0,0.0,0.0,0.0,0.0,0.0,
0.4065,2.2352147543035645,2.2206657312106346,2.2510209914480295,0.0,0.0,0.0,2.235633825654076,0.0,0.0,0.0,0.0,0.0,0.0,0.0,0.0,0.0,0.0,0.0,0.0,0.0,0.0,
0.4227,2.235296623585687,2.220746978254944,2.2511050886857507,0.0,0.0,0.0,2.2357162301754605,0.0,0.0,0.0,0.0,0.0,0.0,0.0,0.0,0.0,0.0,0.0,0.0,0.0,0.0,
0.439,2.235382242096934,2.2208319460582864,2.2511930374235156,0.0,0.0,0.0,2.2358024085262453,0.0,0.0,0.0,0.0,0.0,0.0,0.0,0.0,0.0,0.0,0.0,0.0,0.0,0.0,
0.4552,2.2354705610533734,2.2209195938105175,2.251283760361063,0.0,0.0,0.0,2.235891305074985,0.0,0.0,0.0,0.0,0.0,0.0,0.0,0.0,0.0,0.0,0.0,0.0,0.0,0.0,
0.4715,2.235562672644453,2.2210110054037253,2.251378379445571,0.0,0.0,0.0,2.235984019164583,0.0,0.0,0.0,0.0,0.0,0.0,0.0,0.0,0.0,0.0,0.0,0.0,0.0,0.0,
0.4878,2.235658043589194,2.221105651612995,2.251476346911642,0.0,0.0,0.0,2.2360800140379435,0.0,0.0,0.0,0.0,0.0,0.0,0.0,0.0,0.0,0.0,0.0,0.0,0.0,0.0,
0.504,2.2357560608125135,2.22120292402506,2.2515770330213396,0.0,0.0,0.0,2.2361786726196375,0.0,0.0,0.0,0.0,0.0,0.0,0.0,0.0,0.0,0.0,0.0,0.0,0.0,0.0,
0.5203,2.2358579364391553,2.221304025557357,2.2516816829364172,0.0,0.0,0.0,2.236281214977643,0.0,0.0,0.0,0.0,0.0,0.0,0.0,0.0,0.0,0.0,0.0,0.0,0.0,0.0,
0.5365,2.2359624225478623,2.2214077177743308,2.2517890147852775,0.0,0.0,0.0,2.2363863850358237,0.0,0.0,0.0,0.0,0.0,0.0,0.0,0.0,0.0,0.0,0.0,0.0,0.0,0.0,
0.5528,2.236070811262386,2.221515282985689,2.251900355917996,0.0,0.0,0.0,2.2364954833886905,0.0,0.0,0.0,0.0,0.0,0.0,0.0,0.0,0.0,0.0,0.0,0.0,0.0,0.0,
0.5691,2.236182469877339,2.221626093297216,2.252015056434061,0.0,0.0,0.0,2.236607873202872,0.0,0.0,0.0,0.0,0.0,0.0,0.0,0.0,0.0,0.0,0.0,0.0,0.0,0.0,
0.5853,2.236296685635487,2.221739441370109,2.2521323841915857,0.0,0.0,0.0,2.236722837065727,0.0,0.0,0.0,0.0,0.0,0.0,0.0,0.0,0.0,0.0,0.0,0.0,0.0,0.0,
0.6016,2.236414870985301,2.2218567289265323,2.25225379016146,0.0,0.0,0.0,2.2368417966910976,0.0,0.0,0.0,0.0,0.0,0.0,0.0,0.0,0.0,0.0,0.0,0.0,0.0,0.0,
0.6178,2.2365355782259466,2.2219765192670797,2.2523777872308663,0.0,0.0,0.0,2.236963294907964,0.0,0.0,0.0,0.0,0.0,0.0,0.0,0.0,0.0,0.0,0.0,0.0,0.0,0.0,
0.6341,2.2366603000853154,2.222100293784922,2.2525059088515675,0.0,0.0,0.0,2.2370888342406015,0.0,0.0,0.0,0.0,0.0,0.0,0.0,0.0,0.0,0.0,0.0,0.0,0.0,0.0,
0.6504,2.2367883041091847,2.2222273255940355,2.252637402649615,0.0,0.0,0.0,2.237217677450945,0.0,0.0,0.0,0.0,0.0,0.0,0.0,0.0,0.0,0.0,0.0,0.0,0.0,0.0,
0.6666,2.236918777491762,2.2223568080658405,2.2527714336969504,0.0,0.0,0.0,2.2373490064181842,0.0,0.0,0.0,0.0,0.0,0.0,0.0,0.0,0.0,0.0,0.0,0.0,0.0,0.0,
0.6829,2.23705333373849,2.222490342456098,2.252909659538619,0.0,0.0,0.0,2.2374844452444025,0.0,0.0,0.0,0.0,0.0,0.0,0.0,0.0,0.0,0.0,0.0,0.0,0.0,0.0,
0.6991,2.237190324622166,2.222626293059215,2.2530503870415997,0.0,0.0,0.0,2.2376223349076603,0.0,0.0,0.0,0.0,0.0,0.0,0.0,0.0,0.0,0.0,0.0,0.0,0.0,0.0,
0.7154,2.237331444250514,2.2227663411228757,2.2531953565686456,0.0,0.0,0.0,2.237764380647345,0.0,0.0,0.0,0.0,0.0,0.0,0.0,0.0,0.0,0.0,0.0,0.0,0.0,0.0,
0.7317,2.2374758600440154,2.222909660395004,2.253343712879663,0.0,0.0,0.0,2.237909744439561,0.0,0.0,0.0,0.0,0.0,0.0,0.0,0.0,0.0,0.0,0.0,0.0,0.0,0.0,
0.7479,2.237622658729395,2.2230553445408376,2.2534945178235204,0.0,0.0,0.0,2.2380575070312507,0.0,0.0,0.0,0.0,0.0,0.0,0.0,0.0,0.0,0.0,0.0,0.0,0.0,0.0,
0.7642,2.237773655708903,2.2232051951845317,2.2536496363956307,0.0,0.0,0.0,2.2382094957630216,0.0,0.0,0.0,0.0,0.0,0.0,0.0,0.0,0.0,0.0,0.0,0.0,0.0,0.0,
0.7804,2.2379270013764563,2.223357376766864,2.253807168553444,0.0,0.0,0.0,2.2383638488989215,0.0,0.0,0.0,0.0,0.0,0.0,0.0,0.0,0.0,0.0,0.0,0.0,0.0,0.0,
0.7967,2.23808459210242,2.2235137712675788,2.253969062491818,0.0,0.0,0.0,2.2385224752872723,0.0,0.0,0.0,0.0,0.0,0.0,0.0,0.0,0.0,0.0,0.0,0.0,0.0,0.0,
0.8129,2.2382444975162925,2.223672462974303,2.254133335181517,0.0,0.0,0.0,2.2386834318907045,0.0,0.0,0.0,0.0,0.0,0.0,0.0,0.0,0.0,0.0,0.0,0.0,0.0,0.0,
0.8292,2.238408695114959,2.2238354143798347,2.2543020181821225,0.0,0.0,0.0,2.2388487092256386,0.0,0.0,0.0,0.0,0.0,0.0,0.0,0.0,0.0,0.0,0.0,0.0,0.0,0.0,
0.8455,2.2385762114354995,2.224001659415786,2.254474111502096,0.0,0.0,0.0,2.2390173274511276,0.0,0.0,0.0,0.0,0.0,0.0,0.0,0.0,0.0,0.0,0.0,0.0,0.0,0.0,
0.8617,2.23874599176997,2.2241701513831336,2.2546485316636695,0.0,0.0,0.0,2.2391882249389243,0.0,0.0,0.0,0.0,0.0,0.0,0.0,0.0,0.0,0.0,0.0,0.0,0.0,0.0,
0.878,2.238920135742686,2.2243429739790557,2.254827435728253,0.0,0.0,0.0,2.239363515149998,0.0,0.0,0.0,0.0,0.0,0.0,0.0,0.0,0.0,0.0,0.0,0.0,0.0,0.0,
0.8942,2.2390965102308282,2.2245180102722935,2.2550086323241545,0.0,0.0,0.0,2.239541050942425,0.0,0.0,0.0,0.0,0.0,0.0,0.0,0.0,0.0,0.0,0.0,0.0,0.0,0.0,
0.9105,2.239277296412225,2.2246974248974807,2.2551943623230954,0.0,0.0,0.0,2.2397230278776004,0.0,0.0,0.0,0.0,0.0,0.0,0.0,0.0,0.0,0.0,0.0,0.0,0.0,0.0,
0.9268,2.239461419579205,2.2248801513074206,2.255383521699641,0.0,0.0,0.0,2.2399083641954225,0.0,0.0,0.0,0.0,0.0,0.0,0.0,0.0,0.0,0.0,0.0,0.0,0.0,0.0,
0.943,2.2396477233327348,2.225065041880553,2.2555749224764208,0.0,0.0,0.0,2.2400958958965695,0.0,0.0,0.0,0.0,0.0,0.0,0.0,0.0,0.0,0.0,0.0,0.0,0.0,0.0,
0.9593,2.2398385116525126,2.2252543831262903,2.255770931730796,0.0,0.0,0.0,2.240287942169866,0.0,0.0,0.0,0.0,0.0,0.0,0.0,0.0,0.0,0.0,0.0,0.0,0.0,0.0,
0.9755,2.2400314475513543,2.225445855789115,2.255969148588335,0.0,0.0,0.0,2.2404821506429347,0.0,0.0,0.0,0.0,0.0,0.0,0.0,0.0,0.0,0.0,0.0,0.0,0.0,0.0,
0.9918,2.2402289170339555,2.225641827784555,2.2561720244287855,0.0,0.0,0.0,2.240680923082432,0.0,0.0,0.0,0.0,0.0,0.0,0.0,0.0,0.0,0.0,0.0,0.0,0.0,0.0,
1.0081,2.2404297435895892,2.225841131531573,2.2563783506103494,0.0,0.0,0.0,2.2408830752438376,0.0,0.0,0.0,0.0,0.0,0.0,0.0,0.0,0.0,0.0,0.0,0.0,0.0,0.0,
1.0243,2.240632668525258,2.2260425178868193,2.2565868340270026,0.0,0.0,0.0,2.24108734014636,0.0,0.0,0.0,0.0,0.0,0.0,0.0,0.0,0.0,0.0,0.0,0.0,0.0,0.0,
1.0406,2.2408402013892945,2.2262484773779283,2.2568000530383387,0.0,0.0,0.0,2.241296243935187,0.0,0.0,0.0,0.0,0.0,0.0,0.0,0.0,0.0,0.0,0.0,0.0,0.0,0.0,
1.0568,2.2410498001071746,2.2264564872094326,2.2570153959909742,0.0,0.0,0.0,2.2415072277691936,0.0,0.0,0.0,0.0,0.0,0.0,0.0,0.0,0.0,0.0,0.0,0.0,0.0,0.0,
1.0731,2.2412640567689657,2.2266691198286983,2.2572355260862516,0.0,0.0,0.0,2.2417229008946387,0.0,0.0,0.0,0.0,0.0,0.0,0.0,0.0,0.0,0.0,0.0,0.0,0.0,0.0,
1.0893,2.2414803469482774,2.2268837707091738,2.2574577470276713,0.0,0.0,0.0,2.2419406215617075,0.0,0.0,0.0,0.0,0.0,0.0,0.0,0.0,0.0,0.0,0.0,0.0,0.0,0.0,
1.1056,2.2417013454963377,2.2271030944360657,2.2576848070873434,0.0,0.0,0.0,2.242163082339916,0.0,0.0,0.0,0.0,0.0,0.0,0.0,0.0,0.0,0.0,0.0,0.0,0.0,0.0,
1.1219,2.2419257323601007,2.227325780969005,2.257915350097939,0.0,0.0,0.0,2.242388954475681,0.0,0.0,0.0,0.0,0.0,0.0,0.0,0.0,0.0,0.0,0.0,0.0,0.0,0.0,
1.1381,2.24215210454076,2.227550437946378,2.258147934631001,0.0,0.0,0.0,2.242616825706046,0.0,0.0,0.0,0.0,0.0,0.0,0.0,0.0,0.0,0.0,0.0,0.0,0.0,0.0,
1.1544,2.2423832615869728,2.227779843712316,2.2583854371428957,0.0,0.0,0.0,2.242849514147395,0.0,0.0,0.0,0.0,0.0,0.0,0.0,0.0,0.0,0.0,0.0,0.0,0.0,0.0,
1.1706,2.2426163720828685,2.2280111883096323,2.2586249485730203,0.0,0.0,0.0,2.2430841696551735,0.0,0.0,0.0,0.0,0.0,0.0,0.0,0.0,0.0,0.0,0.0,0.0,0.0,0.0,
1.1869,2.242854318919785,2.2282473327982872,2.25886943105559,0.0,0.0,0.0,2.2433236942578874,0.0,0.0,0.0,0.0,0.0,0.0,0.0,0.0,0.0,0.0,0.0,0.0,0.0,0.0,
1.2032,2.243095678674492,2.2284868645463156,2.259117422171611,0.0,0.0,0.0,2.243566655130806,0.0,0.0,0.0,0.0,0.0,0.0,0.0,0.0,0.0,0.0,0.0,0.0,0.0,0.0,
1.2194,2.243338944376779,2.2287282880029737,2.259367373613385,0.0,0.0,0.0,2.2438115353310457,0.0,0.0,0.0,0.0,0.0,0.0,0.0,0.0,0.0,0.0,0.0,0.0,0.0,0.0,
1.2357,2.2435871245239962,2.228974588890203,2.2596223766479735,0.0,0.0,0.0,2.244061363354058,0.0,0.0,0.0,0.0,0.0,0.0,0.0,0.0,0.0,0.0,0.0,0.0,0.0,0.0,
1.2519,2.243837179213069,2.2292227503314805,2.2598793078872923,0.0,0.0,0.0,2.244313079143947,0.0,0.0,0.0,0.0,0.0,0.0,0.0,0.0,0.0,0.0,0.0,0.0,0.0,0.0,
1.2682,2.2440922009129447,2.2294758413897124,2.260141344932929,0.0,0.0,0.0,2.2445697957451958,0.0,0.0,0.0,0.0,0.0,0.0,0.0,0.0,0.0,0.0,0.0,0.0,0.0,0.0,
1.2845,2.244350662079839,2.2297323460954965,2.260406918331049,0.0,0.0,0.0,2.244829975502128,0.0,0.0,0.0,0.0,0.0,0.0,0.0,0.0,0.0,0.0,0.0,0.0,0.0,0.0,
1.3007,2.244610950974196,2.229990664915792,2.2606743720617866,0.0,0.0,0.0,2.2450919959839246,0.0,0.0,0.0,0.0,0.0,0.0,0.0,0.0,0.0,0.0,0.0,0.0,0.0,0.0,
1.317,2.244876286651534,2.2302539925500957,2.2609470138834293,0.0,0.0,0.0,2.2453590976950197,0.0,0.0,0.0,0.0,0.0,0.0,0.0,0.0,0.0,0.0,0.0,0.0,0.0,0.0,
1.3332,2.245143419105357,2.230519103596083,2.261221504393166,0.0,0.0,0.0,2.245628009031535,0.0,0.0,0.0,0.0,0.0,0.0,0.0,0.0,0.0,0.0,0.0,0.0,0.0,0.0,
1.3495,2.2454156520401787,2.230789276767448,2.2615012383911495,0.0,0.0,0.0,2.2459020557329255,0.0,0.0,0.0,0.0,0.0,0.0,0.0,0.0,0.0,0.0,0.0,0.0,0.0,0.0,
1.3657,2.245689650980599,2.231061202826576,2.261782789621523,0.0,0.0,0.0,2.2461778811428994,0.0,0.0,0.0,0.0,0.0,0.0,0.0,0.0,0.0,0.0,0.0,0.0,0.0,0.0,
1.382,2.2459688045647126,2.2313382447842276,2.262069640223526,0.0,0.0,0.0,2.2464588965241554,0.0,0.0,0.0,0.0,0.0,0.0,0.0,0.0,0.0,0.0,0.0,0.0,0.0,0.0,
1.3983,2.2462514381327616,2.2316187406594814,2.2623600694878654,0.0,0.0,0.0,2.2467434160933695,0.0,0.0,0.0,0.0,0.0,0.0,0.0,0.0,0.0,0.0,0.0,0.0,0.0,0.0,
1.4145,2.2465357918391176,2.2319009439237547,2.262652269105371,0.0,0.0,0.0,2.2470296682894144,0.0,0.0,0.0,0.0,0.0,0.0,0.0,0.0,0.0,0.0,0.0,0.0,0.0,0.0,
1.4308,2.246825382404967,2.23218834471174,2.262949852934895,0.0,0.0,0.0,2.2473211933505337,0.0,0.0,0.0,0.0,0.0,0.0,0.0,0.0,0.0,0.0,0.0,0.0,0.0,0.0,
1.447,2.247116662785103,2.2324774228086612,2.2632491761305973,0.0,0.0,0.0,2.247614420574787,0.0,0.0,0.0,0.0,0.0,0.0,0.0,0.0,0.0,0.0,0.0,0.0,0.0,0.0,
1.4633,2.2474132353814102,2.2327717533888247,2.2635539406707768,0.0,0.0,0.0,2.2479129764803374,0.0,0.0,0.0,0.0,0.0,0.0,0.0,0.0,0.0,0.0,0.0,0.0,0.0,0.0,
1.4796,2.2477133193696717,2.2330695691023577,2.263862316677554,0.0,0.0,0.0,2.2482150683831947,0.0,0.0,0.0,0.0,0.0,0.0,0.0,0.0,0.0,0.0,0.0,0.0,0.0,0.0,
1.4958,2.248015047972359,2.2333690172889575,2.264172385871653,0.0,0.0,0.0,2.248518817044323,0.0,0.0,0.0,0.0,0.0,0.0,0.0,0.0,0.0,0.0,0.0,0.0,0.0,0.0,
1.5121,2.2483221528345583,2.2336738013998816,2.2644879831628284,0.0,0.0,0.0,2.248827979132423,0.0,0.0,0.0,0.0,0.0,0.0,0.0,0.0,0.0,0.0,0.0,0.0,0.0,0.0,
1.5283,2.2486308724295245,2.233980188343094,2.2648052431187153,0.0,0.0,0.0,2.2491387679637778,0.0,0.0,0.0,0.0,0.0,0.0,0.0,0.0,0.0,0.0,0.0,0.0,0.0,0.0,
1.5446,2.248945024881502,2.234291967403015,2.265128089602623,0.0,0.0,0.0,2.2494550272957134,0.0,0.0,0.0,0.0,0.0,0.0,0.0,0.0,0.0,0.0,0.0,0.0,0.0,0.0,
1.5609,2.249262722245298,2.234607264910121,2.265454582569273,0.0,0.0,0.0,2.249774856574897,0.0,0.0,0.0,0.0,0.0,0.0,0.0,0.0,0.0,0.0,0.0,0.0,0.0,0.0,
1.5771,2.24958198980337,2.2349241210704234,2.2657826927164137,0.0,0.0,0.0,2.250096267863402,0.0,0.0,0.0,0.0,0.0,0.0,0.0,0.0,0.0,0.0,0.0,0.0,0.0,0.0,
1.5934,2.2499067761614158,2.235246454675903,2.2661164781324423,0.0,0.0,0.0,2.250423236323254,0.0,0.0,0.0,0.0,0.0,0.0,0.0,0.0,0.0,0.0,0.0,0.0,0.0,0.0,
1.6096,2.2502331032709,2.235570317729552,2.2664518506674516,0.0,0.0,0.0,2.2507517572226345,0.0,0.0,0.0,0.0,0.0,0.0,0.0,0.0,0.0,0.0,0.0,0.0,0.0,0.0,
1.6259,2.2505650070678143,2.235899715702377,2.2667929582527133,0.0,0.0,0.0,2.251085893674302,0.0,0.0,0.0,0.0,0.0,0.0,0.0,0.0,0.0,0.0,0.0,0.0,0.0,0.0,
1.6421,2.2508984223479986,2.236230614091754,2.2671356230791027,0.0,0.0,0.0,2.2514215531729516,0.0,0.0,0.0,0.0,0.0,0.0,0.0,0.0,0.0,0.0,0.0,0.0,0.0,0.0,
1.6584,2.2512374727330533,2.236567105400835,2.267484083292066,0.0,0.0,0.0,2.2517628871419846,0.0,0.0,0.0,0.0,0.0,0.0,0.0,0.0,0.0,0.0,0.0,0.0,0.0,0.0,
1.6747,2.2515801186062268,2.2369071654207753,2.26783624283369,0.0,0.0,0.0,2.252107842286897,0.0,0.0,0.0,0.0,0.0,0.0,0.0,0.0,0.0,0.0,0.0,0.0,0.0,0.0,
1.6909,2.251924232342673,2.2372486825901143,2.2681899150979685,0.0,0.0,0.0,2.2524542766769184,0.0,0.0,0.0,0.0,0.0,0.0,0.0,0.0,0.0,0.0,0.0,0.0,0.0,0.0,
1.7072,2.252274069913862,2.2375958807764054,2.268549474407931,0.0,0.0,0.0,2.252806475032733,0.0,0.0,0.0,0.0,0.0,0.0,0.0,0.0,0.0,0.0,0.0,0.0,0.0,0.0,
1.7234,2.2526253465157318,2.2379445075129123,2.2689105170210135,0.0,0.0,0.0,2.253160123683219,0.0,0.0,0.0,0.0,0.0,0.0,0.0,0.0,0.0,0.0,0.0,0.0,0.0,0.0,
1.7397,2.2529824067327757,2.238298874620958,2.2692775084437065,0.0,0.0,0.0,2.253519596599147,0.0,0.0,0.0,0.0,0.0,0.0,0.0,0.0,0.0,0.0,0.0,0.0,0.0,0.0,
1.756,2.2533431012677037,2.2386568490281764,2.269648239777074,0.0,0.0,0.0,2.253882730024318,0.0,0.0,0.0,0.0,0.0,0.0,0.0,0.0,0.0,0.0,0.0,0.0,0.0,0.0,
1.7722,2.253705191866403,2.2390162093667456,2.2700204105826343,0.0,0.0,0.0,2.2542472706052608,0.0,0.0,0.0,0.0,0.0,0.0,0.0,0.0,0.0,0.0,0.0,0.0,0.0,0.0,
1.7885,2.25407315689782,2.239381400248029,2.2703986240439464,0.0,0.0,0.0,2.2546177270632652,0.0,0.0,0.0,0.0,0.0,0.0,0.0,0.0,0.0,0.0,0.0,0.0,0.0,0.0,
1.8047,2.2544424895949637,2.239747948892802,2.2707782480156355,0.0,0.0,0.0,2.2549895621678004,0.0,0.0,0.0,0.0,0.0,0.0,0.0,0.0,0.0,0.0,0.0,0.0,0.0,0.0,
1.821,2.2548177579236204,2.240120388843871,2.271163977893168,0.0,0.0,0.0,2.2553673748868865,0.0,0.0,0.0,0.0,0.0,0.0,0.0,0.0,0.0,0.0,0.0,0.0,0.0,0.0,
1.8373,2.2551967017247585,2.2404964769914333,2.2715534907023978,0.0,0.0,0.0,2.2557488898061964,0.0,0.0,0.0,0.0,0.0,0.0,0.0,0.0,0.0,0.0,0.0,0.0,0.0,0.0,
1.8535,2.2555769708770654,2.2408738809310655,2.2719443708785922,0.0,0.0,0.0,2.2561317408955746,0.0,0.0,0.0,0.0,0.0,0.0,0.0,0.0,0.0,0.0,0.0,0.0,0.0,0.0,
1.8698,2.2559632686513567,2.24125726850665,2.2723414530840422,0.0,0.0,0.0,2.2565206634140162,0.0,0.0,0.0,0.0,0.0,0.0,0.0,0.0,0.0,0.0,0.0,0.0,0.0,0.0,
1.886,2.256350863813383,2.241641944137728,2.2727398741529643,0.0,0.0,0.0,2.2569108940346916,0.0,0.0,0.0,0.0,0.0,0.0,0.0,0.0,0.0,0.0,0.0,0.0,0.0,0.0,
1.9023,2.2567445502727788,2.242032665635066,2.2731445620490347,0.0,0.0,0.0,2.25730725931896,0.0,0.0,0.0,0.0,0.0,0.0,0.0,0.0,0.0,0.0,0.0,0.0,0.0,0.0,
1.9186,2.2571419557572665,2.2424270786076983,2.273553078414904,0.0,0.0,0.0,2.257707370926623,0.0,0.0,0.0,0.0,0.0,0.0,0.0,0.0,0.0,0.0,0.0,0.0,0.0,0.0,
1.9348,2.257540616968239,2.242822738312672,2.2739628911901884,0.0,0.0,0.0,2.2581087488236995,0.0,0.0,0.0,0.0,0.0,0.0,0.0,0.0,0.0,0.0,0.0,0.0,0.0,0.0,
1.9511,2.2579454647296626,2.243224538460975,2.2743790692882584,0.0,0.0,0.0,2.258516357492965,0.0,0.0,0.0,0.0,0.0,0.0,0.0,0.0,0.0,0.0,0.0,0.0,0.0,0.0,
1.9673,2.258351540689985,2.2436275580374856,2.274796515752411,0.0,0.0,0.0,2.2589252048266273,0.0,0.0,0.0,0.0,0.0,0.0,0.0,0.0,0.0,0.0,0.0,0.0,0.0,0.0,
1.9836,2.258763867414019,2.244036781815117,2.275220393949959,0.0,0.0,0.0,2.259340347726365,0.0,0.0,0.0,0.0,0.0,0.0,0.0,0.0,0.0,0.0,0.0,0.0,0.0,0.0,
1.9998,2.2591773949842153,2.244447197890282,2.2756455126550232,0.0,0.0,0.0,2.2597567018431737,0.0,0.0,0.0,0.0,0.0,0.0,0.0,0.0,0.0,0.0,0.0,0.0,0.0,0.0,
2.0161,2.2595972381640133,2.2448638825526643,2.276077130167712,0.0,0.0,0.0,2.260179416961463,0.0,0.0,0.0,0.0,0.0,0.0,0.0,0.0,0.0,0.0,0.0,0.0,0.0,0.0,
2.0324,2.260020865509657,2.245284323418586,2.2765126442804458,0.0,0.0,0.0,2.2606059444028967,0.0,0.0,0.0,0.0,0.0,0.0,0.0,0.0,0.0,0.0,0.0,0.0,0.0,0.0,
2.0486,2.260445652959713,2.2457059161710338,2.2769493574183164,0.0,0.0,0.0,2.2610336421830213,0.0,0.0,0.0,0.0,0.0,0.0,0.0,0.0,0.0,0.0,0.0,0.0,0.0,0.0,
2.0649,2.26087685459919,2.2461338753919007,2.2773926713491823,0.0,0.0,0.0,2.261467800446758,0.0,0.0,0.0,0.0,0.0,0.0,0.0,0.0,0.0,0.0,0.0,0.0,0.0,0.0,
2.0811,2.261309189429973,2.24656295980465,2.2778371569116223,0.0,0.0,0.0,2.2619031020487483,0.0,0.0,0.0,0.0,0.0,0.0,0.0,0.0,0.0,0.0,0.0,0.0,0.0,0.0,
2.0974,2.2617480049251695,2.2469984766898627,2.2782883120507327,0.0,0.0,0.0,2.262344931221922,0.0,0.0,0.0,0.0,0.0,0.0,0.0,0.0,0.0,0.0,0.0,0.0,0.0,0.0,
2.1137,2.2621906542240295,2.247437799099618,2.27874341572162,0.0,0.0,0.0,2.2627906230150896,0.0,0.0,0.0,0.0,0.0,0.0,0.0,0.0,0.0,0.0,0.0,0.0,0.0,0.0,
