energies(eV),real_xx,real_yy,real_zz,real_xy,real_yz,real_xz,real_ave,imag_xx,imag_yy,imag_zz,imag_xy,imag_yz,imag_xz,imag_ave,absorption_xx,absorption_yy,absorption_zz,absorption_xy,absorption_yz,absorption_xz,absorption_ave,band_gap
0.0,3.7368886788896676,3.7368886788896676,3.51480760479652,0.0,0.0,0.0,3.6628616541919516,0.0,0.0,0.0,0.0,0.0,0.0,0.0,0.0,0.0,0.0,0.0,0.0,0.0,0.0,4.2665999999999995
0.0213,3.7369105457273553,3.7369105457273553,3.5148227304303234,0.0,0.0,0.0,3.6628812739616783,0.0,0.0,0.0,0.0,0.0,0.0,0.0,0.0,0.0,0.0,0.0,0.0,0.0,0.0,
0.0426,3.7369761495449305,3.7369761495449305,3.51486810891347,0.0,0.0,0.0,3.6629401360011102,0.0,0.0,0.0,0.0,0.0,0.0,0.0,0.0,0.0,0.0,0.0,0.0,0.0,0.0,
0.0639,3.7370855002574284,3.7370855002574284,3.5149437449916503,0.0,0.0,0.0,3.663038248502169,0.0,0.0,0.0,0.0,0.0,0.0,0.0,0.0,0.0,0.0,0.0,0.0,0.0,0.0,
0.0853,3.73723943648769,3.73723943648769,3.5150502151621033,0.0,0.0,0.0,3.6631763627124947,0.0,0.0,0.0,0.0,0.0,0.0,0.0,0.0,0.0,0.0,0.0,0.0,0.0,0.0,
0.1066,3.737436542837662,3.737436542837662,3.515186535506354,0.0,0.0,0.0,3.6633532070605597,0.0,0.0,0.0,0.0,0.0,0.0,0.0,0.0,0.0,0.0,0.0,0.0,0.0,0.0,
0.1279,3.7376774657043064,3.7376774657043064,3.5153531467603876,0.0,0.0,0.0,3.6635693593896668,0.0,0.0,0.0,0.0,0.0,0.0,0.0,0.0,0.0,0.0,0.0,0.0,0.0,0.0,
0.1492,3.7379622415485296,3.7379622415485296,3.5155500663649986,0.0,0.0,0.0,3.6638248498206862,0.0,0.0,0.0,0.0,0.0,0.0,0.0,0.0,0.0,0.0,0.0,0.0,0.0,0.0,
0.1705,3.7382909134928424,3.7382909134928424,3.5157773149420795,0.0,0.0,0.0,3.6641197139759214,0.0,0.0,0.0,0.0,0.0,0.0,0.0,0.0,0.0,0.0,0.0,0.0,0.0,0.0,
0.1918,3.7386635313402614,3.7386635313402614,3.516034916300763,0.0,0.0,0.0,3.664453992993762,0.0,0.0,0.0,0.0,0.0,0.0,0.0,0.0,0.0,0.0,0.0,0.0,0.0,0.0,
0.2131,3.7390801515962164,3.7390801515962164,3.51632289744502,0.0,0.0,0.0,3.6648277335458173,0.0,0.0,0.0,0.0,0.0,0.0,0.0,0.0,0.0,0.0,0.0,0.0,0.0,0.0,
0.2344,3.739540837493645,3.739540837493645,3.5166412885818072,0.0,0.0,0.0,3.665240987856366,0.0,0.0,0.0,0.0,0.0,0.0,0.0,0.0,0.0,0.0,0.0,0.0,0.0,0.0,
0.2558,3.7400481332844535,3.7400481332844535,3.5169918327067053,0.0,0.0,0.0,3.6656960330918706,0.0,0.0,0.0,0.0,0.0,0.0,0.0,0.0,0.0,0.0,0.0,0.0,0.0,0.0,
0.2771,3.7405973749778316,3.7405973749778316,3.5173712904995535,0.0,0.0,0.0,3.666188680151739,0.0,0.0,0.0,0.0,0.0,0.0,0.0,0.0,0.0,0.0,0.0,0.0,0.0,0.0,
0.2984,3.7411909130793046,3.7411909130793046,3.5177812684171474,0.0,0.0,0.0,3.6667210315252525,0.0,0.0,0.0,0.0,0.0,0.0,0.0,0.0,0.0,0.0,0.0,0.0,0.0,0.0,
0.3197,3.7418288380737654,3.7418288380737654,3.5182218095971827,0.0,0.0,0.0,3.667293161914904,0.0,0.0,0.0,0.0,0.0,0.0,0.0,0.0,0.0,0.0,0.0,0.0,0.0,0.0,
0.341,3.7425112473441073,3.7425112473441073,3.518692960437127,0.0,0.0,0.0,3.6679051517084473,0.0,0.0,0.0,0.0,0.0,0.0,0.0,0.0,0.0,0.0,0.0,0.0,0.0,0.0,
0.3623,3.743238245214649,3.743238245214649,3.5191947706087077,0.0,0.0,0.0,3.6685570870126685,0.0,0.0,0.0,0.0,0.0,0.0,0.0,0.0,0.0,0.0,0.0,0.0,0.0,0.0,
0.3836,3.7440099429977014,3.7440099429977014,3.519727293073334,0.0,0.0,0.0,3.669249059689579,0.0,0.0,0.0,0.0,0.0,0.0,0.0,0.0,0.0,0.0,0.0,0.0,0.0,0.0,
0.4049,3.744826459043531,3.744826459043531,3.5202905840986,0.0,0.0,0.0,3.6699811673952207,0.0,0.0,0.0,0.0,0.0,0.0,0.0,0.0,0.0,0.0,0.0,0.0,0.0,0.0,
0.4263,3.745692069408453,3.745692069408453,3.5208875653719653,0.0,0.0,0.0,3.670757234729624,0.0,0.0,0.0,0.0,0.0,0.0,0.0,0.0,0.0,0.0,0.0,0.0,0.0,0.0,
0.4476,3.7465988174008973,3.7465988174008973,3.5215127208172468,0.0,0.0,0.0,3.6715701185396803,0.0,0.0,0.0,0.0,0.0,0.0,0.0,0.0,0.0,0.0,0.0,0.0,0.0,0.0,
0.4689,3.747550782155681,3.747550782155681,3.5221688339634087,0.0,0.0,0.0,3.6724234660915904,0.0,0.0,0.0,0.0,0.0,0.0,0.0,0.0,0.0,0.0,0.0,0.0,0.0,0.0,
0.4902,3.748548110773808,3.748548110773808,3.5228559745051897,0.0,0.0,0.0,3.6733173986842687,0.0,0.0,0.0,0.0,0.0,0.0,0.0,0.0,0.0,0.0,0.0,0.0,0.0,0.0,
0.5115,3.74959095769403,3.74959095769403,3.5235742155424323,0.0,0.0,0.0,3.6742520436434973,0.0,0.0,0.0,0.0,0.0,0.0,0.0,0.0,0.0,0.0,0.0,0.0,0.0,0.0,
0.5328,3.7506794847631975,3.7506794847631975,3.5243236336030046,0.0,0.0,0.0,3.6752275343764667,0.0,0.0,0.0,0.0,0.0,0.0,0.0,0.0,0.0,0.0,0.0,0.0,0.0,0.0,
0.5541,3.751813861310156,3.751813861310156,3.5251043086671046,0.0,0.0,0.0,3.676244010429139,0.0,0.0,0.0,0.0,0.0,0.0,0.0,0.0,0.0,0.0,0.0,0.0,0.0,0.0,
0.5755,3.7529999148593305,3.7529999148593305,3.525920210522267,0.0,0.0,0.0,3.6773066800803096,0.0,0.0,0.0,0.0,0.0,0.0,0.0,0.0,0.0,0.0,0.0,0.0,0.0,0.0,
0.5968,3.7542267460684746,3.7542267460684746,3.5267638012284395,0.0,0.0,0.0,3.6784057644551296,0.0,0.0,0.0,0.0,0.0,0.0,0.0,0.0,0.0,0.0,0.0,0.0,0.0,0.0,
0.6181,3.755499981350488,3.755499981350488,3.527638910285399,0.0,0.0,0.0,3.6795462909954586,0.0,0.0,0.0,0.0,0.0,0.0,0.0,0.0,0.0,0.0,0.0,0.0,0.0,0.0,
0.6394,3.7568198208136487,3.7568198208136487,3.5285456317648354,0.0,0.0,0.0,3.680728424464044,0.0,0.0,0.0,0.0,0.0,0.0,0.0,0.0,0.0,0.0,0.0,0.0,0.0,0.0,
0.6607,3.7581864724753116,3.7581864724753116,3.5294840633298206,0.0,0.0,0.0,3.681952336093481,0.0,0.0,0.0,0.0,0.0,0.0,0.0,0.0,0.0,0.0,0.0,0.0,0.0,0.0,
0.682,3.7596001523591136,3.7596001523591136,3.530454306265981,0.0,0.0,0.0,3.6832182036614025,0.0,0.0,0.0,0.0,0.0,0.0,0.0,0.0,0.0,0.0,0.0,0.0,0.0,0.0,
0.7033,3.7610610845963905,3.7610610845963905,3.531456465514427,0.0,0.0,0.0,3.6845262115690693,0.0,0.0,0.0,0.0,0.0,0.0,0.0,0.0,0.0,0.0,0.0,0.0,0.0,0.0,
0.7246,3.7625695015318894,3.7625695015318894,3.532490649705616,0.0,0.0,0.0,3.6858765509231315,0.0,0.0,0.0,0.0,0.0,0.0,0.0,0.0,0.0,0.0,0.0,0.0,0.0,0.0,
0.746,3.7641330626127885,3.7641330626127885,3.5335620533742738,0.0,0.0,0.0,3.6872760595332834,0.0,0.0,0.0,0.0,0.0,0.0,0.0,0.0,0.0,0.0,0.0,0.0,0.0,0.0,
0.7673,3.7657374052204524,3.7657374052204524,3.5346607799822065,0.0,0.0,0.0,3.6887118634743707,0.0,0.0,0.0,0.0,0.0,0.0,0.0,0.0,0.0,0.0,0.0,0.0,0.0,0.0,
0.7886,3.7673899811940683,3.7673899811940683,3.5357918804926,0.0,0.0,0.0,3.690190614293579,0.0,0.0,0.0,0.0,0.0,0.0,0.0,0.0,0.0,0.0,0.0,0.0,0.0,0.0,
0.8099,3.7690910569189247,3.7690910569189247,3.536955478678383,0.0,0.0,0.0,3.691712530838744,0.0,0.0,0.0,0.0,0.0,0.0,0.0,0.0,0.0,0.0,0.0,0.0,0.0,0.0,
0.8312,3.7708409075905447,3.7708409075905447,3.5381517021923483,0.0,0.0,0.0,3.693277839124479,0.0,0.0,0.0,0.0,0.0,0.0,0.0,0.0,0.0,0.0,0.0,0.0,0.0,0.0,
0.8525,3.772639817348318,3.772639817348318,3.5393806826093925,0.0,0.0,0.0,3.6948867724353427,0.0,0.0,0.0,0.0,0.0,0.0,0.0,0.0,0.0,0.0,0.0,0.0,0.0,0.0,
0.8738,3.7744880794141644,3.7744880794141644,3.5406425554703875,0.0,0.0,0.0,3.6965395714329055,0.0,0.0,0.0,0.0,0.0,0.0,0.0,0.0,0.0,0.0,0.0,0.0,0.0,0.0,
0.8951,3.776385996236573,3.776385996236573,3.541937460327429,0.0,0.0,0.0,3.6982364842668587,0.0,0.0,0.0,0.0,0.0,0.0,0.0,0.0,0.0,0.0,0.0,0.0,0.0,0.0,
0.9165,3.7783431429781604,3.7783431429781604,3.54327185438394,0.0,0.0,0.0,3.699986046780087,0.0,0.0,0.0,0.0,0.0,0.0,0.0,0.0,0.0,0.0,0.0,0.0,0.0,0.0,
0.9378,3.7803415511839797,3.7803415511839797,3.5446334149721888,0.0,0.0,0.0,3.701772172446716,0.0,0.0,0.0,0.0,0.0,0.0,0.0,0.0,0.0,0.0,0.0,0.0,0.0,0.0,
0.9591,3.7823905799490887,3.7823905799490887,3.5460284514789833,0.0,0.0,0.0,3.7036032037923867,0.0,0.0,0.0,0.0,0.0,0.0,0.0,0.0,0.0,0.0,0.0,0.0,0.0,0.0,
0.9804,3.7844905702238503,3.7844905702238503,3.5474571200052756,0.0,0.0,0.0,3.705479420150992,0.0,0.0,0.0,0.0,0.0,0.0,0.0,0.0,0.0,0.0,0.0,0.0,0.0,0.0,
1.0017,3.78664187298934,3.78664187298934,3.5489195809136658,0.0,0.0,0.0,3.707401108964115,0.0,0.0,0.0,0.0,0.0,0.0,0.0,0.0,0.0,0.0,0.0,0.0,0.0,0.0,
1.023,3.788844849435965,3.788844849435965,3.5504159988835062,0.0,0.0,0.0,3.7093685659184783,0.0,0.0,0.0,0.0,0.0,0.0,0.0,0.0,0.0,0.0,0.0,0.0,0.0,0.0,
1.0443,3.791099871148465,3.791099871148465,3.55194654296775,0.0,0.0,0.0,3.711382095088227,0.0,0.0,0.0,0.0,0.0,0.0,0.0,0.0,0.0,0.0,0.0,0.0,0.0,0.0,
1.0657,3.793418277653867,3.793418277653867,3.5535188145076675,0.0,0.0,0.0,3.713451789938467,0.0,0.0,0.0,0.0,0.0,0.0,0.0,0.0,0.0,0.0,0.0,0.0,0.0,0.0,
1.087,3.7957787961210525,3.7957787961210525,3.5551182980621814,0.0,0.0,0.0,3.715558630101429,0.0,0.0,0.0,0.0,0.0,0.0,0.0,0.0,0.0,0.0,0.0,0.0,0.0,0.0,
1.1083,3.7981925408465003,3.7981925408465003,3.5567524425946324,0.0,0.0,0.0,3.7177125080958775,0.0,0.0,0.0,0.0,0.0,0.0,0.0,0.0,0.0,0.0,0.0,0.0,0.0,0.0,
1.1296,3.800659927029797,3.800659927029797,3.558421435279095,0.0,0.0,0.0,3.719913763112896,0.0,0.0,0.0,0.0,0.0,0.0,0.0,0.0,0.0,0.0,0.0,0.0,0.0,0.0,
1.1509,3.8031813812937303,3.8031813812937303,3.560125467975555,0.0,0.0,0.0,3.722162743521005,0.0,0.0,0.0,0.0,0.0,0.0,0.0,0.0,0.0,0.0,0.0,0.0,0.0,0.0,
1.1722,3.8057573419120194,3.8057573419120194,3.561864737298346,0.0,0.0,0.0,3.7244598070407946,0.0,0.0,0.0,0.0,0.0,0.0,0.0,0.0,0.0,0.0,0.0,0.0,0.0,0.0,
1.1935,3.8083882590450715,3.8083882590450715,3.56363944468658,0.0,0.0,0.0,3.7268053209255743,0.0,0.0,0.0,0.0,0.0,0.0,0.0,0.0,0.0,0.0,0.0,0.0,0.0,0.0,
1.2148,3.811074594983866,3.811074594983866,3.5654497964767313,0.0,0.0,0.0,3.7291996621481545,0.0,0.0,0.0,0.0,0.0,0.0,0.0,0.0,0.0,0.0,0.0,0.0,0.0,0.0,
1.2362,3.8138298313033165,3.8138298313033165,3.5673047565207012,0.0,0.0,0.0,3.731654806375778,0.0,0.0,0.0,0.0,0.0,0.0,0.0,0.0,0.0,0.0,0.0,0.0,0.0,0.0,
1.2575,3.8166287073880794,3.8166287073880794,3.569187205960494,0.0,0.0,0.0,3.734148206912218,0.0,0.0,0.0,0.0,0.0,0.0,0.0,0.0,0.0,0.0,0.0,0.0,0.0,0.0,
1.2788,3.819484466883083,3.819484466883083,3.5711059500071483,0.0,0.0,0.0,3.736691627924438,0.0,0.0,0.0,0.0,0.0,0.0,0.0,0.0,0.0,0.0,0.0,0.0,0.0,0.0,
1.3001,3.822397623277923,3.822397623277923,3.5730612153821517,0.0,0.0,0.0,3.739285487312666,0.0,0.0,0.0,0.0,0.0,0.0,0.0,0.0,0.0,0.0,0.0,0.0,0.0,0.0,
1.3214,3.8253687035473245,3.8253687035473245,3.5750532341019756,0.0,0.0,0.0,3.7419302137322084,0.0,0.0,0.0,0.0,0.0,0.0,0.0,0.0,0.0,0.0,0.0,0.0,0.0,0.0,
1.3427,3.8283982484505086,3.8283982484505086,3.577082243564903,0.0,0.0,0.0,3.7446262468219733,0.0,0.0,0.0,0.0,0.0,0.0,0.0,0.0,0.0,0.0,0.0,0.0,0.0,0.0,
1.364,3.8314868128413413,3.8314868128413413,3.579148486640314,0.0,0.0,0.0,3.7473740374409985,0.0,0.0,0.0,0.0,0.0,0.0,0.0,0.0,0.0,0.0,0.0,0.0,0.0,0.0,
1.3853,3.834634965989079,3.834634965989079,3.5812522117607757,0.0,0.0,0.0,3.750174047912978,0.0,0.0,0.0,0.0,0.0,0.0,0.0,0.0,0.0,0.0,0.0,0.0,0.0,0.0,
1.4067,3.837858497325412,3.837858497325412,3.583403816231087,0.0,0.0,0.0,3.7530402702939702,0.0,0.0,0.0,0.0,0.0,0.0,0.0,0.0,0.0,0.0,0.0,0.0,0.0,0.0,
1.428,3.841127881879223,3.841127881879223,3.5855834524755776,0.0,0.0,0.0,3.755946405411341,0.0,0.0,0.0,0.0,0.0,0.0,0.0,0.0,0.0,0.0,0.0,0.0,0.0,0.0,
1.4493,3.844458655791053,3.844458655791053,3.587801351665163,0.0,0.0,0.0,3.758906221082423,0.0,0.0,0.0,0.0,0.0,0.0,0.0,0.0,0.0,0.0,0.0,0.0,0.0,0.0,
1.4706,3.847851449505426,3.847851449505426,3.5900577854897313,0.0,0.0,0.0,3.7619202281668613,0.0,0.0,0.0,0.0,0.0,0.0,0.0,0.0,0.0,0.0,0.0,0.0,0.0,0.0,
1.4919,3.851306909664747,3.851306909664747,3.5923530317058505,0.0,0.0,0.0,3.764988950345115,0.0,0.0,0.0,0.0,0.0,0.0,0.0,0.0,0.0,0.0,0.0,0.0,0.0,0.0,
1.5132,3.8548256995040533,3.8548256995040533,3.59468737424653,0.0,0.0,0.0,3.768112924418212,0.0,0.0,0.0,0.0,0.0,0.0,0.0,0.0,0.0,0.0,0.0,0.0,0.0,0.0,
1.5345,3.8584084992595304,3.8584084992595304,3.5970611033343234,0.0,0.0,0.0,3.7712927006177943,0.0,0.0,0.0,0.0,0.0,0.0,0.0,0.0,0.0,0.0,0.0,0.0,0.0,0.0,
1.5559,3.862073284768829,3.862073284768829,3.599485940237251,0.0,0.0,0.0,3.77454416992497,0.0,0.0,0.0,0.0,0.0,0.0,0.0,0.0,0.0,0.0,0.0,0.0,0.0,0.0,
1.5772,3.8657865240682634,3.8657865240682634,3.601939527285276,0.0,0.0,0.0,3.777837525140601,0.0,0.0,0.0,0.0,0.0,0.0,0.0,0.0,0.0,0.0,0.0,0.0,0.0,0.0,
1.5985,3.869565923797039,3.869565923797039,3.6044334119374333,0.0,0.0,0.0,3.781188419843837,0.0,0.0,0.0,0.0,0.0,0.0,0.0,0.0,0.0,0.0,0.0,0.0,0.0,0.0,
1.6198,3.873412236671308,3.873412236671308,3.606967910806238,0.0,0.0,0.0,3.784597461382951,0.0,0.0,0.0,0.0,0.0,0.0,0.0,0.0,0.0,0.0,0.0,0.0,0.0,0.0,
1.6411,3.877326234683626,3.877326234683626,3.609543347412465,0.0,0.0,0.0,3.7880652722599053,0.0,0.0,0.0,0.0,0.0,0.0,0.0,0.0,0.0,0.0,0.0,0.0,0.0,0.0,
1.6624,3.8813087096077634,3.8813087096077634,3.612160052320148,0.0,0.0,0.0,3.7915924905118916,0.0,0.0,0.0,0.0,0.0,0.0,0.0,0.0,0.0,0.0,0.0,0.0,0.0,0.0,
1.6837,3.8853604735220215,3.8853604735220215,3.6148183632757465,0.0,0.0,0.0,3.7951797701065964,0.0,0.0,0.0,0.0,0.0,0.0,0.0,0.0,0.0,0.0,0.0,0.0,0.0,0.0,
1.705,3.889482359351534,3.889482359351534,3.6175186253512717,0.0,0.0,0.0,3.7988277813514464,0.0,0.0,0.0,0.0,0.0,0.0,0.0,0.0,0.0,0.0,0.0,0.0,0.0,0.0,
1.7264,3.8936950749943535,3.8936950749943535,3.6202741673227083,0.0,0.0,0.0,3.8025547724371385,0.0,0.0,0.0,0.0,0.0,0.0,0.0,0.0,0.0,0.0,0.0,0.0,0.0,0.0,
1.7477,3.8979601290868717,3.8979601290868717,3.623059598060672,0.0,0.0,0.0,3.806326618744805,0.0,0.0,0.0,0.0,0.0,0.0,0.0,0.0,0.0,0.0,0.0,0.0,0.0,0.0,
1.769,3.902297938951874,3.902297938951874,3.6258880623333525,0.0,0.0,0.0,3.8101613134123666,0.0,0.0,0.0,0.0,0.0,0.0,0.0,0.0,0.0,0.0,0.0,0.0,0.0,0.0,
1.7903,3.906709426845723,3.906709426845723,3.62875993607482,0.0,0.0,0.0,3.8140595965887556,0.0,0.0,0.0,0.0,0.0,0.0,0.0,0.0,0.0,0.0,0.0,0.0,0.0,0.0,
1.8116,3.911195538901512,3.911195538901512,3.6316756033301067,0.0,0.0,0.0,3.818022227044377,0.0,0.0,0.0,0.0,0.0,0.0,0.0,0.0,0.0,0.0,0.0,0.0,0.0,0.0,
1.8329,3.915757245804069,3.915757245804069,3.6346354564268184,0.0,0.0,0.0,3.822049982678319,0.0,0.0,0.0,0.0,0.0,0.0,0.0,0.0,0.0,0.0,0.0,0.0,0.0,0.0,
1.8542,3.920395543490282,3.920395543490282,3.637639896152077,0.0,0.0,0.0,3.8261436610442137,0.0,0.0,0.0,0.0,0.0,0.0,0.0,0.0,0.0,0.0,0.0,0.0,0.0,0.0,
1.8755,3.9251114538760676,3.9251114538760676,3.6406893319350004,0.0,0.0,0.0,3.8303040798957118,0.0,0.0,0.0,0.0,0.0,0.0,0.0,0.0,0.0,0.0,0.0,0.0,0.0,0.0,
1.8969,3.9299287225405597,3.9299287225405597,3.643798819624092,0.0,0.0,0.0,3.8345520882350708,0.0,0.0,0.0,0.0,0.0,0.0,0.0,0.0,0.0,0.0,0.0,0.0,0.0,0.0,
1.9182,3.9348034087288277,3.9348034087288277,3.6469397275648636,0.0,0.0,0.0,3.83884884834084,0.0,0.0,0.0,0.0,0.0,0.0,0.0,0.0,0.0,0.0,0.0,0.0,0.0,0.0,
1.9395,3.939758942185408,3.939758942185408,3.650126915684506,0.0,0.0,0.0,3.843214933351774,0.0,0.0,0.0,0.0,0.0,0.0,0.0,0.0,0.0,0.0,0.0,0.0,0.0,0.0,
1.9608,3.9447964567246743,3.9447964567246743,3.6533608299657523,0.0,0.0,0.0,3.8476512478050338,0.0,0.0,0.0,0.0,0.0,0.0,0.0,0.0,0.0,0.0,0.0,0.0,0.0,0.0,
1.9821,3.949917116220625,3.949917116220625,3.656641926035766,0.0,0.0,0.0,3.8521587194923383,0.0,0.0,0.0,0.0,0.0,0.0,0.0,0.0,0.0,0.0,0.0,0.0,0.0,0.0,
2.0034,3.9551221155202323,3.9551221155202323,3.659970669385973,0.0,0.0,0.0,3.856738300142146,0.0,0.0,0.0,0.0,0.0,0.0,0.0,0.0,0.0,0.0,0.0,0.0,0.0,0.0,
2.0247,3.9604126813927656,3.9604126813927656,3.663347535598702,0.0,0.0,0.0,3.8613909661280776,0.0,0.0,0.0,0.0,0.0,0.0,0.0,0.0,0.0,0.0,0.0,0.0,0.0,0.0,
2.0461,3.965815526288976,3.965815526288976,3.6667892080424944,0.0,0.0,0.0,3.8661400868734823,0.0,0.0,0.0,0.0,0.0,0.0,0.0,0.0,0.0,0.0,0.0,0.0,0.0,0.0,
2.0674,3.9712814550939144,3.9712814550939144,3.6702640199976893,0.0,0.0,0.0,3.870942310061839,0.0,0.0,0.0,0.0,0.0,0.0,0.0,0.0,0.0,0.0,0.0,0.0,0.0,0.0,
2.0887,3.976836838706873,3.976836838706873,3.673788446893978,0.0,0.0,0.0,3.8758207081025744,0.0,0.0,0.0,0.0,0.0,0.0,0.0,0.0,0.0,0.0,0.0,0.0,0.0,0.0,
2.11,3.9824830420352395,3.9824830420352395,3.677363007147325,0.0,0.0,0.0,3.8807763637392676,0.0,0.0,0.0,0.0,0.0,0.0,0.0,0.0,0.0,0.0,0.0,0.0,0.0,0.0,
2.1313,3.9882214672646272,3.9882214672646272,3.680988230514392,0.0,0.0,0.0,3.8858103883478825,0.0,0.0,0.0,0.0,0.0,0.0,0.0,0.0,0.0,0.0,0.0,0.0,0.0,0.0,
2.1526,3.994053555063472,3.994053555063472,3.684664658367428,0.0,0.0,0.0,3.890923922831457,0.0,0.0,0.0,0.0,0.0,0.0,0.0,0.0,0.0,0.0,0.0,0.0,0.0,0.0,
2.1739,3.9999807858377663,3.9999807858377663,3.6883928439780984,0.0,0.0,0.0,3.8961181385512105,0.0,0.0,0.0,0.0,0.0,0.0,0.0,0.0,0.0,0.0,0.0,0.0,0.0,0.0,
2.1952,4.00600468103788,4.00600468103788,3.692173352810776,0.0,0.0,0.0,3.9013942382955125,0.0,0.0,0.0,0.0,0.0,0.0,0.0,0.0,0.0,0.0,0.0,0.0,0.0,0.0,
2.2166,4.012155781065676,4.012155781065676,3.696024885746129,0.0,0.0,0.0,3.9067788159591603,0.0,0.0,0.0,0.0,0.0,0.0,0.0,0.0,0.0,0.0,0.0,0.0,0.0,0.0,
2.2379,4.018378213088727,4.018378213088727,3.699912040263103,0.0,0.0,0.0,3.9122228221468522,0.0,0.0,0.0,0.0,0.0,0.0,0.0,0.0,0.0,0.0,0.0,0.0,0.0,0.0,
2.2592,4.024702141934101,4.024702141934101,3.703853293501976,0.0,0.0,0.0,3.917752525790059,0.0,0.0,0.0,0.0,0.0,0.0,0.0,0.0,0.0,0.0,0.0,0.0,0.0,0.0,
2.2805,4.031129267662492,4.031129267662492,3.707849262898277,0.0,0.0,0.0,3.9233692660744204,0.0,0.0,0.0,0.0,0.0,0.0,0.0,0.0,0.0,0.0,0.0,0.0,0.0,0.0,
2.3018,4.037661338801655,4.037661338801655,3.7119005797042455,0.0,0.0,0.0,3.9290744191025184,0.0,0.0,0.0,0.0,0.0,0.0,0.0,0.0,0.0,0.0,0.0,0.0,0.0,0.0,
2.3231,4.044300154027267,4.044300154027267,3.7160078893473836,0.0,0.0,0.0,3.934869399133973,0.0,0.0,0.0,0.0,0.0,0.0,0.0,0.0,0.0,0.0,0.0,0.0,0.0,0.0,
2.3444,4.051047563917471,4.051047563917471,3.7201718518015596,0.0,0.0,0.0,3.9407556598788336,0.0,0.0,0.0,0.0,0.0,0.0,0.0,0.0,0.0,0.0,0.0,0.0,0.0,0.0,
2.3657,4.057905472785104,4.057905472785104,3.724393141970995,0.0,0.0,0.0,3.9467346958470677,0.0,0.0,0.0,0.0,0.0,0.0,0.0,0.0,0.0,0.0,0.0,0.0,0.0,0.0,
2.3871,4.064908833707479,4.064908833707479,3.728692678674556,0.0,0.0,0.0,3.952836782029838,0.0,0.0,0.0,0.0,0.0,0.0,0.0,0.0,0.0,0.0,0.0,0.0,0.0,0.0,
2.4084,4.071994220364167,4.071994220364167,3.733030988100573,0.0,0.0,0.0,3.9590064762763024,0.0,0.0,0.0,0.0,0.0,0.0,0.0,0.0,0.0,0.0,0.0,0.0,0.0,0.0,
2.4297,4.079196170817703,4.079196170817703,3.7374287470133294,0.0,0.0,0.0,3.965273696216245,0.0,0.0,0.0,0.0,0.0,0.0,0.0,0.0,0.0,0.0,0.0,0.0,0.0,0.0,
2.451,4.086516824640119,4.086516824640119,3.7418866942377123,0.0,0.0,0.0,3.9716401145059836,0.0,0.0,0.0,0.0,0.0,0.0,0.0,0.0,0.0,0.0,0.0,0.0,0.0,0.0,
2.4723,4.093958385627419,4.093958385627419,3.7464055856663045,0.0,0.0,0.0,3.978107452307047,0.0,0.0,0.0,0.0,0.0,0.0,0.0,0.0,0.0,0.0,0.0,0.0,0.0,0.0,
2.4936,4.101523124193248,4.101523124193248,3.7509861947339145,0.0,0.0,0.0,3.984677481040137,0.0,0.0,0.0,0.0,0.0,0.0,0.0,0.0,0.0,0.0,0.0,0.0,0.0,0.0,
2.5149,4.1092133798749595,4.1092133798749595,3.755629312909401,0.0,0.0,0.0,3.9913520242197733,0.0,0.0,0.0,0.0,0.0,0.0,0.0,0.0,0.0,0.0,0.0,0.0,0.0,0.0,
2.5363,4.11706857464649,4.11706857464649,3.7603579967888976,0.0,0.0,0.0,3.9981650486939593,0.0,0.0,0.0,0.0,0.0,0.0,0.0,0.0,0.0,0.0,0.0,0.0,0.0,0.0,
2.5576,4.12501779117017,4.12501779117017,3.765128885444152,0.0,0.0,0.0,4.005054822594831,0.0,0.0,0.0,0.0,0.0,0.0,0.0,0.0,0.0,0.0,0.0,0.0,0.0,0.0,
2.5789,4.133099997260907,4.133099997260907,3.7699647750473493,0.0,0.0,0.0,4.012054923189721,0.0,0.0,0.0,0.0,0.0,0.0,0.0,0.0,0.0,0.0,0.0,0.0,0.0,0.0,
2.6002,4.141317836866152,4.141317836866152,3.7748665345956716,0.0,0.0,0.0,4.0191674027759925,0.0,0.0,0.0,0.0,0.0,0.0,0.0,0.0,0.0,0.0,0.0,0.0,0.0,0.0,
2.6215,4.149674037518464,4.149674037518464,3.7798350538727754,0.0,0.0,0.0,4.026394376303235,0.0,0.0,0.0,0.0,0.0,0.0,0.0,0.0,0.0,0.0,0.0,0.0,0.0,0.0,
2.6428,4.158171413661989,4.158171413661989,3.784871244063241,0.0,0.0,0.0,4.03373802379574,0.0,0.0,0.0,0.0,0.0,0.0,0.0,0.0,0.0,0.0,0.0,0.0,0.0,0.0,
2.6641,4.166812870144847,4.166812870144847,3.789976038390791,0.0,0.0,0.0,4.041200592893495,0.0,0.0,0.0,0.0,0.0,0.0,0.0,0.0,0.0,0.0,0.0,0.0,0.0,0.0,
2.6854,4.175601405886966,4.175601405886966,3.7951503927813897,0.0,0.0,0.0,4.04878440151844,0.0,0.0,0.0,0.0,0.0,0.0,0.0,0.0,0.0,0.0,0.0,0.0,0.0,0.0,
2.7068,4.184582442699034,4.184582442699034,3.800420078401499,0.0,0.0,0.0,4.056528321266522,0.0,0.0,0.0,0.0,0.0,0.0,0.0,0.0,0.0,0.0,0.0,0.0,0.0,0.0,
2.7281,4.193675257255098,4.193675257255098,3.805736853265994,0.0,0.0,0.0,4.064362455925397,0.0,0.0,0.0,0.0,0.0,0.0,0.0,0.0,0.0,0.0,0.0,0.0,0.0,0.0,
2.7494,4.202924767576576,4.202924767576576,3.8111262041034304,0.0,0.0,0.0,4.072325246418861,0.0,0.0,0.0,0.0,0.0,0.0,0.0,0.0,0.0,0.0,0.0,0.0,0.0,0.0,
2.7707,4.212334389979308,4.212334389979308,3.8165891849443803,0.0,0.0,0.0,4.080419321634332,0.0,0.0,0.0,0.0,0.0,0.0,0.0,0.0,0.0,0.0,0.0,0.0,0.0,0.0,
