energies(eV),real_xx,real_yy,real_zz,real_xy,real_yz,real_xz,real_ave,imag_xx,imag_yy,imag_zz,imag_xy,imag_yz,imag_xz,imag_ave,absorption_xx,absorption_yy,absorption_zz,absorption_xy,absorption_yz,absorption_xz,absorption_ave,band_gap
0.0,3.03222254919493,2.9913018603913994,2.938042776816329,0.0,0.0,0.043429309796835444,2.987189062134219,0.0,0.0,0.0,0.0,0.0,0.0,0.0,0.0,0.0,0.0,0.0,0.0,0.0,0.0,4.7743
0.016,3.032226595155046,2.9913055360844485,2.938046620685694,0.0,0.0,0.04342937289160722,2.987192917308396,0.0,0.0,0.0,0.0,0.0,0.0,0.0,0.0,0.0,0.0,0.0,0.0,0.0,0.0,
0.0321,3.0322388345097773,2.991316655327654,2.9380582486984763,0.0,0.0,0.043429563755102533,2.9872045795119693,0.0,0.0,0.0,0.0,0.0,0.0,0.0,0.0,0.0,0.0,0.0,0.0,0.0,0.0,
0.0481,3.0322591157158456,2.9913350803754817,2.938077516877268,0.0,0.0,0.04342988001439703,2.987223904322865,0.0,0.0,0.0,0.0,0.0,0.0,0.0,0.0,0.0,0.0,0.0,0.0,0.0,0.0,
0.0641,3.0322874903327377,2.9913608579509816,2.938104474200367,0.0,0.0,0.04343032245740345,2.9872509408280288,0.0,0.0,0.0,0.0,0.0,0.0,0.0,0.0,0.0,0.0,0.0,0.0,0.0,0.0,
0.0801,3.0323239595172633,2.991393988940114,2.9381391217586184,0.0,0.0,0.043430891079590465,2.987285690071999,0.0,0.0,0.0,0.0,0.0,0.0,0.0,0.0,0.0,0.0,0.0,0.0,0.0,0.0,
0.0962,3.0323688287511854,2.9914347506456913,2.9381817497642473,0.0,0.0,0.043431590614338544,2.9873284430537077,0.0,0.0,0.0,0.0,0.0,0.0,0.0,0.0,0.0,0.0,0.0,0.0,0.0,0.0,
0.1122,3.032421542480689,2.99148263811096,2.9382318304006,0.0,0.0,0.04343241236459207,2.98737867033075,0.0,0.0,0.0,0.0,0.0,0.0,0.0,0.0,0.0,0.0,0.0,0.0,0.0,0.0,
0.1282,3.032482356245042,2.991537883176425,2.9382896064274693,0.0,0.0,0.043433360272536435,2.9874366152829785,0.0,0.0,0.0,0.0,0.0,0.0,0.0,0.0,0.0,0.0,0.0,0.0,0.0,0.0,
0.1443,3.032551728736645,2.991600902167068,2.938355513606835,0.0,0.0,0.04343444143788146,2.987502714836849,0.0,0.0,0.0,0.0,0.0,0.0,0.0,0.0,0.0,0.0,0.0,0.0,0.0,0.0,
0.1603,3.0326288010138396,2.9916709144037816,2.938428735883071,0.0,0.0,0.043435642418809366,2.9875761504335636,0.0,0.0,0.0,0.0,0.0,0.0,0.0,0.0,0.0,0.0,0.0,0.0,0.0,0.0,
0.1763,3.0327139817851116,2.9917482907171524,2.9385096615266333,0.0,0.0,0.04343696952394284,2.9876573113429656,0.0,0.0,0.0,0.0,0.0,0.0,0.0,0.0,0.0,0.0,0.0,0.0,0.0,0.0,
0.1923,3.0328072745293175,2.991833033770214,2.9385982938180564,0.0,0.0,0.0434384227394286,2.9877462007058626,0.0,0.0,0.0,0.0,0.0,0.0,0.0,0.0,0.0,0.0,0.0,0.0,0.0,0.0,
0.2084,3.0329093423903237,2.991925745365519,2.9386952627456013,0.0,0.0,0.043440012317198975,2.987843450167148,0.0,0.0,0.0,0.0,0.0,0.0,0.0,0.0,0.0,0.0,0.0,0.0,0.0,0.0,
0.2244,3.0330189216121175,2.9920252769958484,2.938799367656415,0.0,0.0,0.0434417184942228,2.98794785542146,0.0,0.0,0.0,0.0,0.0,0.0,0.0,0.0,0.0,0.0,0.0,0.0,0.0,0.0,
0.2404,3.0331366252716476,2.9921321849052664,2.9389111909690993,0.0,0.0,0.043443550731564994,2.9880600003820046,0.0,0.0,0.0,0.0,0.0,0.0,0.0,0.0,0.0,0.0,0.0,0.0,0.0,0.0,
0.2564,3.0332624581846894,2.9922464727784037,2.9390307372248436,0.0,0.0,0.04344550900972917,2.9881798893959792,0.0,0.0,0.0,0.0,0.0,0.0,0.0,0.0,0.0,0.0,0.0,0.0,0.0,0.0,
0.2725,3.0333972883883566,2.9923689282321906,2.939158831054982,0.0,0.0,0.043447606730848666,2.9883083492251763,0.0,0.0,0.0,0.0,0.0,0.0,0.0,0.0,0.0,0.0,0.0,0.0,0.0,0.0,
0.2885,3.0335394464902286,2.992498034300713,2.9392938864342337,0.0,0.0,0.04344981781371384,2.9884437890750584,0.0,0.0,0.0,0.0,0.0,0.0,0.0,0.0,0.0,0.0,0.0,0.0,0.0,0.0,
0.3045,3.033689750345699,2.9926345329536925,2.939436680315964,0.0,0.0,0.04345215486990043,2.9885869878717854,0.0,0.0,0.0,0.0,0.0,0.0,0.0,0.0,0.0,0.0,0.0,0.0,0.0,0.0,
0.3206,3.033849222114953,2.992779351525536,2.939588183741638,0.0,0.0,0.0434546336636792,2.988738919127375,0.0,0.0,0.0,0.0,0.0,0.0,0.0,0.0,0.0,0.0,0.0,0.0,0.0,0.0,
0.3366,3.034015887320115,2.992930696026023,2.939746520846363,0.0,0.0,0.043457223375373284,2.9888977013975,0.0,0.0,0.0,0.0,0.0,0.0,0.0,0.0,0.0,0.0,0.0,0.0,0.0,0.0,
0.3526,3.0341907178323964,2.9930894480595684,2.939912614892541,0.0,0.0,0.04345993897899214,2.9890642602615016,0.0,0.0,0.0,0.0,0.0,0.0,0.0,0.0,0.0,0.0,0.0,0.0,0.0,0.0,
0.3686,3.0343737208372823,2.9932556131173573,2.9400864726561453,0.0,0.0,0.043462780444241615,2.9892386022035944,0.0,0.0,0.0,0.0,0.0,0.0,0.0,0.0,0.0,0.0,0.0,0.0,0.0,0.0,
0.3847,3.034566124494697,2.993430305190678,2.940269260865171,0.0,0.0,0.043465766680364094,2.989421896850182,0.0,0.0,0.0,0.0,0.0,0.0,0.0,0.0,0.0,0.0,0.0,0.0,0.0,0.0,
0.4007,3.034765546609517,2.9936113602357994,2.940458716320177,0.0,0.0,0.0434688605574245,2.9896118743884976,0.0,0.0,0.0,0.0,0.0,0.0,0.0,0.0,0.0,0.0,0.0,0.0,0.0,0.0,
0.4167,3.034973164881419,2.9937998463817994,2.9406559578086022,0.0,0.0,0.04347208019489126,2.9898096563572736,0.0,0.0,0.0,0.0,0.0,0.0,0.0,0.0,0.0,0.0,0.0,0.0,0.0,0.0,
0.4328,3.0351903625845953,2.9939970180916564,2.9408622994034106,0.0,0.0,0.043475446859354686,2.990016560026554,0.0,0.0,0.0,0.0,0.0,0.0,0.0,0.0,0.0,0.0,0.0,0.0,0.0,0.0,
0.4488,3.035414450567128,2.99420043286393,2.9410751863009463,0.0,0.0,0.04347891868969949,2.9902300232440013,0.0,0.0,0.0,0.0,0.0,0.0,0.0,0.0,0.0,0.0,0.0,0.0,0.0,0.0,
0.4648,3.035646761492973,2.9944112991837537,2.9412958844921775,0.0,0.0,0.04348251616318179,2.9904513150563012,0.0,0.0,0.0,0.0,0.0,0.0,0.0,0.0,0.0,0.0,0.0,0.0,0.0,0.0,
0.4808,3.0358873049704194,2.9946296243815933,2.941524403038168,0.0,0.0,0.04348623923704061,2.99068044413006,0.0,0.0,0.0,0.0,0.0,0.0,0.0,0.0,0.0,0.0,0.0,0.0,0.0,0.0,
0.4969,3.0361376718113906,2.9948568507464466,2.941762253148875,0.0,0.0,0.04349011231521773,2.9909189252355706,0.0,0.0,0.0,0.0,0.0,0.0,0.0,0.0,0.0,0.0,0.0,0.0,0.0,0.0,
0.5129,3.0363947622352634,2.9950901634950133,2.9420064899407032,0.0,0.0,0.043494087237982385,2.9911638052236604,0.0,0.0,0.0,0.0,0.0,0.0,0.0,0.0,0.0,0.0,0.0,0.0,0.0,0.0,
0.5289,3.0366601162148292,2.9953309587620884,2.942258576325879,0.0,0.0,0.043498187620637785,2.991416550434266,0.0,0.0,0.0,0.0,0.0,0.0,0.0,0.0,0.0,0.0,0.0,0.0,0.0,0.0,
0.545,3.0369354809953752,2.9955808203101206,2.942520172103433,0.0,0.0,0.04350244021775224,2.9916788244696426,0.0,0.0,0.0,0.0,0.0,0.0,0.0,0.0,0.0,0.0,0.0,0.0,0.0,0.0,
0.561,3.0372174473375773,2.9958366529848575,2.9427880384262464,0.0,0.0,0.04350679214872195,2.991947379582894,0.0,0.0,0.0,0.0,0.0,0.0,0.0,0.0,0.0,0.0,0.0,0.0,0.0,0.0,
0.577,3.037507711453774,2.9960999942453688,2.9430637866129006,0.0,0.0,0.04351126938009124,2.992223830770681,0.0,0.0,0.0,0.0,0.0,0.0,0.0,0.0,0.0,0.0,0.0,0.0,0.0,0.0,
0.593,3.037806285446819,2.9963708533054767,2.9433474280774745,0.0,0.0,0.04351587185433418,2.9925081889432565,0.0,0.0,0.0,0.0,0.0,0.0,0.0,0.0,0.0,0.0,0.0,0.0,0.0,0.0,
0.6091,3.038115126080988,2.996651003256681,2.9436408216247294,0.0,0.0,0.04352062945296171,2.9928023169874662,0.0,0.0,0.0,0.0,0.0,0.0,0.0,0.0,0.0,0.0,0.0,0.0,0.0,0.0,
0.6251,3.0384304097249317,2.9969369737878218,2.9439403347787736,0.0,0.0,0.04352548301278141,2.993102572763842,0.0,0.0,0.0,0.0,0.0,0.0,0.0,0.0,0.0,0.0,0.0,0.0,0.0,0.0,
0.6411,3.038754041821922,2.9972304914654657,2.944247777592277,0.0,0.0,0.04353046162823089,2.9934107702932216,0.0,0.0,0.0,0.0,0.0,0.0,0.0,0.0,0.0,0.0,0.0,0.0,0.0,0.0,
0.6571,3.039086035939748,2.997531566603731,2.9445631628613773,0.0,0.0,0.043535565232046984,2.9937269218016187,0.0,0.0,0.0,0.0,0.0,0.0,0.0,0.0,0.0,0.0,0.0,0.0,0.0,0.0,
0.6732,3.0394285596983597,2.9978421626351697,2.944888549657358,0.0,0.0,0.04354082682529139,2.994053090663629,0.0,0.0,0.0,0.0,0.0,0.0,0.0,0.0,0.0,0.0,0.0,0.0,0.0,0.0,
0.6892,3.039777372531586,2.998158432152562,2.9452199094775553,0.0,0.0,0.04354618097363428,2.9943852380539013,0.0,0.0,0.0,0.0,0.0,0.0,0.0,0.0,0.0,0.0,0.0,0.0,0.0,0.0,
0.7052,3.040134590415562,2.9984822918155527,2.945559252336791,0.0,0.0,0.04355165989218489,2.9947253781893015,0.0,0.0,0.0,0.0,0.0,0.0,0.0,0.0,0.0,0.0,0.0,0.0,0.0,0.0,
0.7213,3.040502540163999,2.998815848619879,2.945908788499133,0.0,0.0,0.04355729891731204,2.9950757257610037,0.0,0.0,0.0,0.0,0.0,0.0,0.0,0.0,0.0,0.0,0.0,0.0,0.0,0.0,
0.7373,3.040876666500844,2.999154970783124,2.9462641905463167,0.0,0.0,0.04356302791755165,2.9954319426100953,0.0,0.0,0.0,0.0,0.0,0.0,0.0,0.0,0.0,0.0,0.0,0.0,0.0,0.0,
0.7533,3.0412592443305244,2.9995017183244848,2.9466276194356658,0.0,0.0,0.043568881444286334,2.9957961940302247,0.0,0.0,0.0,0.0,0.0,0.0,0.0,0.0,0.0,0.0,0.0,0.0,0.0,0.0,
0.7693,3.041650289869101,2.99985610353518,2.946999090462128,0.0,0.0,0.04357485941040314,2.996168494622136,0.0,0.0,0.0,0.0,0.0,0.0,0.0,0.0,0.0,0.0,0.0,0.0,0.0,0.0,
0.7854,3.0420523434963402,3.000220425799248,2.947381016712976,0.0,0.0,0.04358100025592155,2.9965512620028547,0.0,0.0,0.0,0.0,0.0,0.0,0.0,0.0,0.0,0.0,0.0,0.0,0.0,0.0,
0.8014,3.0424604278405853,3.000590172310843,2.9477686698761287,0.0,0.0,0.04358722760301939,2.9969397566758524,0.0,0.0,0.0,0.0,0.0,0.0,0.0,0.0,0.0,0.0,0.0,0.0,0.0,0.0,
0.8174,3.0428770309868836,3.000967595182149,2.9481644133687133,0.0,0.0,0.04359357910820273,2.9973363465125824,0.0,0.0,0.0,0.0,0.0,0.0,0.0,0.0,0.0,0.0,0.0,0.0,0.0,0.0,
0.8335,3.0433048547244494,3.001355139031276,2.948570813560882,0.0,0.0,0.043600095533284214,2.997743602438869,0.0,0.0,0.0,0.0,0.0,0.0,0.0,0.0,0.0,0.0,0.0,0.0,0.0,0.0,
0.8495,3.0437386027514526,3.001748003470257,2.948982839244745,0.0,0.0,0.04360669582444513,2.9981564818221513,0.0,0.0,0.0,0.0,0.0,0.0,0.0,0.0,0.0,0.0,0.0,0.0,0.0,0.0,
0.8655,3.044180924248954,3.0021485856055223,2.949403006824788,0.0,0.0,0.04361341996124507,2.998577505559755,0.0,0.0,0.0,0.0,0.0,0.0,0.0,0.0,0.0,0.0,0.0,0.0,0.0,0.0,
0.8815,3.0446318382078505,3.0025568997819536,2.9498313342150007,0.0,0.0,0.043620267832373376,2.999006690734935,0.0,0.0,0.0,0.0,0.0,0.0,0.0,0.0,0.0,0.0,0.0,0.0,0.0,0.0,
0.8976,3.0450942631845863,3.0029755854157196,2.9502705936287867,0.0,0.0,0.043627283282945344,2.9994468140763644,0.0,0.0,0.0,0.0,0.0,0.0,0.0,0.0,0.0,0.0,0.0,0.0,0.0,0.0,
0.9136,3.0455624746830647,3.00339945646854,2.9507153472123835,0.0,0.0,0.04363437904472155,2.9998924261213293,0.0,0.0,0.0,0.0,0.0,0.0,0.0,0.0,0.0,0.0,0.0,0.0,0.0,0.0,
0.9296,3.046039338200775,3.003831104500582,2.951168316788437,0.0,0.0,0.043641598182474844,3.0003462531632645,0.0,0.0,0.0,0.0,0.0,0.0,0.0,0.0,0.0,0.0,0.0,0.0,0.0,0.0,
0.9457,3.0465279362969033,3.0042733161104915,2.951632430300018,0.0,0.0,0.04364898684592085,3.0008112275691374,0.0,0.0,0.0,0.0,0.0,0.0,0.0,0.0,0.0,0.0,0.0,0.0,0.0,0.0,
0.9617,3.047022220604208,3.0047206139358296,2.952101942337165,0.0,0.0,0.043656453117902484,3.001281592292401,0.0,0.0,0.0,0.0,0.0,0.0,0.0,0.0,0.0,0.0,0.0,0.0,0.0,0.0,
0.9777,3.047525220259251,3.0051757364418825,2.9525797301092194,0.0,0.0,0.0436640423694159,3.0017602289367846,0.0,0.0,0.0,0.0,0.0,0.0,0.0,0.0,0.0,0.0,0.0,0.0,0.0,0.0,
0.9937,3.0480369571794927,3.0056387001182086,2.9530658142933746,0.0,0.0,0.04367175445955834,3.0022471571970253,0.0,0.0,0.0,0.0,0.0,0.0,0.0,0.0,0.0,0.0,0.0,0.0,0.0,0.0,
1.0098,3.048560734409615,3.0061124891493205,2.9535633321841814,0.0,0.0,0.04367963859559154,3.002745518581039,0.0,0.0,0.0,0.0,0.0,0.0,0.0,0.0,0.0,0.0,0.0,0.0,0.0,0.0,
1.0258,3.049090068304133,3.0065912351675563,2.954066125043891,0.0,0.0,0.043687596686637124,3.003249142838527,0.0,0.0,0.0,0.0,0.0,0.0,0.0,0.0,0.0,0.0,0.0,0.0,0.0,0.0,
1.0418,3.049628207965574,3.007077873828597,2.954577278943503,0.0,0.0,0.04369567716368465,3.003761120245891,0.0,0.0,0.0,0.0,0.0,0.0,0.0,0.0,0.0,0.0,0.0,0.0,0.0,0.0,
1.0578,3.050175177062074,3.007572422894151,2.9550968162137012,0.0,0.0,0.04370387986603453,3.004281472056642,0.0,0.0,0.0,0.0,0.0,0.0,0.0,0.0,0.0,0.0,0.0,0.0,0.0,0.0,
1.0739,3.050734501491839,3.008078065903896,2.9556280857352024,0.0,0.0,0.04371225704090073,3.0048135510436462,0.0,0.0,0.0,0.0,0.0,0.0,0.0,0.0,0.0,0.0,0.0,0.0,0.0,0.0,
1.0899,3.0512992578206815,3.0085885400860652,2.9561645111875605,0.0,0.0,0.043720704451613364,3.0053507696981026,0.0,0.0,0.0,0.0,0.0,0.0,0.0,0.0,0.0,0.0,0.0,0.0,0.0,0.0,
1.1059,3.051872917444149,3.0091069800258103,2.956709389699397,0.0,0.0,0.04372927357192318,3.005896429056452,0.0,0.0,0.0,0.0,0.0,0.0,0.0,0.0,0.0,0.0,0.0,0.0,0.0,0.0,
1.122,3.0524591751540684,3.009636720098981,2.957266230496508,0.0,0.0,0.043738018917197315,3.0064540419165193,0.0,0.0,0.0,0.0,0.0,0.0,0.0,0.0,0.0,0.0,0.0,0.0,0.0,0.0,
1.138,3.0530507743297317,3.010171199191054,2.957828140914623,0.0,0.0,0.04374683165971476,3.0070167048118033,0.0,0.0,0.0,0.0,0.0,0.0,0.0,0.0,0.0,0.0,0.0,0.0,0.0,0.0,
1.154,3.0536513548120214,3.010713702383506,2.9583985780046245,0.0,0.0,0.04375576554375267,3.0075878784000505,0.0,0.0,0.0,0.0,0.0,0.0,0.0,0.0,0.0,0.0,0.0,0.0,0.0,0.0,
1.17,3.054260943492026,3.0112642497583515,2.9589775671424134,0.0,0.0,0.04376482036793096,3.008167586797597,0.0,0.0,0.0,0.0,0.0,0.0,0.0,0.0,0.0,0.0,0.0,0.0,0.0,0.0,
1.1861,3.05488346261093,3.0118263784669037,2.959568833477542,0.0,0.0,0.04377405365079243,3.0087595581851247,0.0,0.0,0.0,0.0,0.0,0.0,0.0,0.0,0.0,0.0,0.0,0.0,0.0,0.0,
1.2021,3.0555112070098382,3.0123931264209336,2.960165058508372,0.0,0.0,0.04378335047745412,3.009356463979714,0.0,0.0,0.0,0.0,0.0,0.0,0.0,0.0,0.0,0.0,0.0,0.0,0.0,0.0,
1.2181,3.056148043343317,3.012967980996541,2.9607699146101396,0.0,0.0,0.043792767598923955,3.009961979649999,0.0,0.0,0.0,0.0,0.0,0.0,0.0,0.0,0.0,0.0,0.0,0.0,0.0,0.0,
1.2342,3.056798066419083,3.0135546329071925,2.961387290744306,0.0,0.0,0.043802364771080744,3.0105799966901934,0.0,0.0,0.0,0.0,0.0,0.0,0.0,0.0,0.0,0.0,0.0,0.0,0.0,0.0,
1.2502,3.0574532309021754,3.0141458164865305,2.962009545470713,0.0,0.0,0.04381202253723729,3.011202864286473,0.0,0.0,0.0,0.0,0.0,0.0,0.0,0.0,0.0,0.0,0.0,0.0,0.0,0.0,
1.2662,3.0581175755071803,3.0147451722905965,2.9626405144988155,0.0,0.0,0.04382179988872881,3.0118344207655308,0.0,0.0,0.0,0.0,0.0,0.0,0.0,0.0,0.0,0.0,0.0,0.0,0.0,0.0,
1.2822,3.058791130579496,3.0153527228570365,2.9632802264702995,0.0,0.0,0.04383169657435138,3.012474693302277,0.0,0.0,0.0,0.0,0.0,0.0,0.0,0.0,0.0,0.0,0.0,0.0,0.0,0.0,
1.2983,3.0594782235810145,3.0159723655267436,2.9639327911840163,0.0,0.0,0.04384177530731829,3.0131277934305913,0.0,0.0,0.0,0.0,0.0,0.0,0.0,0.0,0.0,0.0,0.0,0.0,0.0,0.0,
1.3143,3.0601703507385243,3.016596426263356,2.96459013202068,0.0,0.0,0.04385191061719143,3.0137856363408537,0.0,0.0,0.0,0.0,0.0,0.0,0.0,0.0,0.0,0.0,0.0,0.0,0.0,0.0,
1.3303,3.0608717827050085,3.0172287517114516,2.9652563048520015,0.0,0.0,0.04386216445710916,3.014452279756154,0.0,0.0,0.0,0.0,0.0,0.0,0.0,0.0,0.0,0.0,0.0,0.0,0.0,0.0,
1.3463,3.0615825519179296,3.017869365880199,2.965931340298691,0.0,0.0,0.04387253654252839,3.0151277526989397,0.0,0.0,0.0,0.0,0.0,0.0,0.0,0.0,0.0,0.0,0.0,0.0,0.0,0.0,
1.3624,3.0623072217582155,3.0185223751426764,2.966619572079819,0.0,0.0,0.04388309251297068,3.015816389660237,0.0,0.0,0.0,0.0,0.0,0.0,0.0,0.0,0.0,0.0,0.0,0.0,0.0,0.0,
1.3784,3.0630368238099157,3.0191796924770427,2.967312482541491,0.0,0.0,0.04389370093407307,3.01650966627615,0.0,0.0,0.0,0.0,0.0,0.0,0.0,0.0,0.0,0.0,0.0,0.0,0.0,0.0,
1.3944,3.0637758638809554,3.0198453729864716,2.9680143507548813,0.0,0.0,0.04390442669036214,3.017211862540769,0.0,0.0,0.0,0.0,0.0,0.0,0.0,0.0,0.0,0.0,0.0,0.0,0.0,0.0,
1.4105,3.0645290846622792,3.0205236815723224,2.968729680618633,0.0,0.0,0.04391533759443078,3.0179274822844118,0.0,0.0,0.0,0.0,0.0,0.0,0.0,0.0,0.0,0.0,0.0,0.0,0.0,0.0,
1.4265,3.0652871647472884,3.0212062181034676,2.969449619446384,0.0,0.0,0.043926297773321105,3.0186476674323806,0.0,0.0,0.0,0.0,0.0,0.0,0.0,0.0,0.0,0.0,0.0,0.0,0.0,0.0,
1.4425,3.066054788647565,3.021897195757428,2.9701786159169137,0.0,0.0,0.043937374288888324,3.019376866773969,0.0,0.0,0.0,0.0,0.0,0.0,0.0,0.0,0.0,0.0,0.0,0.0,0.0,0.0,
1.4585,3.0668319926994188,3.0225966412546232,2.9709167043415157,0.0,0.0,0.04394856678807906,3.020115112765186,0.0,0.0,0.0,0.0,0.0,0.0,0.0,0.0,0.0,0.0,0.0,0.0,0.0,0.0,
1.4746,3.067623761773721,3.023309033115616,2.971668618452445,0.0,0.0,0.043959945945416974,3.0208671377805936,0.0,0.0,0.0,0.0,0.0,0.0,0.0,0.0,0.0,0.0,0.0,0.0,0.0,0.0,
1.4906,3.0684202979362936,3.0240255494250583,2.97242505331029,0.0,0.0,0.04397137002763771,3.021623633557214,0.0,0.0,0.0,0.0,0.0,0.0,0.0,0.0,0.0,0.0,0.0,0.0,0.0,0.0,
1.5066,3.069226527024912,3.0247506163422715,2.9731906866220363,0.0,0.0,0.0439829089648585,3.0223892766630733,0.0,0.0,0.0,0.0,0.0,0.0,0.0,0.0,0.0,0.0,0.0,0.0,0.0,0.0,
1.5227,3.07004761819272,3.0254888745460278,2.973970426996753,0.0,0.0,0.04399463555093322,3.0231689732451668,0.0,0.0,0.0,0.0,0.0,0.0,0.0,0.0,0.0,0.0,0.0,0.0,0.0,0.0,
1.5387,3.070873411083609,3.026231182051731,2.9747546255588264,0.0,0.0,0.0440064037005947,3.0239530728980557,0.0,0.0,0.0,0.0,0.0,0.0,0.0,0.0,0.0,0.0,0.0,0.0,0.0,0.0,
1.5547,3.071709015141412,3.0269821266735724,2.9755481342540557,0.0,0.0,0.0440182854685836,3.0247464253563465,0.0,0.0,0.0,0.0,0.0,0.0,0.0,0.0,0.0,0.0,0.0,0.0,0.0,0.0,
1.5707,3.0725544709455677,3.0277417380377387,2.976350991414125,0.0,0.0,0.04403028041791221,3.025549066799144,0.0,0.0,0.0,0.0,0.0,0.0,0.0,0.0,0.0,0.0,0.0,0.0,0.0,0.0,
1.5868,3.073415196838017,3.02851487553954,2.977168342104297,0.0,0.0,0.04404246412468896,3.026366138160618,0.0,0.0,0.0,0.0,0.0,0.0,0.0,0.0,0.0,0.0,0.0,0.0,0.0,0.0,
1.6028,3.074280542652438,3.0292919656413075,2.9779900726543307,0.0,0.0,0.044054684771825066,3.0271875269826922,0.0,0.0,0.0,0.0,0.0,0.0,0.0,0.0,0.0,0.0,0.0,0.0,0.0,0.0,
1.6188,3.0751558660708054,3.0300778141683398,2.9788212705692807,0.0,0.0,0.04406701720417146,3.028018316936142,0.0,0.0,0.0,0.0,0.0,0.0,0.0,0.0,0.0,0.0,0.0,0.0,0.0,0.0,
1.6349,3.0760467752766085,3.03087744670124,2.9796672610452477,0.0,0.0,0.0440795390507096,3.0288638276743653,0.0,0.0,0.0,0.0,0.0,0.0,0.0,0.0,0.0,0.0,0.0,0.0,0.0,0.0,
1.6509,3.076942247156114,3.0316809619194367,2.98051757653596,0.0,0.0,0.04409209424957438,3.0297135952038374,0.0,0.0,0.0,0.0,0.0,0.0,0.0,0.0,0.0,0.0,0.0,0.0,0.0,0.0,
1.6669,3.0778478284808455,3.032493331277341,2.981377483967686,0.0,0.0,0.044104759705043566,3.0305728812419575,0.0,0.0,0.0,0.0,0.0,0.0,0.0,0.0,0.0,0.0,0.0,0.0,0.0,0.0,
1.6829,3.0787635644749516,3.0333145875301706,2.9822470260780802,0.0,0.0,0.04411753487721766,3.0314417260277344,0.0,0.0,0.0,0.0,0.0,0.0,0.0,0.0,0.0,0.0,0.0,0.0,0.0,0.0,
1.699,3.0796953203388737,3.034149980621967,2.9831317719197665,0.0,0.0,0.04413050007886915,3.0323256909602025,0.0,0.0,0.0,0.0,0.0,0.0,0.0,0.0,0.0,0.0,0.0,0.0,0.0,0.0,
1.715,3.080631568342619,3.0349891668690776,2.98402077516703,0.0,0.0,0.04414349367522279,3.0332138367929087,0.0,0.0,0.0,0.0,0.0,0.0,0.0,0.0,0.0,0.0,0.0,0.0,0.0,0.0,
1.731,3.0815781112187226,3.0358373413109327,2.984919545606063,0.0,0.0,0.04415659526405555,3.0341116660452396,0.0,0.0,0.0,0.0,0.0,0.0,0.0,0.0,0.0,0.0,0.0,0.0,0.0,0.0,
1.747,3.0825349970506273,3.036694538603149,2.985828128689694,0.0,0.0,0.044169804236485755,3.0350192214478233,0.0,0.0,0.0,0.0,0.0,0.0,0.0,0.0,0.0,0.0,0.0,0.0,0.0,0.0,
1.7631,3.083508352927233,3.03756623654299,2.9867523419343236,0.0,0.0,0.044183203522763545,3.0359423104681817,0.0,0.0,0.0,0.0,0.0,0.0,0.0,0.0,0.0,0.0,0.0,0.0,0.0,0.0,
1.7791,3.084486137304587,3.038441642409767,2.987680751544413,0.0,0.0,0.04419662602221851,3.036869510419589,0.0,0.0,0.0,0.0,0.0,0.0,0.0,0.0,0.0,0.0,0.0,0.0,0.0,0.0,
1.7951,3.0854744136832988,3.039326178273613,2.988619114712481,0.0,0.0,0.04421015396104428,3.0378065688897977,0.0,0.0,0.0,0.0,0.0,0.0,0.0,0.0,0.0,0.0,0.0,0.0,0.0,0.0,
1.8112,3.086479509057076,3.040225495324409,2.989573438603431,0.0,0.0,0.04422387218500385,3.038759480994972,0.0,0.0,0.0,0.0,0.0,0.0,0.0,0.0,0.0,0.0,0.0,0.0,0.0,0.0,
1.8272,3.087488989935696,3.04112845927564,2.990531917594599,0.0,0.0,0.04423760957029473,3.0397164556019782,0.0,0.0,0.0,0.0,0.0,0.0,0.0,0.0,0.0,0.0,0.0,0.0,0.0,0.0,
1.8432,3.0885091188394966,3.042040664942725,2.9915004976915016,0.0,0.0,0.04425145026772696,3.0406834271579073,0.0,0.0,0.0,0.0,0.0,0.0,0.0,0.0,0.0,0.0,0.0,0.0,0.0,0.0,
1.8592,3.0895399492690987,3.042962150530109,2.9924792294971447,0.0,0.0,0.04426539352624662,3.041660443098784,0.0,0.0,0.0,0.0,0.0,0.0,0.0,0.0,0.0,0.0,0.0,0.0,0.0,0.0,
1.8753,3.090588079396185,3.0438988016848905,2.9934743774305614,0.0,0.0,0.044279526671959245,3.042653752837212,0.0,0.0,0.0,0.0,0.0,0.0,0.0,0.0,0.0,0.0,0.0,0.0,0.0,0.0,
