energies(eV),real_xx,real_yy,real_zz,real_xy,real_yz,real_xz,real_ave,imag_xx,imag_yy,imag_zz,imag_xy,imag_yz,imag_xz,imag_ave,absorption_xx,absorption_yy,absorption_zz,absorption_xy,absorption_yz,absorption_xz,absorption_ave,band_gap
0.0,2.55872272214566,2.55872272214566,2.373609889725109,0.0,0.0,0.0,2.497018444672143,0.0,0.0,0.0,0.0,0.0,0.0,0.0,0.0,0.0,0.0,0.0,0.0,0.0,0.0,7.0956
0.0159,2.5587248152434627,2.5587248152434627,2.3736115686233377,0.0,0.0,0.0,2.497020399703421,0.0,0.0,0.0,0.0,0.0,0.0,0.0,0.0,0.0,0.0,0.0,0.0,0.0,0.0,
0.0319,2.558731147325344,2.558731147325344,2.3736166476547726,0.0,0.0,0.0,2.49702631410182,0.0,0.0,0.0,0.0,0.0,0.0,0.0,0.0,0.0,0.0,0.0,0.0,0.0,0.0,
0.0478,2.5587416393866307,2.5587416393866307,2.3736250634324287,0.0,0.0,0.0,2.4970361140685635,0.0,0.0,0.0,0.0,0.0,0.0,0.0,0.0,0.0,0.0,0.0,0.0,0.0,0.0,
0.0637,2.5587563180811985,2.5587563180811985,2.373636837308402,0.0,0.0,0.0,2.4970498244902664,0.0,0.0,0.0,0.0,0.0,0.0,0.0,0.0,0.0,0.0,0.0,0.0,0.0,0.0,
0.0796,2.5587751837486934,2.5587751837486934,2.3736519695169287,0.0,0.0,0.0,2.4970674456714383,0.0,0.0,0.0,0.0,0.0,0.0,0.0,0.0,0.0,0.0,0.0,0.0,0.0,0.0,
0.0956,2.558798395065396,2.558798395065396,2.373670587282577,0.0,0.0,0.0,2.497089125804456,0.0,0.0,0.0,0.0,0.0,0.0,0.0,0.0,0.0,0.0,0.0,0.0,0.0,0.0,
0.1115,2.5588256624264623,2.5588256624264623,2.373692458253342,0.0,0.0,0.0,2.4971145943687554,0.0,0.0,0.0,0.0,0.0,0.0,0.0,0.0,0.0,0.0,0.0,0.0,0.0,0.0,
0.1274,2.5588571183652067,2.5588571183652067,2.373717688663338,0.0,0.0,0.0,2.4971439751312503,0.0,0.0,0.0,0.0,0.0,0.0,0.0,0.0,0.0,0.0,0.0,0.0,0.0,0.0,
0.1434,2.5588930010521294,2.5588930010521294,2.373746469461673,0.0,0.0,0.0,2.497177490521977,0.0,0.0,0.0,0.0,0.0,0.0,0.0,0.0,0.0,0.0,0.0,0.0,0.0,0.0,
0.1593,2.5589328627834496,2.5589328627834496,2.3737784414605727,0.0,0.0,0.0,2.4972147223424908,0.0,0.0,0.0,0.0,0.0,0.0,0.0,0.0,0.0,0.0,0.0,0.0,0.0,0.0,
0.1752,2.558976915574144,2.558976915574144,2.373813774610008,0.0,0.0,0.0,2.4972558685860986,0.0,0.0,0.0,0.0,0.0,0.0,0.0,0.0,0.0,0.0,0.0,0.0,0.0,0.0,
0.1911,2.5590251604443113,2.5590251604443113,2.3738524696133734,0.0,0.0,0.0,2.497300930167332,0.0,0.0,0.0,0.0,0.0,0.0,0.0,0.0,0.0,0.0,0.0,0.0,0.0,0.0,
0.2071,2.5590779415821587,2.5590779415821587,2.37389480239702,0.0,0.0,0.0,2.4973502285204456,0.0,0.0,0.0,0.0,0.0,0.0,0.0,0.0,0.0,0.0,0.0,0.0,0.0,0.0,
0.223,2.5591346004448594,2.5591346004448594,2.3739402446432765,0.0,0.0,0.0,2.4974031485109984,0.0,0.0,0.0,0.0,0.0,0.0,0.0,0.0,0.0,0.0,0.0,0.0,0.0,0.0,
0.2389,2.5591954550399825,2.5591954550399825,2.373989051261981,0.0,0.0,0.0,2.497459987113982,0.0,0.0,0.0,0.0,0.0,0.0,0.0,0.0,0.0,0.0,0.0,0.0,0.0,0.0,
0.2549,2.5592609291929973,2.5592609291929973,2.3740415620025255,0.0,0.0,0.0,2.4975211401295065,0.0,0.0,0.0,0.0,0.0,0.0,0.0,0.0,0.0,0.0,0.0,0.0,0.0,0.0,
0.2708,2.5593302059932213,2.5593302059932213,2.3740971215258577,0.0,0.0,0.0,2.4975858445041,0.0,0.0,0.0,0.0,0.0,0.0,0.0,0.0,0.0,0.0,0.0,0.0,0.0,0.0,
0.2867,2.5594036830603697,2.5594036830603697,2.3741560485474658,0.0,0.0,0.0,2.4976544715560682,0.0,0.0,0.0,0.0,0.0,0.0,0.0,0.0,0.0,0.0,0.0,0.0,0.0,0.0,
0.3026,2.559481362098665,2.559481362098665,2.374218344241955,0.0,0.0,0.0,2.497727022813095,0.0,0.0,0.0,0.0,0.0,0.0,0.0,0.0,0.0,0.0,0.0,0.0,0.0,0.0,
0.3186,2.5595637732031182,2.5595637732031182,2.3742844335093194,0.0,0.0,0.0,2.4978039933051854,0.0,0.0,0.0,0.0,0.0,0.0,0.0,0.0,0.0,0.0,0.0,0.0,0.0,0.0,
0.3345,2.5596498881455423,2.5596498881455423,2.374353491550405,0.0,0.0,0.0,2.4978844226138297,0.0,0.0,0.0,0.0,0.0,0.0,0.0,0.0,0.0,0.0,0.0,0.0,0.0,0.0,
0.3504,2.5597402107732035,2.5597402107732035,2.3744259222022217,0.0,0.0,0.0,2.497968781249543,0.0,0.0,0.0,0.0,0.0,0.0,0.0,0.0,0.0,0.0,0.0,0.0,0.0,0.0,
0.3664,2.5598353510533736,2.5598353510533736,2.3745022143494325,0.0,0.0,0.0,2.4980576388187266,0.0,0.0,0.0,0.0,0.0,0.0,0.0,0.0,0.0,0.0,0.0,0.0,0.0,0.0,
0.3823,2.5599341219405742,2.5599341219405742,2.3745814158614644,0.0,0.0,0.0,2.498149886580871,0.0,0.0,0.0,0.0,0.0,0.0,0.0,0.0,0.0,0.0,0.0,0.0,0.0,0.0,
0.3982,2.5600371071165218,2.5600371071165218,2.3746639945338517,0.0,0.0,0.0,2.4982460695889652,0.0,0.0,0.0,0.0,0.0,0.0,0.0,0.0,0.0,0.0,0.0,0.0,0.0,0.0,
0.4141,2.560144308975646,2.560144308975646,2.3747499520160007,0.0,0.0,0.0,2.4983461899890975,0.0,0.0,0.0,0.0,0.0,0.0,0.0,0.0,0.0,0.0,0.0,0.0,0.0,0.0,
0.4301,2.5602564441294184,2.5602564441294184,2.374839862600809,0.0,0.0,0.0,2.498450916953215,0.0,0.0,0.0,0.0,0.0,0.0,0.0,0.0,0.0,0.0,0.0,0.0,0.0,0.0,
0.446,2.5603721134950534,2.5603721134950534,2.3749326042011925,0.0,0.0,0.0,2.498558943730433,0.0,0.0,0.0,0.0,0.0,0.0,0.0,0.0,0.0,0.0,0.0,0.0,0.0,0.0,
0.4619,2.5604920073395108,2.5604920073395108,2.3750287299801753,0.0,0.0,0.0,2.498670914886399,0.0,0.0,0.0,0.0,0.0,0.0,0.0,0.0,0.0,0.0,0.0,0.0,0.0,0.0,
0.4778,2.5606161284552513,2.5606161284552513,2.375128241860521,0.0,0.0,0.0,2.4987868329236744,0.0,0.0,0.0,0.0,0.0,0.0,0.0,0.0,0.0,0.0,0.0,0.0,0.0,0.0,
0.4938,2.560745300367586,2.560745300367586,2.3752317997287933,0.0,0.0,0.0,2.498907466821322,0.0,0.0,0.0,0.0,0.0,0.0,0.0,0.0,0.0,0.0,0.0,0.0,0.0,0.0,
0.5097,2.5608779114359823,2.5608779114359823,2.3753381111825416,0.0,0.0,0.0,2.499031311351502,0.0,0.0,0.0,0.0,0.0,0.0,0.0,0.0,0.0,0.0,0.0,0.0,0.0,0.0,
0.5256,2.5610147587725534,2.5610147587725534,2.3754478149309586,0.0,0.0,0.0,2.4991591108253552,0.0,0.0,0.0,0.0,0.0,0.0,0.0,0.0,0.0,0.0,0.0,0.0,0.0,0.0,
0.5416,2.5611567463317657,2.5611567463317657,2.3755616352281184,0.0,0.0,0.0,2.4992917092972164,0.0,0.0,0.0,0.0,0.0,0.0,0.0,0.0,0.0,0.0,0.0,0.0,0.0,0.0,
0.5575,2.5613021025811795,2.5613021025811795,2.375678151599354,0.0,0.0,0.0,2.4994274522539044,0.0,0.0,0.0,0.0,0.0,0.0,0.0,0.0,0.0,0.0,0.0,0.0,0.0,0.0,
0.5734,2.561451705003965,2.561451705003965,2.3757980670812255,0.0,0.0,0.0,2.4995671590297186,0.0,0.0,0.0,0.0,0.0,0.0,0.0,0.0,0.0,0.0,0.0,0.0,0.0,0.0,
0.5893,2.561605557097403,2.561605557097403,2.375921384079593,0.0,0.0,0.0,2.499710832758133,0.0,0.0,0.0,0.0,0.0,0.0,0.0,0.0,0.0,0.0,0.0,0.0,0.0,0.0,
0.6053,2.5617646703005184,2.5617646703005184,2.376048912834178,0.0,0.0,0.0,2.4998594178117384,0.0,0.0,0.0,0.0,0.0,0.0,0.0,0.0,0.0,0.0,0.0,0.0,0.0,0.0,
0.6212,2.561927059418483,2.561927059418483,2.376179061794037,0.0,0.0,0.0,2.5000110602103343,0.0,0.0,0.0,0.0,0.0,0.0,0.0,0.0,0.0,0.0,0.0,0.0,0.0,0.0,
0.6371,2.5620937093330234,2.5620937093330234,2.3763126199219737,0.0,0.0,0.0,2.50016667952934,0.0,0.0,0.0,0.0,0.0,0.0,0.0,0.0,0.0,0.0,0.0,0.0,0.0,0.0,
0.6531,2.562265712388031,2.562265712388031,2.3764504621517952,0.0,0.0,0.0,2.500327295642619,0.0,0.0,0.0,0.0,0.0,0.0,0.0,0.0,0.0,0.0,0.0,0.0,0.0,0.0,
0.669,2.562440922574708,2.562440922574708,2.3765908682254198,0.0,0.0,0.0,2.5004909044582786,0.0,0.0,0.0,0.0,0.0,0.0,0.0,0.0,0.0,0.0,0.0,0.0,0.0,0.0,
0.6849,2.5626204056084605,2.5626204056084605,2.376734691750634,0.0,0.0,0.0,2.5006585009891853,0.0,0.0,0.0,0.0,0.0,0.0,0.0,0.0,0.0,0.0,0.0,0.0,0.0,0.0,
0.7008,2.562804165704022,2.562804165704022,2.376881935623641,0.0,0.0,0.0,2.5008300890105617,0.0,0.0,0.0,0.0,0.0,0.0,0.0,0.0,0.0,0.0,0.0,0.0,0.0,0.0,
0.7168,2.562993403387836,2.562993403387836,2.377033561242924,0.0,0.0,0.0,2.5010067893395322,0.0,0.0,0.0,0.0,0.0,0.0,0.0,0.0,0.0,0.0,0.0,0.0,0.0,0.0,
0.7327,2.5631857576344523,2.5631857576344523,2.377187676342027,0.0,0.0,0.0,2.501186397203644,0.0,0.0,0.0,0.0,0.0,0.0,0.0,0.0,0.0,0.0,0.0,0.0,0.0,0.0,
0.7486,2.563382402238136,2.563382402238136,2.3773452209217925,0.0,0.0,0.0,2.5013700084660218,0.0,0.0,0.0,0.0,0.0,0.0,0.0,0.0,0.0,0.0,0.0,0.0,0.0,0.0,
0.7646,2.5635846192023886,2.5635846192023886,2.3775072214671917,0.0,0.0,0.0,2.501558819957323,0.0,0.0,0.0,0.0,0.0,0.0,0.0,0.0,0.0,0.0,0.0,0.0,0.0,0.0,
0.7805,2.5637898855765524,2.5637898855765524,2.37767165624028,0.0,0.0,0.0,2.501750475797795,0.0,0.0,0.0,0.0,0.0,0.0,0.0,0.0,0.0,0.0,0.0,0.0,0.0,0.0,
0.7964,2.563999456547397,2.563999456547397,2.3778395302701245,0.0,0.0,0.0,2.5019461477883063,0.0,0.0,0.0,0.0,0.0,0.0,0.0,0.0,0.0,0.0,0.0,0.0,0.0,0.0,
0.8123,2.5642133370625073,2.5642133370625073,2.378010846952092,0.0,0.0,0.0,2.5021458403590358,0.0,0.0,0.0,0.0,0.0,0.0,0.0,0.0,0.0,0.0,0.0,0.0,0.0,0.0,
0.8283,2.564432918135772,2.564432918135772,2.378186719803141,0.0,0.0,0.0,2.502350852024895,0.0,0.0,0.0,0.0,0.0,0.0,0.0,0.0,0.0,0.0,0.0,0.0,0.0,0.0,
0.8442,2.5646554601909584,2.5646554601909584,2.3783649539709795,0.0,0.0,0.0,2.502558624784299,0.0,0.0,0.0,0.0,0.0,0.0,0.0,0.0,0.0,0.0,0.0,0.0,0.0,0.0,
0.8601,2.5648823273035672,2.5648823273035672,2.378546641432795,0.0,0.0,0.0,2.50277043201331,0.0,0.0,0.0,0.0,0.0,0.0,0.0,0.0,0.0,0.0,0.0,0.0,0.0,0.0,
0.8761,2.5651149926353125,2.5651149926353125,2.378732961251396,0.0,0.0,0.0,2.5029876488406737,0.0,0.0,0.0,0.0,0.0,0.0,0.0,0.0,0.0,0.0,0.0,0.0,0.0,0.0,
0.892,2.5653505533803305,2.5653505533803305,2.3789215882069548,0.0,0.0,0.0,2.5032075649892054,0.0,0.0,0.0,0.0,0.0,0.0,0.0,0.0,0.0,0.0,0.0,0.0,0.0,0.0,
0.9079,2.565590455663764,2.565590455663764,2.3791136797548997,0.0,0.0,0.0,2.503431530360809,0.0,0.0,0.0,0.0,0.0,0.0,0.0,0.0,0.0,0.0,0.0,0.0,0.0,0.0,
0.9238,2.565834705184159,2.565834705184159,2.3793092398000977,0.0,0.0,0.0,2.5036595500561383,0.0,0.0,0.0,0.0,0.0,0.0,0.0,0.0,0.0,0.0,0.0,0.0,0.0,0.0,
0.9398,2.5660848850743987,2.5660848850743987,2.3795095350948348,0.0,0.0,0.0,2.5038931017478774,0.0,0.0,0.0,0.0,0.0,0.0,0.0,0.0,0.0,0.0,0.0,0.0,0.0,0.0,
0.9557,2.56633787403377,2.56633787403377,2.379712066021721,0.0,0.0,0.0,2.504129271363087,0.0,0.0,0.0,0.0,0.0,0.0,0.0,0.0,0.0,0.0,0.0,0.0,0.0,0.0,
0.9716,2.5665952280184,2.5665952280184,2.3799180776292115,0.0,0.0,0.0,2.504369511222004,0.0,0.0,0.0,0.0,0.0,0.0,0.0,0.0,0.0,0.0,0.0,0.0,0.0,0.0,
0.9876,2.566858613080753,2.566858613080753,2.3801289027431975,0.0,0.0,0.0,2.504615376301568,0.0,0.0,0.0,0.0,0.0,0.0,0.0,0.0,0.0,0.0,0.0,0.0,0.0,0.0,
1.0035,2.567124743188188,2.567124743188188,2.3803419103482715,0.0,0.0,0.0,2.504863798908216,0.0,0.0,0.0,0.0,0.0,0.0,0.0,0.0,0.0,0.0,0.0,0.0,0.0,0.0,
1.0194,2.5673952571042626,2.5673952571042626,2.380558411489342,0.0,0.0,0.0,2.5051163085659556,0.0,0.0,0.0,0.0,0.0,0.0,0.0,0.0,0.0,0.0,0.0,0.0,0.0,0.0,
1.0353,2.5676701612997554,2.5676701612997554,2.380778410592793,0.0,0.0,0.0,2.5053729110641014,0.0,0.0,0.0,0.0,0.0,0.0,0.0,0.0,0.0,0.0,0.0,0.0,0.0,0.0,
1.0513,2.5679512328955627,2.5679512328955627,2.381003328923617,0.0,0.0,0.0,2.5056352649049143,0.0,0.0,0.0,0.0,0.0,0.0,0.0,0.0,0.0,0.0,0.0,0.0,0.0,0.0,
1.0672,2.568234965227573,2.568234965227573,2.3812303596044933,0.0,0.0,0.0,2.5059000966865463,0.0,0.0,0.0,0.0,0.0,0.0,0.0,0.0,0.0,0.0,0.0,0.0,0.0,0.0,
1.0831,2.5685231079687005,2.5685231079687005,2.381460902010148,0.0,0.0,0.0,2.5061690393158496,0.0,0.0,0.0,0.0,0.0,0.0,0.0,0.0,0.0,0.0,0.0,0.0,0.0,0.0,
1.0991,2.568817522035208,2.568817522035208,2.381696444076983,0.0,0.0,0.0,2.5064438293824662,0.0,0.0,0.0,0.0,0.0,0.0,0.0,0.0,0.0,0.0,0.0,0.0,0.0,0.0,
1.115,2.5691145343253154,2.5691145343253154,2.381934046361595,0.0,0.0,0.0,2.5067210383374086,0.0,0.0,0.0,0.0,0.0,0.0,0.0,0.0,0.0,0.0,0.0,0.0,0.0,0.0,
1.1309,2.569415978180662,2.569415978180662,2.382175174823163,0.0,0.0,0.0,2.5070023770614958,0.0,0.0,0.0,0.0,0.0,0.0,0.0,0.0,0.0,0.0,0.0,0.0,0.0,0.0,
1.1468,2.5697218608685697,2.5697218608685697,2.3824198344233105,0.0,0.0,0.0,2.507287852053483,0.0,0.0,0.0,0.0,0.0,0.0,0.0,0.0,0.0,0.0,0.0,0.0,0.0,0.0,
1.1628,2.570034155611754,2.570034155611754,2.3826696023817004,0.0,0.0,0.0,2.5075793045350694,0.0,0.0,0.0,0.0,0.0,0.0,0.0,0.0,0.0,0.0,0.0,0.0,0.0,0.0,
1.1787,2.570348966265071,2.570348966265071,2.382921361743004,0.0,0.0,0.0,2.5078730980910486,0.0,0.0,0.0,0.0,0.0,0.0,0.0,0.0,0.0,0.0,0.0,0.0,0.0,0.0,
1.1946,2.5706682382979986,2.5706682382979986,2.3831766676272252,0.0,0.0,0.0,2.5081710480744075,0.0,0.0,0.0,0.0,0.0,0.0,0.0,0.0,0.0,0.0,0.0,0.0,0.0,0.0,
1.2106,2.570994029711725,2.570994029711725,2.3834371645950614,0.0,0.0,0.0,2.508475074672837,0.0,0.0,0.0,0.0,0.0,0.0,0.0,0.0,0.0,0.0,0.0,0.0,0.0,0.0,
1.2265,2.571322276007824,2.571322276007824,2.383699601815893,0.0,0.0,0.0,2.5087813846105136,0.0,0.0,0.0,0.0,0.0,0.0,0.0,0.0,0.0,0.0,0.0,0.0,0.0,0.0,
1.2424,2.5716550072927227,2.5716550072927227,2.3839656016537907,0.0,0.0,0.0,2.5090918720797455,0.0,0.0,0.0,0.0,0.0,0.0,0.0,0.0,0.0,0.0,0.0,0.0,0.0,0.0,
1.2583,2.571992231657924,2.571992231657924,2.3842351696211876,0.0,0.0,0.0,2.509406544312345,0.0,0.0,0.0,0.0,0.0,0.0,0.0,0.0,0.0,0.0,0.0,0.0,0.0,0.0,
1.2743,2.5723361207945246,2.5723361207945246,2.384510040503445,0.0,0.0,0.0,2.5097274273641648,0.0,0.0,0.0,0.0,0.0,0.0,0.0,0.0,0.0,0.0,0.0,0.0,0.0,0.0,
1.2902,2.5726823844645694,2.5726823844645694,2.384786784117187,0.0,0.0,0.0,2.5100505176821084,0.0,0.0,0.0,0.0,0.0,0.0,0.0,0.0,0.0,0.0,0.0,0.0,0.0,0.0,
1.3061,2.5730331662655885,2.5730331662655885,2.3850671129151246,0.0,0.0,0.0,2.5103778151487672,0.0,0.0,0.0,0.0,0.0,0.0,0.0,0.0,0.0,0.0,0.0,0.0,0.0,0.0,
1.3221,2.573390723761273,2.573390723761273,2.3853528297673092,0.0,0.0,0.0,2.510711425763285,0.0,0.0,0.0,0.0,0.0,0.0,0.0,0.0,0.0,0.0,0.0,0.0,0.0,0.0,
1.338,2.5737505962278036,2.5737505962278036,2.3856403691606216,0.0,0.0,0.0,2.5110471872054094,0.0,0.0,0.0,0.0,0.0,0.0,0.0,0.0,0.0,0.0,0.0,0.0,0.0,0.0,
1.3539,2.5741150129783845,2.5741150129783845,2.385931511525195,0.0,0.0,0.0,2.511387179160655,0.0,0.0,0.0,0.0,0.0,0.0,0.0,0.0,0.0,0.0,0.0,0.0,0.0,0.0,
1.3698,2.5744839829600172,2.5744839829600172,2.3862262629417472,0.0,0.0,0.0,2.511731409620594,0.0,0.0,0.0,0.0,0.0,0.0,0.0,0.0,0.0,0.0,0.0,0.0,0.0,0.0,
1.3858,2.57485987896058,2.57485987896058,2.3865265175465793,0.0,0.0,0.0,2.5120820918225797,0.0,0.0,0.0,0.0,0.0,0.0,0.0,0.0,0.0,0.0,0.0,0.0,0.0,0.0,
1.4017,2.575238011525996,2.575238011525996,2.3868285284364568,0.0,0.0,0.0,2.5124348504961493,0.0,0.0,0.0,0.0,0.0,0.0,0.0,0.0,0.0,0.0,0.0,0.0,0.0,0.0,
1.4176,2.5756207249739616,2.5756207249739616,2.3871341671577166,0.0,0.0,0.0,2.5127918723685467,0.0,0.0,0.0,0.0,0.0,0.0,0.0,0.0,0.0,0.0,0.0,0.0,0.0,0.0,
1.4335,2.5760080287557385,2.5760080287557385,2.3874434401244082,0.0,0.0,0.0,2.5131531658786286,0.0,0.0,0.0,0.0,0.0,0.0,0.0,0.0,0.0,0.0,0.0,0.0,0.0,0.0,
1.4495,2.5764024118299784,2.5764024118299784,2.3877583333803316,0.0,0.0,0.0,2.513521052346763,0.0,0.0,0.0,0.0,0.0,0.0,0.0,0.0,0.0,0.0,0.0,0.0,0.0,0.0,
1.4654,2.57679895416711,2.57679895416711,2.388074917377569,0.0,0.0,0.0,2.5138909419039295,0.0,0.0,0.0,0.0,0.0,0.0,0.0,0.0,0.0,0.0,0.0,0.0,0.0,0.0,
1.4813,2.5772001160235827,2.5772001160235827,2.388395155411736,0.0,0.0,0.0,2.514265129152967,0.0,0.0,0.0,0.0,0.0,0.0,0.0,0.0,0.0,0.0,0.0,0.0,0.0,0.0,
1.4973,2.577608474184916,2.577608474184916,2.3887211029352655,0.0,0.0,0.0,2.514646017101699,0.0,0.0,0.0,0.0,0.0,0.0,0.0,0.0,0.0,0.0,0.0,0.0,0.0,0.0,
1.5132,2.5780189343261224,2.5780189343261224,2.3890486924804364,0.0,0.0,0.0,2.5150288537108936,0.0,0.0,0.0,0.0,0.0,0.0,0.0,0.0,0.0,0.0,0.0,0.0,0.0,0.0,
1.5291,2.578434044348114,2.578434044348114,2.3893799566272618,0.0,0.0,0.0,2.51541601510783,0.0,0.0,0.0,0.0,0.0,0.0,0.0,0.0,0.0,0.0,0.0,0.0,0.0,0.0,
1.545,2.578853814614674,2.578853814614674,2.3897149023898105,0.0,0.0,0.0,2.5158075105397195,0.0,0.0,0.0,0.0,0.0,0.0,0.0,0.0,0.0,0.0,0.0,0.0,0.0,0.0,
1.561,2.5792809398659613,2.5792809398659613,2.390055678334,0.0,0.0,0.0,2.516205852688641,0.0,0.0,0.0,0.0,0.0,0.0,0.0,0.0,0.0,0.0,0.0,0.0,0.0,0.0,
1.5769,2.579710091724036,2.579710091724036,2.3903980319878544,0.0,0.0,0.0,2.5166060718119754,0.0,0.0,0.0,0.0,0.0,0.0,0.0,0.0,0.0,0.0,0.0,0.0,0.0,0.0,
1.5928,2.580143935790184,2.580143935790184,2.390744088871899,0.0,0.0,0.0,2.517010653484089,0.0,0.0,0.0,0.0,0.0,0.0,0.0,0.0,0.0,0.0,0.0,0.0,0.0,0.0,
1.6088,2.5805852560322764,2.5805852560322764,2.3910960679063358,0.0,0.0,0.0,2.5174221933236294,0.0,0.0,0.0,0.0,0.0,0.0,0.0,0.0,0.0,0.0,0.0,0.0,0.0,0.0,
1.6247,2.581028547046216,2.581028547046216,2.391449576849044,0.0,0.0,0.0,2.517835556980492,0.0,0.0,0.0,0.0,0.0,0.0,0.0,0.0,0.0,0.0,0.0,0.0,0.0,0.0,
1.6406,2.581476563461531,2.581476563461531,2.391806811439375,0.0,0.0,0.0,2.518253312787479,0.0,0.0,0.0,0.0,0.0,0.0,0.0,0.0,0.0,0.0,0.0,0.0,0.0,0.0,
1.6565,2.5819293165963373,2.5819293165963373,2.392167779314474,0.0,0.0,0.0,2.518675470835716,0.0,0.0,0.0,0.0,0.0,0.0,0.0,0.0,0.0,0.0,0.0,0.0,0.0,0.0,
1.6725,2.582389710325026,2.582389710325026,2.3925347938236454,0.0,0.0,0.0,2.5191047381578993,0.0,0.0,0.0,0.0,0.0,0.0,0.0,0.0,0.0,0.0,0.0,0.0,0.0,0.0,
1.6884,2.582852001385974,2.582852001385974,2.392903275146259,0.0,0.0,0.0,2.519535759306069,0.0,0.0,0.0,0.0,0.0,0.0,0.0,0.0,0.0,0.0,0.0,0.0,0.0,0.0,
1.7043,2.5833190640375934,2.5833190640375934,2.3932755132625028,0.0,0.0,0.0,2.51997121377923,0.0,0.0,0.0,0.0,0.0,0.0,0.0,0.0,0.0,0.0,0.0,0.0,0.0,0.0,
1.7203,2.583793892911901,2.583793892911901,2.3936538929055153,0.0,0.0,0.0,2.5204138929097724,0.0,0.0,0.0,0.0,0.0,0.0,0.0,0.0,0.0,0.0,0.0,0.0,0.0,0.0,
1.7362,2.5842705647392012,2.5842705647392012,2.394033692469997,0.0,0.0,0.0,2.5208582739828,0.0,0.0,0.0,0.0,0.0,0.0,0.0,0.0,0.0,0.0,0.0,0.0,0.0,0.0,
1.7521,2.5847520443182033,2.5847520443182033,2.3944172731727975,0.0,0.0,0.0,2.5213071206030677,0.0,0.0,0.0,0.0,0.0,0.0,0.0,0.0,0.0,0.0,0.0,0.0,0.0,0.0,
1.768,2.585238343967967,2.585238343967967,2.3948046432996724,0.0,0.0,0.0,2.5217604437452024,0.0,0.0,0.0,0.0,0.0,0.0,0.0,0.0,0.0,0.0,0.0,0.0,0.0,0.0,
1.784,2.585732580354951,2.585732580354951,2.395198283442554,0.0,0.0,0.0,2.5222211480508183,0.0,0.0,0.0,0.0,0.0,0.0,0.0,0.0,0.0,0.0,0.0,0.0,0.0,0.0,
1.7999,2.5862285882047713,2.5862285882047713,2.3955932816202434,0.0,0.0,0.0,2.5226834860099285,0.0,0.0,0.0,0.0,0.0,0.0,0.0,0.0,0.0,0.0,0.0,0.0,0.0,0.0,
1.8158,2.586729454048614,2.586729454048614,2.3959920947041873,0.0,0.0,0.0,2.523150334267138,0.0,0.0,0.0,0.0,0.0,0.0,0.0,0.0,0.0,0.0,0.0,0.0,0.0,0.0,
1.8318,2.5872383869757845,2.5872383869757845,2.3963972757871224,0.0,0.0,0.0,2.5236246832462306,0.0,0.0,0.0,0.0,0.0,0.0,0.0,0.0,0.0,0.0,0.0,0.0,0.0,0.0,
1.8477,2.587749038458748,2.587749038458748,2.3968037689177226,0.0,0.0,0.0,2.5241006152784062,0.0,0.0,0.0,0.0,0.0,0.0,0.0,0.0,0.0,0.0,0.0,0.0,0.0,0.0,
1.8636,2.5882645872154986,2.5882645872154986,2.3972141033088565,0.0,0.0,0.0,2.5245810925799512,0.0,0.0,0.0,0.0,0.0,0.0,0.0,0.0,0.0,0.0,0.0,0.0,0.0,0.0,
1.8795,2.5887850466178417,2.5887850466178417,2.3976282879230757,0.0,0.0,0.0,2.5250661270529196,0.0,0.0,0.0,0.0,0.0,0.0,0.0,0.0,0.0,0.0,0.0,0.0,0.0,0.0,
1.8955,2.589313750102523,2.589313750102523,2.3980489732605874,0.0,0.0,0.0,2.5255588244885447,0.0,0.0,0.0,0.0,0.0,0.0,0.0,0.0,0.0,0.0,0.0,0.0,0.0,0.0,
1.9114,2.5898441026305887,2.5898441026305887,2.398470909964159,0.0,0.0,0.0,2.5260530384084454,0.0,0.0,0.0,0.0,0.0,0.0,0.0,0.0,0.0,0.0,0.0,0.0,0.0,0.0,
1.9273,2.590379406939899,2.590379406939899,2.3988967244333503,0.0,0.0,0.0,2.526551846104383,0.0,0.0,0.0,0.0,0.0,0.0,0.0,0.0,0.0,0.0,0.0,0.0,0.0,0.0,
1.9433,2.590923090697913,2.590923090697913,2.399329140877389,0.0,0.0,0.0,2.527058440757738,0.0,0.0,0.0,0.0,0.0,0.0,0.0,0.0,0.0,0.0,0.0,0.0,0.0,0.0,
1.9592,2.591468372090592,2.591468372090592,2.3997627636051977,0.0,0.0,0.0,2.5275665025954606,0.0,0.0,0.0,0.0,0.0,0.0,0.0,0.0,0.0,0.0,0.0,0.0,0.0,0.0,
1.9751,2.59201864783074,2.59201864783074,2.400200292553274,0.0,0.0,0.0,2.5280791960715847,0.0,0.0,0.0,0.0,0.0,0.0,0.0,0.0,0.0,0.0,0.0,0.0,0.0,0.0,
1.991,2.5925739324003345,2.5925739324003345,2.4006417373919477,0.0,0.0,0.0,2.5285965340642056,0.0,0.0,0.0,0.0,0.0,0.0,0.0,0.0,0.0,0.0,0.0,0.0,0.0,0.0,
2.007,2.5931377803223743,2.5931377803223743,2.401089921410881,0.0,0.0,0.0,2.5291218273518763,0.0,0.0,0.0,0.0,0.0,0.0,0.0,0.0,0.0,0.0,0.0,0.0,0.0,0.0,
2.0229,2.593703158386025,2.593703158386025,2.401539252240309,0.0,0.0,0.0,2.5296485230041195,0.0,0.0,0.0,0.0,0.0,0.0,0.0,0.0,0.0,0.0,0.0,0.0,0.0,0.0,
2.0388,2.5942735898051392,2.5942735898051392,2.4019925286590937,0.0,0.0,0.0,2.530179902756457,0.0,0.0,0.0,0.0,0.0,0.0,0.0,0.0,0.0,0.0,0.0,0.0,0.0,0.0,
2.0548,2.594852725291683,2.594852725291683,2.4024526489696,0.0,0.0,0.0,2.5307193665176553,0.0,0.0,0.0,0.0,0.0,0.0,0.0,0.0,0.0,0.0,0.0,0.0,0.0,0.0,
2.0707,2.5954333410460766,2.5954333410460766,2.4029138719180807,0.0,0.0,0.0,2.531260184670078,0.0,0.0,0.0,0.0,0.0,0.0,0.0,0.0,0.0,0.0,0.0,0.0,0.0,0.0,
