energies(eV),real_xx,real_yy,real_zz,real_xy,real_yz,real_xz,real_ave,imag_xx,imag_yy,imag_zz,imag_xy,imag_yz,imag_xz,imag_ave,absorption_xx,absorption_yy,absorption_zz,absorption_xy,absorption_yz,absorption_xz,absorption_ave,band_gap
0.0,3.7548254282780684,3.649907501975488,4.01028859044836,0.0,0.0,-0.07999952972013101,3.8050071735673057,0.0,0.0,0.0,0.0,0.0,0.0,0.0,0.0,0.0,0.0,0.0,0.0,0.0,0.0,5.3536
0.0225,3.7548414679242774,3.6499229379911755,4.010307837211867,0.0,0.0,-0.07999998862216699,3.80502408104244,0.0,0.0,0.0,0.0,0.0,0.0,0.0,0.0,0.0,0.0,0.0,0.0,645.0167699358644,0.0,
0.045,3.7548895884821034,3.64996924764286,4.01036557961806,0.0,0.0,-0.08000136532135309,3.8050748052476746,0.0,0.0,0.0,0.0,0.0,0.0,0.0,0.0,0.0,0.0,0.0,0.0,1290.0446397513315,0.0,
0.0676,3.75497022291156,3.650046847737636,4.010462337722023,0.0,0.0,-0.08000367204308335,3.8051598027904063,0.0,0.0,0.0,0.0,0.0,0.0,0.0,0.0,0.0,0.0,0.0,0.0,1937.9616640263816,0.0,
0.0901,3.755082665769096,3.650155059611455,4.010597265887853,0.0,0.0,-0.08000688833898112,3.8052783304228015,0.0,0.0,0.0,0.0,0.0,0.0,0.0,0.0,0.0,0.0,0.0,0.0,2583.045203006952,0.0,
0.1126,3.7552272138930354,3.650294169257575,4.010770721520615,0.0,0.0,-0.08001102232739576,3.805430701557075,0.0,0.0,0.0,0.0,0.0,0.0,0.0,0.0,0.0,0.0,0.0,0.0,3228.1731848315526,0.0,
0.1351,3.7554038818848667,3.650464191146765,4.010982723700672,0.0,0.0,-0.08001607394514233,3.8056169322441016,0.0,0.0,0.0,0.0,0.0,0.0,0.0,0.0,0.0,0.0,0.0,0.0,3873.356703368267,0.0,
0.1576,3.7556126875965457,3.6506651429715746,4.011233295756808,0.0,0.0,-0.08002204311450974,3.8058370421083096,0.0,0.0,0.0,0.0,0.0,0.0,0.0,0.0,0.0,0.0,0.0,0.0,4518.606849464437,0.0,
0.1802,3.755854794906297,3.6508981454505527,4.011523836670715,0.0,0.0,-0.08002896239789911,3.8060922590091883,0.0,0.0,0.0,0.0,0.0,0.0,0.0,0.0,0.0,0.0,0.0,0.0,5166.80302415042,0.0,
0.2027,3.7561280857392156,3.651161160865119,4.011851807260728,0.0,0.0,-0.08003677045455682,3.806380351288354,0.0,0.0,0.0,0.0,0.0,0.0,0.0,0.0,0.0,0.0,0.0,0.0,5812.22010210422,0.0,
0.2252,3.7564335875397092,3.651455178812455,4.012218443454925,0.0,0.0,-0.08004549573866496,3.8067024032690298,0.0,0.0,0.0,0.0,0.0,0.0,0.0,0.0,0.0,0.0,0.0,0.0,6457.737105014997,0.0,
0.2477,3.756771331239866,3.6517802299517124,4.012623785683097,0.0,0.0,-0.08005513811076306,3.807058448958225,0.0,0.0,0.0,0.0,0.0,0.0,0.0,0.0,0.0,0.0,0.0,0.0,7103.365105326909,0.0,
0.2702,3.757141351059024,3.6521363482014886,4.013067878674546,0.0,0.0,-0.080065697414795,3.807448525978353,0.0,0.0,0.0,0.0,0.0,0.0,0.0,0.0,0.0,0.0,0.0,0.0,7749.115169257726,0.0,
0.2928,3.7575455448496533,3.652525361226594,4.013553004345739,0.0,0.0,-0.0800772265282664,3.807874636807329,0.0,0.0,0.0,0.0,0.0,0.0,0.0,0.0,0.0,0.0,0.0,0.0,8397.869261689813,0.0,
0.3153,3.757980376660098,3.652943867061679,4.0140749231297,0.0,0.0,-0.08008962323181802,3.8083330556171586,0.0,0.0,0.0,0.0,0.0,0.0,0.0,0.0,0.0,0.0,0.0,0.0,9043.897288625412,0.0,
0.3378,3.758447607282907,3.65339356163311,4.014635753079549,0.0,0.0,-0.08010293629245455,3.8088256406651886,0.0,0.0,0.0,0.0,0.0,0.0,0.0,0.0,0.0,0.0,0.0,0.0,9690.08058265889,0.0,
0.3603,3.7589472842146585,3.6538744920285966,4.015235556300367,0.0,0.0,-0.08011716548121639,3.809352444181208,0.0,0.0,0.0,0.0,0.0,0.0,0.0,0.0,0.0,0.0,0.0,0.0,10336.430178092853,0.0,
0.3828,3.7594794583009703,3.654386708658897,4.015874399283087,0.0,0.0,-0.08013231054903197,3.8099135220809845,0.0,0.0,0.0,0.0,0.0,0.0,0.0,0.0,0.0,0.0,0.0,0.0,10982.957099421337,0.0,
0.4054,3.7600467663854213,3.654932751118647,4.01655545346287,0.0,0.0,-0.08014844464991171,3.81051165698898,0.0,0.0,0.0,0.0,0.0,0.0,0.0,0.0,0.0,0.0,0.0,0.0,11632.547087406288,0.0,
0.4279,3.760644245854755,3.6555078444984432,4.017272767429448,0.0,0.0,-0.08016542471104071,3.8111416192608822,0.0,0.0,0.0,0.0,0.0,0.0,0.0,0.0,0.0,0.0,0.0,0.0,12279.462601357773,0.0,
0.4504,3.7612743955486208,3.6561143957239906,4.018029347533153,0.0,0.0,-0.08018331977266681,3.811806046268588,0.0,0.0,0.0,0.0,0.0,0.0,0.0,0.0,0.0,0.0,0.0,0.0,12926.58849673498,0.0,
0.4729,3.761937279889336,3.656752468682904,4.018825278058481,0.0,0.0,-0.08020212949563327,3.8125050088769066,0.0,0.0,0.0,0.0,0.0,0.0,0.0,0.0,0.0,0.0,0.0,0.0,13573.935750689618,0.0,
0.4954,3.762632966736293,3.6574221306762578,4.019660647798513,0.0,0.0,-0.08022185351557917,3.8132385817370213,0.0,0.0,0.0,0.0,0.0,0.0,0.0,0.0,0.0,0.0,0.0,0.0,14221.515326398729,0.0,
0.518,3.7633648389420897,3.658126640202657,4.020539526923386,0.0,0.0,-0.08024258520515357,3.8140103353560444,0.0,0.0,0.0,0.0,0.0,0.0,0.0,0.0,0.0,0.0,0.0,0.0,14872.217944103651,0.0,
0.5405,3.7641264948436577,3.6588598371406564,4.021454236013837,0.0,0.0,-0.08026414067796506,3.81481352266605,0.0,0.0,0.0,0.0,0.0,0.0,0.0,0.0,0.0,0.0,0.0,0.0,15520.296146475868,0.0,
0.563,3.764921178021652,3.6596248460697516,4.022408678513913,0.0,0.0,-0.08028660918885432,3.815651567535106,0.0,0.0,0.0,0.0,0.0,0.0,0.0,0.0,0.0,0.0,0.0,0.0,16168.639515366263,0.0,
0.5855,3.7657489703187665,3.6604217481859993,4.02340296157791,0.0,0.0,-0.0803099902596044,3.8165245600275584,0.0,0.0,0.0,0.0,0.0,0.0,0.0,0.0,0.0,0.0,0.0,0.0,16817.258948397426,0.0,
0.608,3.7666099571302865,3.66125062821765,4.02443719702995,0.0,0.0,-0.08033428337997173,3.8174325941259624,0.0,0.0,0.0,0.0,0.0,0.0,0.0,0.0,0.0,0.0,0.0,0.0,17466.165324238507,0.0,
0.6306,3.7675082763938827,3.662115472590736,4.025516365704012,0.0,0.0,-0.08035960206037478,3.8183800382295434,0.0,0.0,0.0,0.0,0.0,0.0,0.0,0.0,0.0,0.0,0.0,0.0,18118.255534282107,0.0,
0.6531,3.7684360713139027,3.6630087200395494,4.0266310391716456,0.0,0.0,-0.08038572166031706,3.819358610175032,0.0,0.0,0.0,0.0,0.0,0.0,0.0,0.0,0.0,0.0,0.0,0.0,18767.769746202797,0.0,
0.6756,3.7693973389561135,3.663934221493146,4.027786029468571,0.0,0.0,-0.08041275156784808,3.82037252997261,0.0,0.0,0.0,0.0,0.0,0.0,0.0,0.0,0.0,0.0,0.0,0.0,19417.603459859685,0.0,
0.6981,3.7703921792193618,3.664892076110046,4.028981467507176,0.0,0.0,-0.08044069112771793,3.8214219076121942,0.0,0.0,0.0,0.0,0.0,0.0,0.0,0.0,0.0,0.0,0.0,0.0,20067.76746639034,0.0,
0.7206,3.7714206956998555,3.665882386729986,4.0302174890720615,0.0,0.0,-0.08046953964386425,3.8225068571673013,0.0,0.0,0.0,0.0,0.0,0.0,0.0,0.0,0.0,0.0,0.0,0.0,20718.2725319252,0.0,
0.7432,3.772487792629697,3.666909878856538,4.031500000407513,0.0,0.0,-0.08049943065562178,3.823632557297916,0.0,0.0,0.0,0.0,0.0,0.0,0.0,0.0,0.0,0.0,0.0,0.0,21372.022894633184,0.0,
0.7657,3.773584138183607,3.6679655703607734,4.032817798074945,0.0,0.0,-0.08053009885392254,3.824789168873109,0.0,0.0,0.0,0.0,0.0,0.0,0.0,0.0,0.0,0.0,0.0,0.0,22023.24390468405,0.0,
0.7882,3.7747144937795287,3.669054049333237,4.034176617003247,0.0,0.0,-0.0805616736510033,3.825981720038671,0.0,0.0,0.0,0.0,0.0,0.0,0.0,0.0,0.0,0.0,0.0,0.0,22674.838155562047,0.0,
0.8107,3.775878978159697,3.6701754337053947,4.035576612964036,0.0,0.0,-0.08059415416622139,3.827210341609709,0.0,0.0,0.0,0.0,0.0,0.0,0.0,0.0,0.0,0.0,0.0,0.0,23326.816298992922,0.0,
0.8333,3.7770831182945197,3.6713350498958266,4.037024445292772,0.0,0.0,-0.08062768986431094,3.8284808711610396,0.0,0.0,0.0,0.0,0.0,0.0,0.0,0.0,0.0,0.0,0.0,0.0,23982.089284673588,0.0,
0.8558,3.7783163850838197,3.6725227619873606,4.038507468006755,0.0,0.0,-0.0806619829785298,3.829782205025978,0.0,0.0,0.0,0.0,0.0,0.0,0.0,0.0,0.0,0.0,0.0,0.0,24634.86886094665,0.0,
0.8783,3.779584160874911,3.6737437572003024,4.040032166780135,0.0,0.0,-0.08069717884288938,3.8311200282851163,0.0,0.0,0.0,0.0,0.0,0.0,0.0,0.0,0.0,0.0,0.0,0.0,25288.064130306673,0.0,
0.9008,3.7808865801651215,3.6749981691854834,4.041598718224515,0.0,0.0,-0.08073327635354327,3.8324944891917063,0.0,0.0,0.0,0.0,0.0,0.0,0.0,0.0,0.0,0.0,0.0,0.0,25941.685604159306,0.0,
0.9233,3.7822237814917954,3.676286135628136,4.0432073043038095,0.0,0.0,-0.0807702743440692,3.8339057404745804,0.0,0.0,0.0,0.0,0.0,0.0,0.0,0.0,0.0,0.0,0.0,0.0,26595.74375428516,0.0,
0.9459,3.783602083987749,3.677613747780004,4.044865543851666,0.0,0.0,-0.08080834201996788,3.8353604585398062,0.0,0.0,0.0,0.0,0.0,0.0,0.0,0.0,0.0,0.0,0.0,0.0,27253.158936590684,0.0,
0.9684,3.7850094375933954,3.678969403306343,4.046558955769706,0.0,0.0,-0.08084714119357365,3.8368459322231483,0.0,0.0,0.0,0.0,0.0,0.0,0.0,0.0,0.0,0.0,0.0,0.0,27908.12374247162,0.0,
0.9909,3.7864520142269567,3.6803590517020113,4.048294981866526,0.0,0.0,-0.08088683693576679,3.838368682598498,0.0,0.0,0.0,0.0,0.0,0.0,0.0,0.0,0.0,0.0,0.0,0.0,28563.55642770473,0.0,
1.0134,3.7879299690716937,3.6817828472904015,4.050073826195494,0.0,0.0,-0.08092742779854525,3.8399288808525296,0.0,0.0,0.0,0.0,0.0,0.0,0.0,0.0,0.0,0.0,0.0,0.0,29219.46728453735,0.0,
1.0359,3.7894434615924975,3.6832409486785695,4.051895698501392,0.0,0.0,-0.0809689122551963,3.8415267029241527,0.0,0.0,0.0,0.0,0.0,0.0,0.0,0.0,0.0,0.0,0.0,0.0,29875.866554711152,0.0,
1.0585,3.790999620834091,3.684740229642794,4.053769200550306,0.0,0.0,-0.08101147902490279,3.8431696836757303,0.0,0.0,0.0,0.0,0.0,0.0,0.0,0.0,0.0,0.0,0.0,0.0,30535.685101156494,0.0,
1.081,3.7925848442983936,3.686267590181036,4.055677974865881,0.0,0.0,-0.08105474970891927,3.8448434697817704,0.0,0.0,0.0,0.0,0.0,0.0,0.0,0.0,0.0,0.0,0.0,0.0,31193.09399234921,0.0,
1.1035,3.7942061108404914,3.6878297593737757,4.057630442323609,0.0,0.0,-0.08109890888917252,3.846555437512625,0.0,0.0,0.0,0.0,0.0,0.0,0.0,0.0,0.0,0.0,0.0,0.0,31851.021738502306,0.0,
1.126,3.795863597620622,3.689426913549868,4.059626836232091,0.0,0.0,-0.08114395468582786,3.848305782467527,0.0,0.0,0.0,0.0,0.0,0.0,0.0,0.0,0.0,0.0,0.0,0.0,32509.478353283906,0.0,
1.1485,3.797557486364068,3.6910592336146593,4.061667395989858,0.0,0.0,-0.08118988512061624,3.850094705322862,0.0,0.0,0.0,0.0,0.0,0.0,0.0,0.0,0.0,0.0,0.0,0.0,33168.4737863818,0.0,
1.1711,3.7992957363843924,3.6927343961775017,4.063761733215319,0.0,0.0,-0.08123690813687415,3.8519306219257374,0.0,0.0,0.0,0.0,0.0,0.0,0.0,0.0,0.0,0.0,0.0,0.0,33830.95046712525,0.0,
1.1936,3.801063156700441,3.694437767759859,4.065891566741886,0.0,0.0,-0.08128460540473868,3.8537974970673954,0.0,0.0,0.0,0.0,0.0,0.0,0.0,0.0,0.0,0.0,0.0,0.0,34491.0556186582,0.0,
1.2161,3.802867553057624,3.696176876935912,4.068066322902775,0.0,0.0,-0.08133318072961537,3.85570358429877,0.0,0.0,0.0,0.0,0.0,0.0,0.0,0.0,0.0,0.0,0.0,0.0,35151.72906556675,0.0,
1.2386,3.804709126103463,3.6979519236010923,4.070286266386978,0.0,0.0,-0.081382631692826,3.857649105363844,0.0,0.0,0.0,0.0,0.0,0.0,0.0,0.0,0.0,0.0,0.0,0.0,35812.98046933874,0.0,
1.2611,3.8065880813808612,3.6997631125692054,4.072551668438942,0.0,0.0,-0.08143295575322652,3.859634287463003,0.0,0.0,0.0,0.0,0.0,0.0,0.0,0.0,0.0,0.0,0.0,0.0,36474.81941078844,0.0,
1.2837,3.808513231621949,3.701618946400873,4.074873181197395,0.0,0.0,-0.08148437971162141,3.861668453073406,0.0,0.0,0.0,0.0,0.0,0.0,0.0,0.0,0.0,0.0,0.0,0.0,37140.20089286353,0.0,
1.3062,3.81046775646197,3.703503217472792,4.077230546035995,0.0,0.0,-0.08153644567555944,3.8637338399902528,0.0,0.0,0.0,0.0,0.0,0.0,0.0,0.0,0.0,0.0,0.0,0.0,37803.2460264773,0.0,
1.3287,3.812460311260339,3.7054242765473635,4.079634224853162,0.0,0.0,-0.08158937631002156,3.8658396042202887,0.0,0.0,0.0,0.0,0.0,0.0,0.0,0.0,0.0,0.0,0.0,0.0,38466.906958655956,0.0,
1.3512,3.814491121909014,3.7073823489055013,4.0820845161959465,0.0,0.0,-0.08164316852719074,3.867985995670154,0.0,0.0,0.0,0.0,0.0,0.0,0.0,0.0,0.0,0.0,0.0,0.0,39131.19290751936,0.0,
1.3737,3.8165604195790603,3.7093776651438644,4.084581725708296,0.0,0.0,-0.08169781908754323,3.87017327014374,0.0,0.0,0.0,0.0,0.0,0.0,0.0,0.0,0.0,0.0,0.0,0.0,39796.112989830086,0.0,
1.3963,3.8186778965810744,3.7114195799278713,4.087137580773142,0.0,0.0,-0.08175357318749026,3.872411685760696,0.0,0.0,0.0,0.0,0.0,0.0,0.0,0.0,0.0,0.0,0.0,0.0,40464.63572396105,0.0,
1.4188,3.8208250570725313,3.713490265613615,4.0897297846037155,0.0,0.0,-0.08180993385143905,3.8746817024299536,0.0,0.0,0.0,0.0,0.0,0.0,0.0,0.0,0.0,0.0,0.0,0.0,41130.85391202255,0.0,
1.4413,3.8230114317345367,3.7155989208549696,4.0923698687909065,0.0,0.0,-0.0818671421458023,3.876993407126804,0.0,0.0,0.0,0.0,0.0,0.0,0.0,0.0,0.0,0.0,0.0,0.0,41797.73296648482,0.0,
1.4638,3.825237273741359,3.717745798430576,4.09505816861903,0.0,0.0,-0.08192519415510693,3.879347080263655,0.0,0.0,0.0,0.0,0.0,0.0,0.0,0.0,0.0,0.0,0.0,0.0,42465.28154910439,0.0,
1.4863,3.82750284199064,3.7199311568956617,4.097795027097818,0.0,0.0,-0.08198408577659302,3.8817430086613727,0.0,0.0,0.0,0.0,0.0,0.0,0.0,0.0,0.0,0.0,0.0,0.0,43133.50819464481,0.0,
1.5089,3.829818737795138,3.722165232472755,4.100593285993835,0.0,0.0,-0.08204408002314308,3.884192418753909,0.0,0.0,0.0,0.0,0.0,0.0,0.0,0.0,0.0,0.0,0.0,0.0,43805.39579685143,0.0,
1.5314,3.832164738155846,3.724428526010431,4.1034285421785,0.0,0.0,-0.08210464145344978,3.886673935448259,0.0,0.0,0.0,0.0,0.0,0.0,0.0,0.0,0.0,0.0,0.0,0.0,44475.00674112332,0.0,
1.5539,3.8345512780174067,3.7267311130257545,4.106313435437249,0.0,0.0,-0.08216602896101174,3.889198608826803,0.0,0.0,0.0,0.0,0.0,0.0,0.0,0.0,0.0,0.0,0.0,0.0,45145.32056693766,0.0,
1.5764,3.8369786401952855,3.729073276243674,4.109248341131733,0.0,0.0,-0.08222823760976938,3.891766752523564,0.0,0.0,0.0,0.0,0.0,0.0,0.0,0.0,0.0,0.0,0.0,0.0,45816.34523961435,0.0,
1.5989,3.8394471137420942,3.731455304699736,4.11223364307777,0.0,0.0,-0.08229126223304771,3.8943786871732002,0.0,0.0,0.0,0.0,0.0,0.0,0.0,0.0,0.0,0.0,0.0,0.0,46488.088565690356,0.0,
1.6215,3.8419682419551884,3.7338883492321875,4.1152833414008105,0.0,0.0,-0.08235538293670568,3.897046644196062,0.0,0.0,0.0,0.0,0.0,0.0,0.0,0.0,0.0,0.0,0.0,0.0,47163.54857193198,0.0,
1.644,3.8445200169654274,3.736351181617289,4.1183708503329655,0.0,0.0,-0.08242002660183492,3.899747349638561,0.0,0.0,0.0,0.0,0.0,0.0,0.0,0.0,0.0,0.0,0.0,0.0,47836.75523044305,0.0,
1.6665,3.847113810448295,3.738854786779398,4.12150996114578,0.0,0.0,-0.08248546923152124,3.9024928527911578,0.0,0.0,0.0,0.0,0.0,0.0,0.0,0.0,0.0,0.0,0.0,0.0,48510.70296745368,0.0,
1.689,3.8497499375888364,3.741399480226477,4.12470109315073,0.0,0.0,-0.08255170463400222,3.9052835036553475,0.0,0.0,0.0,0.0,0.0,0.0,0.0,0.0,0.0,0.0,0.0,0.0,49185.3988780764,0.0,
1.7115,3.8524287204038914,3.743985584395803,4.12794467495838,0.0,0.0,-0.08261872633404425,3.908119659919358,0.0,0.0,0.0,0.0,0.0,0.0,0.0,0.0,0.0,0.0,0.0,0.0,49860.84985917933,0.0,
1.7341,3.8551626810604276,3.746625201764971,4.131255914354352,0.0,0.0,-0.08268683062937617,3.9110145990599166,0.0,0.0,0.0,0.0,0.0,0.0,0.0,0.0,0.0,0.0,0.0,0.0,50540.06970044076,0.0,
1.7566,3.8579279625511607,3.749295310857391,4.134605957784397,0.0,0.0,-0.08275540772182867,3.913943077064316,0.0,0.0,0.0,0.0,0.0,0.0,0.0,0.0,0.0,0.0,0.0,0.0,51217.05410338448,0.0,
1.7791,3.860736909614666,3.752007842474991,4.138009796571543,0.0,0.0,-0.08282474983029514,3.9169181828870667,0.0,0.0,0.0,0.0,0.0,0.0,0.0,0.0,0.0,0.0,0.0,0.0,51894.813013512925,0.0,
1.8016,3.863589872962825,3.7547631481965276,4.141467898468549,0.0,0.0,-0.08289484922021313,3.919940306542634,0.0,0.0,0.0,0.0,0.0,0.0,0.0,0.0,0.0,0.0,0.0,0.0,52573.35243989525,0.0,
1.8241,3.866487210827454,3.7575615872473542,4.144980741507801,0.0,0.0,-0.08296569780891036,3.9230098465275365,0.0,0.0,0.0,0.0,0.0,0.0,0.0,0.0,0.0,0.0,0.0,0.0,53252.678144295314,0.0,
1.8467,3.86944246543357,3.760416255151329,4.1485647963349415,0.0,0.0,-0.083037606966317,3.9261411723066133,0.0,0.0,0.0,0.0,0.0,0.0,0.0,0.0,0.0,0.0,0.0,0.0,53935.82014963688,0.0,
1.8692,3.8724298592155186,3.763302265762137,4.152188846766261,0.0,0.0,-0.08310993147143558,3.929306990581306,0.0,0.0,0.0,0.0,0.0,0.0,0.0,0.0,0.0,0.0,0.0,0.0,54616.73820340083,0.0,
1.8917,3.875462750568375,3.7662325365698694,4.155869138581691,0.0,0.0,-0.08318297864807159,3.9325214752399784,0.0,0.0,0.0,0.0,0.0,0.0,0.0,0.0,0.0,0.0,0.0,0.0,55298.45824387827,0.0,
1.9142,3.8785415293879937,3.769207459038633,4.159606193190706,0.0,0.0,-0.08325673886737682,3.9357850605391107,0.0,0.0,0.0,0.0,0.0,0.0,0.0,0.0,0.0,0.0,0.0,0.0,55980.98492554488,0.0,
1.9367,3.881666593888241,3.7722274331124406,4.163400543422181,0.0,0.0,-0.08333120207312464,3.9390981901409545,0.0,0.0,0.0,0.0,0.0,0.0,0.0,0.0,0.0,0.0,0.0,0.0,56664.32259445401,0.0,
1.9593,3.884852552311019,3.7753065936407264,4.167269984549897,0.0,0.0,-0.08340669331862151,3.9424763768338806,0.0,0.0,0.0,0.0,0.0,0.0,0.0,0.0,0.0,0.0,0.0,0.0,57351.51777770425,0.0,
1.9818,3.8880716272717546,3.7784181104386847,4.171180832244841,0.0,0.0,-0.08348253353259445,3.945890189985093,0.0,0.0,0.0,0.0,0.0,0.0,0.0,0.0,0.0,0.0,0.0,0.0,58036.49280169461,0.0,
2.0043,3.891338236138834,3.7815759333190333,4.175150647651579,0.0,0.0,-0.08355904376525006,3.949354939036482,0.0,0.0,0.0,0.0,0.0,0.0,0.0,0.0,0.0,0.0,0.0,0.0,58722.28987215118,0.0,
2.0268,3.8946528122362905,3.7847804980657167,4.179180011903991,0.0,0.0,-0.08363621206180352,3.9528711074019998,0.0,0.0,0.0,0.0,0.0,0.0,0.0,0.0,0.0,0.0,0.0,0.0,59408.911954057745,0.0,
2.0493,3.8980157981337222,3.7880322499124324,4.183269518883012,0.0,0.0,-0.08371402594254786,3.9564391889763892,0.0,0.0,0.0,0.0,0.0,0.0,0.0,0.0,0.0,0.0,0.0,0.0,60096.36162764001,0.0,
2.0719,3.901442919366047,3.7913464147588405,4.187438357611857,0.0,0.0,-0.08379282242348485,3.960075897245581,0.0,0.0,0.0,0.0,0.0,0.0,0.0,0.0,0.0,0.0,0.0,0.0,60787.70194560363,0.0,
2.0944,3.9049043108356196,3.794694130234926,4.191650258298875,0.0,0.0,-0.08387189054218612,3.9637495664564733,0.0,0.0,0.0,0.0,0.0,0.0,0.0,0.0,0.0,0.0,0.0,0.0,61476.81661523403,0.0,
2.1169,3.9084154994656526,3.7980904295020044,4.195924165641301,0.0,0.0,-0.08395156336643794,3.967476698202986,0.0,0.0,0.0,0.0,0.0,0.0,0.0,0.0,0.0,0.0,0.0,0.0,62166.76413526422,0.0,
2.1394,3.911976966946048,3.801535797831192,4.200260727573532,0.0,0.0,-0.08403182608353021,3.971257830783591,0.0,0.0,0.0,0.0,0.0,0.0,0.0,0.0,0.0,0.0,0.0,0.0,62857.54536236215,0.0,
2.1619,3.915589205293087,3.8050307310756946,4.204660606328223,0.0,0.0,-0.08411266323533399,3.9750935142323347,0.0,0.0,0.0,0.0,0.0,0.0,0.0,0.0,0.0,0.0,0.0,0.0,63549.16067278908,0.0,
2.1845,3.919269114569764,3.808591604028882,4.2091444620761775,0.0,0.0,-0.08419442166990801,3.979001726891608,0.0,0.0,0.0,0.0,0.0,0.0,0.0,0.0,0.0,0.0,0.0,0.0,64244.68935353552,0.0,
2.207,3.922984644521783,3.812187424255426,4.21367330913807,0.0,0.0,-0.08427636096511602,3.9829484593050934,0.0,0.0,0.0,0.0,0.0,0.0,0.0,0.0,0.0,0.0,0.0,0.0,64937.97562872071,0.0,
2.2295,3.926752488109321,3.815834365349947,4.218267552147083,0.0,0.0,-0.084358824089016,3.9869514685354503,0.0,0.0,0.0,0.0,0.0,0.0,0.0,0.0,0.0,0.0,0.0,0.0,65632.09400308765,0.0,
2.252,3.930573181149986,3.8195329681107646,4.2229279141156635,0.0,0.0,-0.08444179271268253,3.9910113544588044,0.0,0.0,0.0,0.0,0.0,0.0,0.0,0.0,0.0,0.0,0.0,0.0,66327.04269941071,0.0,
2.2745,3.93444727105137,3.8232837852442128,4.227655134172462,0.0,0.0,-0.08452524771229793,3.995128730156015,0.0,0.0,0.0,0.0,0.0,0.0,0.0,0.0,0.0,0.0,0.0,0.0,67022.81933976235,0.0,
2.2971,3.938392896354048,3.8271044051940097,4.232471430400911,0.0,0.0,-0.08460954312964794,3.9993229106496564,0.0,0.0,0.0,0.0,0.0,0.0,0.0,0.0,0.0,0.0,0.0,0.0,67722.51876108459,0.0,
2.3196,3.942375713595109,3.830961596739309,4.237334956186691,0.0,0.0,-0.08469391209131732,4.003557422173703,0.0,0.0,0.0,0.0,0.0,0.0,0.0,0.0,0.0,0.0,0.0,0.0,68419.94525463437,0.0,
2.3421,3.946413644904016,3.834872737839596,4.242267661759212,0.0,0.0,-0.08477870484185032,4.007851348167608,0.0,0.0,0.0,0.0,0.0,0.0,0.0,0.0,0.0,0.0,0.0,0.0,69118.18865088762,0.0,
2.3646,3.9505072869735294,3.8388384319051116,4.247270354925528,0.0,0.0,-0.08486389871791812,4.0122053579347225,0.0,0.0,0.0,0.0,0.0,0.0,0.0,0.0,0.0,0.0,0.0,0.0,69817.24387653095,0.0,
2.3871,3.954657249569818,3.842859295812923,4.25234386174787,0.0,0.0,-0.08494947007500449,4.016620135710204,0.0,0.0,0.0,0.0,0.0,0.0,0.0,0.0,0.0,0.0,0.0,0.0,70517.10510559106,0.0,
2.4097,3.9588829812688657,3.8469542042677722,4.257512055646461,0.0,0.0,-0.08503577687965043,4.021116413727699,0.0,0.0,0.0,0.0,0.0,0.0,0.0,0.0,0.0,0.0,0.0,0.0,71220.88154523958,0.0,
2.4322,3.963147725510738,3.85108756641739,4.262730067641968,0.0,0.0,-0.08512202952063581,4.025655119856698,0.0,0.0,0.0,0.0,0.0,0.0,0.0,0.0,0.0,0.0,0.0,0.0,71922.337618129,0.0,
