energies(eV),real_xx,real_yy,real_zz,real_xy,real_yz,real_xz,real_ave,imag_xx,imag_yy,imag_zz,imag_xy,imag_yz,imag_xz,imag_ave,absorption_xx,absorption_yy,absorption_zz,absorption_xy,absorption_yz,absorption_xz,absorption_ave,band_gap
0.0,2.18402855461187,2.1728139213486912,2.1868990480374633,-0.00712615006721798,0.014546907410793702,0.0036841991205550624,2.1812471746660083,0.0,0.0,0.0,0.0,0.0,0.0,0.0,0.0,0.0,0.0,0.0,0.0,0.0,0.0,7.5939000000000005
0.0175,2.1840301335704457,2.1728154657137244,2.1869006325081464,-0.007126168138704571,0.014546963832787358,0.0036842131145742134,2.1812487439307726,0.0,0.0,0.0,0.0,0.0,0.0,0.0,0.0,0.0,0.0,149.7302696200295,0.0,0.0,0.0,
0.035,2.1840348704809376,2.172820098842772,2.186905385955562,-0.007126222353750673,0.014547133100878861,0.0036842550970695087,2.181253451759757,0.0,0.0,0.0,0.0,0.0,0.0,0.0,0.0,0.0,0.0,299.46167836811117,0.0,0.0,0.0,
0.0525,2.1840427654476624,2.172827820837759,2.1869133084857872,-0.007126312714115468,0.014547415221401044,0.0036843250693545174,2.1812612982570694,0.0,0.0,0.0,0.0,0.0,0.0,0.0,0.0,0.0,0.0,449.19536541945644,0.0,0.0,0.0,
0.07,2.184053818644493,2.172838631868499,2.1869244002756507,-0.007126439222731063,0.014547810204909235,0.003684423033618567,2.1812722835962144,0.0,0.0,0.0,0.0,0.0,0.0,0.0,0.0,0.0,0.0,598.9324700436009,0.0,0.0,0.0,
0.0875,2.184068030314865,2.172852532172791,2.186938661572734,-0.007126601883702695,0.01454831806618216,0.003684548992927065,2.18128640802013,0.0,0.0,0.0,0.0,0.0,0.0,0.0,0.0,0.0,0.0,748.674131651574,0.0,0.0,0.0,
0.105,2.1840854007717896,2.1728695220563785,2.1869560926953624,-0.00712680070230936,0.014548938824223095,0.0036847029512215392,2.1813036718411767,0.0,0.0,0.0,0.0,0.0,0.0,0.0,0.0,0.0,0.0,898.4214898431029,0.0,0.0,0.0,
0.1225,2.184105930397881,2.172889601893029,2.1869766940326434,-0.007127035685004168,0.014549672502261815,0.0036848849133200657,2.1813240754411845,0.0,0.0,0.0,0.0,0.0,0.0,0.0,0.0,0.0,0.0,1048.1756844538231,0.0,0.0,0.0,
0.14,2.1841296196453843,2.1729127721244796,2.1870004660445312,-0.007127306839414859,0.014550519127756689,0.003685094884917629,2.1813476192714654,0.0,0.0,0.0,0.0,0.0,0.0,0.0,0.0,0.0,0.0,1197.9378556025158,0.0,0.0,0.0,
0.1575,2.1841564690362043,2.1729390332605365,2.187027409261783,-0.007127614174344647,0.014551478732396896,0.003685332872586605,2.181374303852841,0.0,0.0,0.0,0.0,0.0,0.0,0.0,0.0,0.0,0.0,1347.7091437383906,0.0,0.0,0.0,
0.175,2.184186479161931,2.1729683858790816,2.187057524286061,-0.007127957699773232,0.014552551352105403,0.0036855988837770776,2.181404129775691,0.0,0.0,0.0,0.0,0.0,0.0,0.0,0.0,0.0,0.0,1497.4906896884233,0.0,0.0,0.0,
0.1925,2.184219650683897,2.173000830626102,2.1870908117899446,-0.007128337426857397,0.014553737027042263,0.0036858929268176873,2.1814370976999817,0.0,0.0,0.0,0.0,0.0,0.0,0.0,0.0,0.0,0.0,1647.2836347046882,0.0,0.0,0.0,
0.21,2.1842559843332006,2.17303636821577,2.18712727251698,-0.007128753367932318,0.014555035801608027,0.0036862150109160203,2.181473208355317,0.0,0.0,0.0,0.0,0.0,0.0,0.0,0.0,0.0,0.0,1797.0891205117969,0.0,0.0,0.0,
0.2275,2.184295480910782,2.173074999430442,2.187166907281722,-0.007129205536512716,0.01455644772444771,0.0036865651461594467,2.181512462540982,0.0,0.0,0.0,0.0,0.0,0.0,0.0,0.0,0.0,0.0,1946.9082893543707,0.0,0.0,0.0,
0.245,2.184338141287454,2.173116725120753,2.187209716969819,-0.007129693947293994,0.0145579728484551,0.0036869433435159243,2.1815548611260085,0.0,0.0,0.0,0.0,0.0,0.0,0.0,0.0,0.0,0.0,2096.7422840445574,0.0,0.0,0.0,
0.2625,2.184383966403958,2.173161546205662,2.1872557025380526,-0.007130218616153832,0.014559611230777968,0.003687349614834827,2.1816004050492244,0.0,0.0,0.0,0.0,0.0,0.0,0.0,0.0,0.0,0.0,2246.59224800966,0.0,0.0,0.0,
0.28,2.1844329572710617,2.173209463672504,2.1873048650143927,-0.007130779560153718,0.014561362932822121,0.00368778397284774,2.1816490953193193,0.0,0.0,0.0,0.0,0.0,0.0,0.0,0.0,0.0,0.0,2396.4593253398257,0.0,0.0,0.0,
0.2975,2.184485114969589,2.173260478577066,2.1873572054981025,-0.007131376797540367,0.014563228020258157,0.0036882464311696023,2.1817009330149193,0.0,0.0,0.0,0.0,0.0,0.0,0.0,0.0,0.0,0.0,2546.3446608357667,0.0,0.0,0.0,
0.315,2.1845404406505136,2.1733145920436603,2.1874127251597786,-0.007132010347747721,0.014565206563026253,0.0036887370042996788,2.1817559192846505,0.0,0.0,0.0,0.0,0.0,0.0,0.0,0.0,0.0,0.0,2696.249400056661,0.0,0.0,0.0,
0.3325,2.184598935535023,2.173371805265199,2.187471425241459,-0.007132680231398541,0.014567298635343182,0.003689255707622695,2.181814055347227,0.0,0.0,0.0,0.0,0.0,0.0,0.0,0.0,0.0,0.0,2846.1746893680324,0.0,0.0,0.0,
0.3501,2.184660962401127,2.1734324730692682,2.187533669812301,-0.007133390610466923,0.0145695172462026,0.0036898057631765398,2.1818757017608985,0.0,0.0,0.0,0.0,0.0,0.0,0.0,0.0,0.0,0.0,2996.978580465195,0.0,0.0,0.0,
0.3676,2.184725817766658,2.1734959073859077,2.187598752939608,-0.007134133435583368,0.01457183726731402,0.0036903809375735557,2.181940159364058,0.0,0.0,0.0,0.0,0.0,0.0,0.0,0.0,0.0,0.0,3146.948546366198,0.0,0.0,0.0,
0.3851,2.184793846429927,2.1735624454568576,2.187667020651004,-0.007134912663307882,0.014574271066860264,0.0036909842937484206,2.1820077708459293,0.0,0.0,0.0,0.0,0.0,0.0,0.0,0.0,0.0,0.0,3296.942513342479,0.0,0.0,0.0,
0.4026,2.184865049894308,2.173632088750701,2.1877384744755783,-0.007135728319046803,0.014576818736257944,0.003691615850645419,2.1820785377068623,0.0,0.0,0.0,0.0,0.0,0.0,0.0,0.0,0.0,0.0,3446.961631472363,0.0,0.0,0.0,
0.4201,2.1849394297338325,2.1737048388050555,2.187813116014301,-0.007136580429406855,0.014579480371237274,0.00369227562810089,2.1821524615177297,0.0,0.0,0.0,0.0,0.0,0.0,0.0,0.0,0.0,0.0,3597.0070518822095,0.0,0.0,0.0,
0.4376,2.1850169875933405,2.17378069722671,2.18789094694018,-0.007137469022197088,0.014582256071850335,0.003692963646844937,2.182229543920077,0.0,0.0,0.0,0.0,0.0,0.0,0.0,0.0,0.0,0.0,3747.0799267948896,0.0,0.0,0.0,
0.4551,2.185097725188567,2.1738596656917206,2.1879719689983523,-0.007138394126432077,0.014585145942480253,0.0036936799285027747,2.182309786626213,0.0,0.0,0.0,0.0,0.0,0.0,0.0,0.0,0.0,0.0,3897.1814095786667,0.0,0.0,0.0,
0.4726,2.185181644306269,2.1739417459455304,2.18805618400622,-0.007139355772334213,0.014588150091850284,0.0036944244955967103,2.1823931914193397,0.0,0.0,0.0,0.0,0.0,0.0,0.0,0.0,0.0,0.0,4047.31265479596,0.0,0.0,0.0,
0.4901,2.1852687468043372,2.1740269398030883,2.1881435938535603,-0.0071403539913371126,0.014591268633033996,0.0036951973715475574,2.182479760153662,0.0,0.0,0.0,0.0,0.0,0.0,0.0,0.0,0.0,0.0,4197.4748182525245,0.0,0.0,0.0,
0.5076,2.185359034611944,2.1741152491489726,2.1882342005026736,-0.007141388816088216,0.01459450168346513,0.003695998580676872,2.18256949475453,0.0,0.0,0.0,0.0,0.0,0.0,0.0,0.0,0.0,0.0,4347.669057046524,0.0,0.0,0.0,
0.5251,2.1854525097296333,2.1742066759375156,2.1883280059885064,-0.007142460280452336,0.014597849364948345,0.00369682814820835,2.182662397218552,0.0,0.0,0.0,0.0,0.0,0.0,0.0,0.0,0.0,0.0,4497.896529617992,0.0,0.0,0.0,
0.5426,2.185549174229495,2.1743012221929545,2.1884250124187914,-0.007143568419514668,0.014601311803670053,0.003697686100270262,2.1827584696137468,0.0,0.0,0.0,0.0,0.0,0.0,0.0,0.0,0.0,0.0,4648.158395798282,0.0,0.0,0.0,
0.5601,2.185649030255319,2.174398890009553,2.1885252219742193,-0.007144713269584266,0.014604889130209813,0.0036985724638971666,2.182857714079697,0.0,0.0,0.0,0.0,0.0,0.0,0.0,0.0,0.0,0.0,4798.45581685978,0.0,0.0,0.0,
0.5776,2.1857520800226533,2.1744996815517506,2.188628636908563,-0.007145894868197573,0.014608581479552065,0.0036994872670321724,2.1829601328276556,0.0,0.0,0.0,0.0,0.0,0.0,0.0,0.0,0.0,0.0,4948.7899555657705,0.0,0.0,0.0,
0.5951,2.1858583258190842,2.17460359905431,2.1887352595488188,-0.007147113254122126,0.014612388991098657,0.0037004305385289937,2.183065728140738,0.0,0.0,0.0,0.0,0.0,0.0,0.0,0.0,0.0,0.0,5099.161976220528,0.0,0.0,0.0,
0.6126,2.1859677700042806,2.1747106448224853,2.188845092295442,-0.007148368467360208,0.01461631180868067,0.0037014023081544,2.183174502374069,0.0,0.0,0.0,0.0,0.0,0.0,0.0,0.0,0.0,0.0,5249.573044719503,0.0,0.0,0.0,
0.6301,2.1860804150102187,2.1748208212321583,2.188958137622432,-0.007149660549152768,0.014620350080572317,0.0037024026065903613,2.1832864579549365,0.0,0.0,0.0,0.0,0.0,0.0,0.0,0.0,0.0,0.0,5400.024328599785,0.0,0.0,0.0,
0.6476,2.186196263341329,2.174934130730027,2.189074398077545,-0.00715098954198358,0.014624503959503862,0.003703431465436477,2.183401597382967,0.0,0.0,0.0,0.0,0.0,0.0,0.0,0.0,0.0,0.0,5550.516997090803,0.0,0.0,0.0,
0.6651,2.1863153175746657,2.175050575833733,2.1891938762824728,-0.007152355489583253,0.0146287736026752,0.0037044889172125417,2.1835199232302904,0.0,0.0,0.0,0.0,0.0,0.0,0.0,0.0,0.0,0.0,5701.0522211651305,0.0,0.0,0.0,
0.6826,2.18643758036008,2.175170159132109,2.1893165749330086,-0.0071537584369333615,0.014633159171770776,0.003705574995361025,2.183641438141733,0.0,0.0,0.0,0.0,0.0,0.0,0.0,0.0,0.0,0.0,5851.631173589501,0.0,0.0,0.0,
0.7001,2.186563054420419,2.175292883285275,2.1894424967992716,-0.007155198430271271,0.014637660832973744,0.0037066897342496767,2.1837661448349883,0.0,0.0,0.0,0.0,0.0,0.0,0.0,0.0,0.0,0.0,6002.255028976281,0.0,0.0,0.0,
0.7176,2.1866917425516945,2.1754187510248766,2.1895716447258344,-0.00715667551709428,0.014642278756981245,0.003707833169174212,2.183894046100802,0.0,0.0,0.0,0.0,0.0,0.0,0.0,0.0,0.0,0.0,6152.924963834845,0.0,0.0,0.0,
0.7351,2.1868236476232785,2.1755477651542554,2.189704021632009,-0.007158189746164426,0.014647013119019675,0.0037090053363612353,2.184025144803181,0.0,0.0,0.0,0.0,0.0,0.0,0.0,0.0,0.0,0.0,6303.642156623398,0.0,0.0,0.0,
0.7526,2.1869587725781074,2.1756799285486625,2.1898396305119805,-0.007159741167513297,0.01465186409886129,0.003710206272970891,2.1841594438795835,0.0,0.0,0.0,0.0,0.0,0.0,0.0,0.0,0.0,0.0,6454.407787801,0.0,0.0,0.0,
0.7701,2.1870971204328833,2.175815244155415,2.189978474435061,-0.0071613298324468555,0.014656831880839728,0.0037114360170998778,2.18429694634112,0.0,0.0,0.0,0.0,0.0,0.0,0.0,0.0,0.0,0.0,6605.223039879791,0.0,0.0,0.0,
0.7876,2.18723869427827,2.1759537149941535,2.1901205565458706,-0.007162955793550591,0.01466191665386715,0.0037126946077844633,2.184437655272765,0.0,0.0,0.0,0.0,0.0,0.0,0.0,0.0,0.0,0.0,6756.089097477547,0.0,0.0,0.0,
0.8051,2.1873834972791197,2.1760953441570154,2.190265880064599,-0.007164619104694753,0.014667118611451863,0.003713982085003579,2.184581573833578,0.0,0.0,0.0,0.0,0.0,0.0,0.0,0.0,0.0,0.0,6907.0071473705,0.0,0.0,0.0,
0.8226,2.187531532674698,2.176240134808867,2.1904144482871946,-0.007166319821039531,0.014672437951715389,0.0037152984896818815,2.1847287052569198,0.0,0.0,0.0,0.0,0.0,0.0,0.0,0.0,0.0,0.0,7057.978378546323,0.0,0.0,0.0,
0.8401,2.1876828037788734,2.1763880901875265,2.1905662645856285,-0.007168057999040605,0.014677874877410851,0.0037166438636930905,2.184879052850676,0.0,0.0,0.0,0.0,0.0,0.0,0.0,0.0,0.0,0.0,7209.00398225752,0.0,0.0,0.0,
0.8576,2.187837313980386,2.1765392136039674,2.1907213324081214,-0.007169833696454644,0.014683429595941778,0.003718018249863225,2.1850326199974917,0.0,0.0,0.0,0.0,0.0,0.0,0.0,0.0,0.0,0.0,7360.085152074998,0.0,0.0,0.0,
0.8751,2.1879950667430625,2.1766935084425905,2.1908796552793603,-0.007171646972345278,0.014689102319380793,0.003719421691974184,2.1851894101550045,0.0,0.0,0.0,0.0,0.0,0.0,0.0,0.0,0.0,0.0,7511.223083942118,0.0,0.0,0.0,
0.8926,2.1881560656060683,2.1768509781614265,2.1910412368007997,-0.007173497887088769,0.014694893264489039,0.003720854234766878,2.185349426856098,0.0,0.0,0.0,0.0,0.0,0.0,0.0,0.0,0.0,0.0,7662.418976228802,0.0,0.0,0.0,
0.9101,2.1883203141841174,2.177011626292381,2.1912060806508755,-0.007175386502380008,0.014700802652736445,0.003722315923945115,2.1855126737091246,0.0,0.0,0.0,0.0,0.0,0.0,0.0,0.0,0.0,0.0,7813.674029786075,0.0,0.0,0.0,
0.9276,2.1884878161677843,2.177175456441514,2.1913741905852966,-0.007177312881238838,0.014706830710321661,0.0037238068061790585,2.185679154398198,0.0,0.0,0.0,0.0,0.0,0.0,0.0,0.0,0.0,0.0,7964.98944800099,0.0,0.0,0.0,
0.9451,2.188658575323718,2.1773424722892525,2.1915455704372824,-0.007179277088016243,0.014712977668193437,0.00372532692910895,2.1858488726834175,0.0,0.0,0.0,0.0,0.0,0.0,0.0,0.0,0.0,0.0,8116.366436851747,0.0,0.0,0.0,
0.9626,2.1888325954948913,2.1775126775906806,2.191720224117864,-0.00718127918840079,0.01471924376207148,0.0037268763413490394,2.186021832401145,0.0,0.0,0.0,0.0,0.0,0.0,0.0,0.0,0.0,0.0,8267.8062049632,0.0,0.0,0.0,
0.9801,2.189009880600926,2.177686076175786,2.1918981556161428,-0.007183319249425404,0.014725629232468243,0.0037284550924913157,2.186198037464285,0.0,0.0,0.0,0.0,0.0,0.0,0.0,0.0,0.0,0.0,8419.309963662821,0.0,0.0,0.0,
0.9976,2.1891904346383106,2.1778626719497307,2.192079368999582,-0.007185397339473743,0.014732134324711462,0.003730063233109539,2.1863774918625416,0.0,0.0,0.0,0.0,0.0,0.0,0.0,0.0,0.0,0.0,8570.878927036667,0.0,0.0,0.0,
1.0151,2.1893742616807037,2.1780424688931515,2.192263868414315,-0.007187513528287514,0.014738759288966778,0.0037317008147633264,2.1865601996627233,0.0,0.0,0.0,0.0,0.0,0.0,0.0,0.0,0.0,0.0,8722.514311986202,0.0,0.0,0.0,
1.0327,2.1895624444709747,2.178226526007108,2.192452740631918,-0.0071896803074128456,0.01474554326931806,0.0037333775009976717,2.1867472370366667,0.0,0.0,0.0,0.0,0.0,0.0,0.0,0.0,0.0,0.0,8875.084409433939,0.0,0.0,0.0,
1.0502,2.189752848817559,2.1784127558858053,2.192643843702262,-0.007191873127187788,0.014752409436243936,0.003735074292361847,2.1869364828018756,0.0,0.0,0.0,0.0,0.0,0.0,0.0,0.0,0.0,0.0,9026.856696813225,0.0,0.0,0.0,
1.0677,2.1899465388808834,2.1786021993557085,2.192838245742463,-0.007194104263597504,0.014759396256467742,0.0037368006857115142,2.1871289946596852,0.0,0.0,0.0,0.0,0.0,0.0,0.0,0.0,0.0,0.0,9178.699080947981,0.0,0.0,0.0,
1.0852,2.1901435190466345,2.178794860702594,2.1930359512167477,-0.007196373791894844,0.014766503999771632,0.003738556736597505,2.1873247769886586,0.0,0.0,0.0,0.0,0.0,0.0,0.0,0.0,0.0,0.0,9330.612790591267,0.0,0.0,0.0,
1.1027,2.1903437937791725,2.178990744289152,2.193236964669529,-0.007198681788727581,0.014773732940896615,0.0037403425015780072,2.187523834245951,0.0,0.0,0.0,0.0,0.0,0.0,0.0,0.0,0.0,0.0,9482.599057600375,0.0,0.0,0.0,
1.1202,2.1905473676218286,2.179189854555319,2.193441290725784,-0.007201028332145773,0.01478108335956864,0.003742158038223149,2.1877261709676437,0.0,0.0,0.0,0.0,0.0,0.0,0.0,0.0,0.0,0.0,9634.65911699539,0.0,0.0,0.0,
1.1377,2.19075424519721,2.179392196018589,2.193648934091335,-0.00720341350161008,0.014788555540524204,0.003744003405119698,2.1879317917690444,0.0,0.0,0.0,0.0,0.0,0.0,0.0,0.0,0.0,0.0,9786.794207018718,0.0,0.0,0.0,
1.1552,2.1909644312075702,2.1795977732743173,2.193859899553213,-0.0072058373779997605,0.014796149773537434,0.0037458786618757285,2.1881407013450334,0.0,0.0,0.0,0.0,0.0,0.0,0.0,0.0,0.0,0.0,9939.005569194696,0.0,0.0,0.0,
1.1727,2.1911779304350887,2.1798065909960824,2.194074191979995,-0.007208300043620894,0.014803866353446675,0.0037477838691255677,2.188352904470389,0.0,0.0,0.0,0.0,0.0,0.0,0.0,0.0,0.0,0.0,10091.294448389692,0.0,0.0,0.0,
1.1902,2.1913947477422675,2.1800186539360107,2.194291816322184,-0.007210801582215127,0.014811705580183394,0.0037497190885345632,2.188568406000154,0.0,0.0,0.0,0.0,0.0,0.0,0.0,0.0,0.0,0.0,10243.662092872873,0.0,0.0,0.0,
1.2077,2.191614888072216,2.1802339669251065,2.194512777612538,-0.007213342078968046,0.014819667758799164,0.003751684382804381,2.1887872108699535,0.0,0.0,0.0,0.0,0.0,0.0,0.0,0.0,0.0,0.0,10396.109754377087,0.0,0.0,0.0,
1.2252,2.1918383564490664,2.180452534873602,2.1947370809664495,-0.007215921620518219,0.01482775319949544,0.00375367981567783,2.189009324096373,0.0,0.0,0.0,0.0,0.0,0.0,0.0,0.0,0.0,0.0,10548.638688160514,0.0,0.0,0.0,
1.2427,2.192065157978278,2.180674362771321,2.1949647315823198,-0.007218540294966006,0.014835962217652184,0.0037557054519442106,2.1892347507773064,0.0,0.0,0.0,0.0,0.0,0.0,0.0,0.0,0.0,0.0,10701.250153068531,0.0,0.0,0.0,
1.2602,2.192295297847031,2.180899455688042,2.1951957347419397,-0.007221198191882831,0.01484429513385803,0.0037577613574446543,2.1894634960923374,0.0,0.0,0.0,0.0,0.0,0.0,0.0,0.0,0.0,0.0,10853.94541159627,0.0,0.0,0.0,
1.2777,2.1925287813246075,2.181127818773853,2.195430095810874,-0.007223895402320346,0.014852752273940926,0.003759847599077428,2.1896955653031114,0.0,0.0,0.0,0.0,0.0,0.0,0.0,0.0,0.0,0.0,11006.725729951435,0.0,0.0,0.0,
1.2952,2.192765613762723,2.1813594572595374,2.1956678202388566,-0.0072266320188203136,0.014861333968998438,0.0037619642448035086,2.1899309637537057,0.0,0.0,0.0,0.0,0.0,0.0,0.0,0.0,0.0,0.0,11159.592378118024,0.0,0.0,0.0,
1.3127,2.19300580059599,2.1815943764569488,2.1959089135602055,-0.00722940813542392,0.01487004055543007,0.0037641113636521298,2.190169696871048,0.0,0.0,0.0,0.0,0.0,0.0,0.0,0.0,0.0,0.0,11312.546629920034,0.0,0.0,0.0,
1.3302,2.1932493473422072,2.1818325817593904,2.19615338139419,-0.0072322238476819345,0.014878872374968544,0.0037662890257265332,2.1904117701652623,0.0,0.0,0.0,0.0,0.0,0.0,0.0,0.0,0.0,0.0,11465.589763086153,0.0,0.0,0.0,
1.3477,2.193496259602856,2.1820740786420254,2.196401229445488,-0.007235079252664443,0.014887829774713276,0.003768497302209634,2.1906571892301234,0.0,0.0,0.0,0.0,0.0,0.0,0.0,0.0,0.0,0.0,11618.72305931453,0.0,0.0,0.0,
1.3652,2.1937465430634466,2.18231887266226,2.1966524635046025,-0.007237974448971572,0.014896913107163012,0.003770736265370094,2.190905959743436,0.0,0.0,0.0,0.0,0.0,0.0,0.0,0.0,0.0,0.0,11771.947804338717,0.0,0.0,0.0,
1.3827,2.19400020349394,2.18256696946016,2.196907089448252,-0.007240909536743434,0.014906122730249554,0.003773005988568192,2.1911580874674508,0.0,0.0,0.0,0.0,0.0,0.0,0.0,0.0,0.0,0.0,11925.265287993385,0.0,0.0,0.0,
1.4002,2.1942572467491805,2.182818374758875,2.1971651132398704,-0.0072438846176711945,0.014915459007372798,0.0037753065462619137,2.1914135782493087,0.0,0.0,0.0,0.0,0.0,0.0,0.0,0.0,0.0,0.0,12078.67680428137,0.0,0.0,0.0,
1.4177,2.1945176787693073,2.1830730943650285,2.1974265409299836,-0.007246899795007544,0.014924922307435097,0.0037776380140132747,2.1916724380214396,0.0,0.0,0.0,0.0,0.0,0.0,0.0,0.0,0.0,0.0,12232.183651440646,0.0,0.0,0.0,
1.4352,2.1947815055802007,2.1833311341691806,2.1976913786567107,-0.007249955173578038,0.0149345130048771,0.0037800004684944467,2.191934672802031,0.0,0.0,0.0,0.0,0.0,0.0,0.0,0.0,0.0,0.0,12385.787132012414,0.0,0.0,0.0,
1.4527,2.195048733293901,2.1835925001462346,2.197959632646208,-0.007253050859792147,0.014944231479713946,0.00378239398749433,2.1922002886954477,0.0,0.0,0.0,0.0,0.0,0.0,0.0,0.0,0.0,0.0,12539.488552909419,0.0,0.0,0.0,
1.4702,2.195319368109086,2.183857198355911,2.1982313092131047,-0.0072561869616545585,0.014954078117572149,0.0037848186499249933,2.1924692918927007,0.0,0.0,0.0,0.0,0.0,0.0,0.0,0.0,0.0,0.0,12693.289225484898,0.0,0.0,0.0,
1.4877,2.195593416311489,2.1841252349431484,2.198506414761048,-0.007259363588777135,0.014964053309726857,0.0037872745358282795,2.192741688671895,0.0,0.0,0.0,0.0,0.0,0.0,0.0,0.0,0.0,0.0,12847.190465602516,0.0,0.0,0.0,
1.5052,2.1958708842743944,2.1843966161386152,2.1987849557830943,-0.0072625808523905586,0.01497415745313983,0.003789761726382639,2.1930174853987014,0.0,0.0,0.0,0.0,0.0,0.0,0.0,0.0,0.0,0.0,13001.193593706541,0.0,0.0,0.0,
1.5227,2.1961517784590887,2.184671348259134,2.1990669388622797,-0.007265838865356377,0.014984390950498307,0.003792280303909781,2.1932966885268343,0.0,0.0,0.0,0.0,0.0,0.0,0.0,0.0,0.0,0.0,13155.299934892755,0.0,0.0,0.0,
1.5402,2.1964361054153345,2.184949437708174,2.1993523706720595,-0.007269137742179337,0.014994754210254566,0.003794830351881926,2.1935793045985226,0.0,0.0,0.0,0.0,0.0,0.0,0.0,0.0,0.0,0.0,13309.510818980167,0.0,0.0,0.0,
1.5577,2.196723871781858,2.1852308909763196,2.1996412579768383,-0.007272477599019794,0.015005247646665353,0.0037974119549285907,2.193865340245005,0.0,0.0,0.0,0.0,0.0,0.0,0.0,0.0,0.0,0.0,13463.827580583205,0.0,0.0,0.0,
1.5752,2.197015084286856,2.1855157146417477,2.199933607632485,-0.007275858553706546,0.015015871679832772,0.0038000251988439125,2.1941548021870294,0.0,0.0,0.0,0.0,0.0,0.0,0.0,0.0,0.0,0.0,13618.25155918481,0.0,0.0,0.0,
