energies(eV),real_xx,real_yy,real_zz,real_xy,real_yz,real_xz,real_ave,imag_xx,imag_yy,imag_zz,imag_xy,imag_yz,imag_xz,imag_ave,absorption_xx,absorption_yy,absorption_zz,absorption_xy,absorption_yz,absorption_xz,absorption_ave,band_gap
0.0,3.4885364687604086,3.4885364687604086,3.2323529033579312,0.0,0.0,0.0,3.4031419469595825,0.0,0.0,0.0,0.0,0.0,0.0,0.0,0.0,0.0,0.0,0.0,0.0,0.0,0.0,2.9903
0.0137,3.4885460284733707,3.4885460284733707,3.2323610011590573,0.0,0.0,0.0,3.4031510193686,0.0,0.0,0.0,0.0,0.0,0.0,0.0,0.0,0.0,0.0,0.0,0.0,0.0,0.0,
0.0275,3.488574988037319,3.488574988037319,3.232385532100758,0.0,0.0,0.0,3.403178502725132,0.0,0.0,0.0,0.0,0.0,0.0,0.0,0.0,0.0,0.0,0.0,0.0,0.0,0.0,
0.0412,3.488622930128529,3.488622930128529,3.232426142669346,0.0,0.0,0.0,3.403224000975468,0.0,0.0,0.0,0.0,0.0,0.0,0.0,0.0,0.0,0.0,0.0,0.0,0.0,0.0,
0.055,3.4886905586396244,3.4886905586396244,3.2324834291000406,0.0,0.0,0.0,3.40328818212643,0.0,0.0,0.0,0.0,0.0,0.0,0.0,0.0,0.0,0.0,0.0,0.0,0.0,0.0,
0.0687,3.4887768990072083,3.4887768990072083,3.232556565843621,0.0,0.0,0.0,3.4033701212860126,0.0,0.0,0.0,0.0,0.0,0.0,0.0,0.0,0.0,0.0,0.0,0.0,0.0,0.0,
0.0825,3.4888832188961603,3.4888832188961603,3.232646626680031,0.0,0.0,0.0,3.403471021490784,0.0,0.0,0.0,0.0,0.0,0.0,0.0,0.0,0.0,0.0,0.0,0.0,0.0,0.0,
0.0962,3.48900798618448,3.48900798618448,3.232752313755465,0.0,0.0,0.0,3.403589428708141,0.0,0.0,0.0,0.0,0.0,0.0,0.0,0.0,0.0,0.0,0.0,0.0,0.0,0.0,
0.1099,3.489151911724947,3.489151911724947,3.2328742291766908,0.0,0.0,0.0,3.4037260175421955,0.0,0.0,0.0,0.0,0.0,0.0,0.0,0.0,0.0,0.0,0.0,0.0,0.0,0.0,
0.1237,3.489316268367095,3.489316268367095,3.2330134510939095,0.0,0.0,0.0,3.4038819959426996,0.0,0.0,0.0,0.0,0.0,0.0,0.0,0.0,0.0,0.0,0.0,0.0,0.0,0.0,
0.1374,3.489498687669081,3.489498687669081,3.233167973215367,0.0,0.0,0.0,3.40405511618451,0.0,0.0,0.0,0.0,0.0,0.0,0.0,0.0,0.0,0.0,0.0,0.0,0.0,0.0,
0.1512,3.489701847978746,3.489701847978746,3.2333400642346617,0.0,0.0,0.0,3.4042479200640514,0.0,0.0,0.0,0.0,0.0,0.0,0.0,0.0,0.0,0.0,0.0,0.0,0.0,0.0,
0.1649,3.4899228216992753,3.4899228216992753,3.2335272442088665,0.0,0.0,0.0,3.404457629202472,0.0,0.0,0.0,0.0,0.0,0.0,0.0,0.0,0.0,0.0,0.0,0.0,0.0,0.0,
0.1787,3.4901648532741034,3.4901648532741034,3.233732261335183,0.0,0.0,0.0,3.404687322627797,0.0,0.0,0.0,0.0,0.0,0.0,0.0,0.0,0.0,0.0,0.0,0.0,0.0,0.0,
0.1924,3.490424454990361,3.490424454990361,3.233952161209026,0.0,0.0,0.0,3.4049336903965823,0.0,0.0,0.0,0.0,0.0,0.0,0.0,0.0,0.0,0.0,0.0,0.0,0.0,0.0,
0.2062,3.4907054384818808,3.4907054384818808,3.2341901724542095,0.0,0.0,0.0,3.4052003498059906,0.0,0.0,0.0,0.0,0.0,0.0,0.0,0.0,0.0,0.0,0.0,0.0,0.0,0.0,
0.2199,3.49100375477337,3.49100375477337,3.234442865237428,0.0,0.0,0.0,3.4054834582613895,0.0,0.0,0.0,0.0,0.0,0.0,0.0,0.0,0.0,0.0,0.0,0.0,0.0,0.0,
0.2336,3.491321394338922,3.491321394338922,3.234711925526391,0.0,0.0,0.0,3.405784904734745,0.0,0.0,0.0,0.0,0.0,0.0,0.0,0.0,0.0,0.0,0.0,0.0,0.0,0.0,
0.2474,3.491660914522976,3.491660914522976,3.2349995194416077,0.0,0.0,0.0,3.40610711616252,0.0,0.0,0.0,0.0,0.0,0.0,0.0,0.0,0.0,0.0,0.0,0.0,0.0,0.0,
0.2611,3.4920174229234946,3.4920174229234946,3.2353015027174608,0.0,0.0,0.0,3.4064454495214833,0.0,0.0,0.0,0.0,0.0,0.0,0.0,0.0,0.0,0.0,0.0,0.0,0.0,0.0,
0.2749,3.4923961541747532,3.4923961541747532,3.2356223092763403,0.0,0.0,0.0,3.406804872541949,0.0,0.0,0.0,0.0,0.0,0.0,0.0,0.0,0.0,0.0,0.0,0.0,0.0,0.0,
0.2886,3.4927916509287367,3.4927916509287367,3.235957316317177,0.0,0.0,0.0,3.4071802060582166,0.0,0.0,0.0,0.0,0.0,0.0,0.0,0.0,0.0,0.0,0.0,0.0,0.0,0.0,
0.3024,3.49320972037308,3.49320972037308,3.2363114427102744,0.0,0.0,0.0,3.407576961152145,0.0,0.0,0.0,0.0,0.0,0.0,0.0,0.0,0.0,0.0,0.0,0.0,0.0,0.0,
0.3161,3.493644338407065,3.493644338407065,3.2366795855953763,0.0,0.0,0.0,3.407989420803169,0.0,0.0,0.0,0.0,0.0,0.0,0.0,0.0,0.0,0.0,0.0,0.0,0.0,0.0,
0.3298,3.494098499764668,3.494098499764668,3.2370642815275623,0.0,0.0,0.0,3.408420427018966,0.0,0.0,0.0,0.0,0.0,0.0,0.0,0.0,0.0,0.0,0.0,0.0,0.0,0.0,
0.3436,3.4945757725496494,3.4945757725496494,3.237468552694321,0.0,0.0,0.0,3.408873365931207,0.0,0.0,0.0,0.0,0.0,0.0,0.0,0.0,0.0,0.0,0.0,0.0,0.0,0.0,
0.3573,3.4950692797602834,3.4950692797602834,3.2378865738127462,0.0,0.0,0.0,3.409341711111104,0.0,0.0,0.0,0.0,0.0,0.0,0.0,0.0,0.0,0.0,0.0,0.0,0.0,0.0,
0.3711,3.495586268013558,3.495586268013558,3.2383244829012017,0.0,0.0,0.0,3.4098323396427723,0.0,0.0,0.0,0.0,0.0,0.0,0.0,0.0,0.0,0.0,0.0,0.0,0.0,0.0,
0.3848,3.496119288194112,3.496119288194112,3.2387759700966603,0.0,0.0,0.0,3.410338182161628,0.0,0.0,0.0,0.0,0.0,0.0,0.0,0.0,0.0,0.0,0.0,0.0,0.0,0.0,
0.3986,3.4966761672820077,3.4966761672820077,3.2392476649484214,0.0,0.0,0.0,3.410866666504146,0.0,0.0,0.0,0.0,0.0,0.0,0.0,0.0,0.0,0.0,0.0,0.0,0.0,0.0,
0.4123,3.497248881556757,3.497248881556757,3.2397327709123767,0.0,0.0,0.0,3.41141017800863,0.0,0.0,0.0,0.0,0.0,0.0,0.0,0.0,0.0,0.0,0.0,0.0,0.0,0.0,
0.4261,3.497845841058466,3.497845841058466,3.240238411341841,0.0,0.0,0.0,3.411976697819591,0.0,0.0,0.0,0.0,0.0,0.0,0.0,0.0,0.0,0.0,0.0,0.0,0.0,0.0,
0.4398,3.498458444768476,3.498458444768476,3.2407573007408614,0.0,0.0,0.0,3.4125580634259376,0.0,0.0,0.0,0.0,0.0,0.0,0.0,0.0,0.0,0.0,0.0,0.0,0.0,0.0,
0.4535,3.499090998047153,3.499090998047153,3.241293085656184,0.0,0.0,0.0,3.413158360583497,0.0,0.0,0.0,0.0,0.0,0.0,0.0,0.0,0.0,0.0,0.0,0.0,0.0,0.0,
0.4673,3.49974839162609,3.49974839162609,3.2418499083831747,0.0,0.0,0.0,3.4137822305451184,0.0,0.0,0.0,0.0,0.0,0.0,0.0,0.0,0.0,0.0,0.0,0.0,0.0,0.0,
0.481,3.5004211541019017,3.5004211541019017,3.2424197462606776,0.0,0.0,0.0,3.4144206848214935,0.0,0.0,0.0,0.0,0.0,0.0,0.0,0.0,0.0,0.0,0.0,0.0,0.0,0.0,
0.4948,3.501119165286745,3.501119165286745,3.243010967363163,0.0,0.0,0.0,3.4150830993122177,0.0,0.0,0.0,0.0,0.0,0.0,0.0,0.0,0.0,0.0,0.0,0.0,0.0,0.0,
0.5085,3.501832368849813,3.501832368849813,3.243615053645364,0.0,0.0,0.0,3.41575993044833,0.0,0.0,0.0,0.0,0.0,0.0,0.0,0.0,0.0,0.0,0.0,0.0,0.0,0.0,
0.5223,3.5025712387892924,3.5025712387892924,3.244240876361427,0.0,0.0,0.0,3.416461117980004,0.0,0.0,0.0,0.0,0.0,0.0,0.0,0.0,0.0,0.0,0.0,0.0,0.0,0.0,
0.536,3.5033251304231072,3.5033251304231072,3.244879419195527,0.0,0.0,0.0,3.417176560013914,0.0,0.0,0.0,0.0,0.0,0.0,0.0,0.0,0.0,0.0,0.0,0.0,0.0,0.0,
0.5497,3.504099389053984,3.504099389053984,3.245535209348604,0.0,0.0,0.0,3.4179113291521905,0.0,0.0,0.0,0.0,0.0,0.0,0.0,0.0,0.0,0.0,0.0,0.0,0.0,0.0,
0.5635,3.5048999576910993,3.5048999576910993,3.246213280164765,0.0,0.0,0.0,3.418671065182321,0.0,0.0,0.0,0.0,0.0,0.0,0.0,0.0,0.0,0.0,0.0,0.0,0.0,0.0,
0.5772,3.505715303312316,3.505715303312316,3.2469038630264504,0.0,0.0,0.0,3.4194448232170274,0.0,0.0,0.0,0.0,0.0,0.0,0.0,0.0,0.0,0.0,0.0,0.0,0.0,0.0,
0.591,3.5065574008826577,3.5065574008826577,3.247617100192592,0.0,0.0,0.0,3.4202439673193026,0.0,0.0,0.0,0.0,0.0,0.0,0.0,0.0,0.0,0.0,0.0,0.0,0.0,0.0,
0.6047,3.5074141195161794,3.5074141195161794,3.248342716756934,0.0,0.0,0.0,3.4210569852630974,0.0,0.0,0.0,0.0,0.0,0.0,0.0,0.0,0.0,0.0,0.0,0.0,0.0,0.0,
0.6185,3.5082980422518237,3.5082980422518237,3.2490913698576698,0.0,0.0,0.0,3.4218958181204386,0.0,0.0,0.0,0.0,0.0,0.0,0.0,0.0,0.0,0.0,0.0,0.0,0.0,0.0,
0.6322,3.509196436136317,3.509196436136317,3.2498522747572682,0.0,0.0,0.0,3.4227483823433005,0.0,0.0,0.0,0.0,0.0,0.0,0.0,0.0,0.0,0.0,0.0,0.0,0.0,0.0,
0.646,3.5101224967884765,3.5101224967884765,3.2506366072682944,0.0,0.0,0.0,3.4236272002817487,0.0,0.0,0.0,0.0,0.0,0.0,0.0,0.0,0.0,0.0,0.0,0.0,0.0,0.0,
0.6597,3.5110628847507726,3.5110628847507726,3.251433069082876,0.0,0.0,0.0,3.4245196128614737,0.0,0.0,0.0,0.0,0.0,0.0,0.0,0.0,0.0,0.0,0.0,0.0,0.0,0.0,
0.6734,3.5120243176417603,3.5120243176417603,3.2522473493584205,0.0,0.0,0.0,3.425431994880647,0.0,0.0,0.0,0.0,0.0,0.0,0.0,0.0,0.0,0.0,0.0,0.0,0.0,0.0,
0.6872,3.5130141308265688,3.5130141308265688,3.2530856602763953,0.0,0.0,0.0,3.4263713073098443,0.0,0.0,0.0,0.0,0.0,0.0,0.0,0.0,0.0,0.0,0.0,0.0,0.0,0.0,
0.7009,3.51401806736839,3.51401806736839,3.253935926670569,0.0,0.0,0.0,3.427324020469116,0.0,0.0,0.0,0.0,0.0,0.0,0.0,0.0,0.0,0.0,0.0,0.0,0.0,0.0,
0.7147,3.5150508745517945,3.5150508745517945,3.254810638058219,0.0,0.0,0.0,3.4283041290539362,0.0,0.0,0.0,0.0,0.0,0.0,0.0,0.0,0.0,0.0,0.0,0.0,0.0,0.0,
0.7284,3.5160976767954777,3.5160976767954777,3.2556971954739327,0.0,0.0,0.0,3.429297516354963,0.0,0.0,0.0,0.0,0.0,0.0,0.0,0.0,0.0,0.0,0.0,0.0,0.0,0.0,
0.7422,3.5171738517200413,3.5171738517200413,3.2566086220601966,0.0,0.0,0.0,3.4303187751667594,0.0,0.0,0.0,0.0,0.0,0.0,0.0,0.0,0.0,0.0,0.0,0.0,0.0,0.0,
0.7559,3.5182638998017377,3.5182638998017377,3.257531790589484,0.0,0.0,0.0,3.4313531967309863,0.0,0.0,0.0,0.0,0.0,0.0,0.0,0.0,0.0,0.0,0.0,0.0,0.0,0.0,
0.7696,3.519375639786471,3.519375639786471,3.2584733223926783,0.0,0.0,0.0,3.432408200655207,0.0,0.0,0.0,0.0,0.0,0.0,0.0,0.0,0.0,0.0,0.0,0.0,0.0,0.0,
0.7834,3.5205175273004,3.5205175273004,3.259440377934264,0.0,0.0,0.0,3.4334918108450214,0.0,0.0,0.0,0.0,0.0,0.0,0.0,0.0,0.0,0.0,0.0,0.0,0.0,0.0,
0.7971,3.521673117556262,3.521673117556262,3.260419029723346,0.0,0.0,0.0,3.434588421611957,0.0,0.0,0.0,0.0,0.0,0.0,0.0,0.0,0.0,0.0,0.0,0.0,0.0,0.0,
0.8109,3.522859388266605,3.522859388266605,3.2614236553724614,0.0,0.0,0.0,3.435714143968557,0.0,0.0,0.0,0.0,0.0,0.0,0.0,0.0,0.0,0.0,0.0,0.0,0.0,0.0,
0.8246,3.5240592563139996,3.5240592563139996,3.262439787011047,0.0,0.0,0.0,3.4368527665463486,0.0,0.0,0.0,0.0,0.0,0.0,0.0,0.0,0.0,0.0,0.0,0.0,0.0,0.0,
0.8384,3.5252903508268685,3.5252903508268685,3.263482353617421,0.0,0.0,0.0,3.438021018423719,0.0,0.0,0.0,0.0,0.0,0.0,0.0,0.0,0.0,0.0,0.0,0.0,0.0,0.0,
0.8521,3.5265349441176443,3.5265349441176443,3.2645363416872875,0.0,0.0,0.0,3.439202076640859,0.0,0.0,0.0,0.0,0.0,0.0,0.0,0.0,0.0,0.0,0.0,0.0,0.0,0.0,
0.8658,3.527801992049455,3.527801992049455,3.2656093350066535,0.0,0.0,0.0,3.4404044397018545,0.0,0.0,0.0,0.0,0.0,0.0,0.0,0.0,0.0,0.0,0.0,0.0,0.0,0.0,
0.8796,3.5291011099329745,3.5291011099329745,3.2667094754857517,0.0,0.0,0.0,3.4416372317839006,0.0,0.0,0.0,0.0,0.0,0.0,0.0,0.0,0.0,0.0,0.0,0.0,0.0,0.0,
0.8933,3.5304135920927813,3.5304135920927813,3.2678209218027776,0.0,0.0,0.0,3.4428827019961132,0.0,0.0,0.0,0.0,0.0,0.0,0.0,0.0,0.0,0.0,0.0,0.0,0.0,0.0,
0.9071,3.5317587248937348,3.5317587248937348,3.2689600054840744,0.0,0.0,0.0,3.4441591517571815,0.0,0.0,0.0,0.0,0.0,0.0,0.0,0.0,0.0,0.0,0.0,0.0,0.0,0.0,
0.9208,3.5331171412310383,3.5331171412310383,3.2701103253820363,0.0,0.0,0.0,3.4454482026147044,0.0,0.0,0.0,0.0,0.0,0.0,0.0,0.0,0.0,0.0,0.0,0.0,0.0,0.0,
0.9346,3.5345088036370016,3.5345088036370016,3.2712887852068633,0.0,0.0,0.0,3.446768797493622,0.0,0.0,0.0,0.0,0.0,0.0,0.0,0.0,0.0,0.0,0.0,0.0,0.0,0.0,
0.9483,3.53591367629673,3.53591367629673,3.2724784178579003,0.0,0.0,0.0,3.4481019234837866,0.0,0.0,0.0,0.0,0.0,0.0,0.0,0.0,0.0,0.0,0.0,0.0,0.0,0.0,
0.9621,3.537352405717949,3.537352405717949,3.273696705793471,0.0,0.0,0.0,3.44946717240979,0.0,0.0,0.0,0.0,0.0,0.0,0.0,0.0,0.0,0.0,0.0,0.0,0.0,0.0,
0.9758,3.538804279776117,3.538804279776117,3.274926109565583,0.0,0.0,0.0,3.4508448897059387,0.0,0.0,0.0,0.0,0.0,0.0,0.0,0.0,0.0,0.0,0.0,0.0,0.0,0.0,
0.9895,3.5402797798264642,3.5402797798264642,3.276175503781338,0.0,0.0,0.0,3.4522450211447553,0.0,0.0,0.0,0.0,0.0,0.0,0.0,0.0,0.0,0.0,0.0,0.0,0.0,0.0,
1.0033,3.5417900813514493,3.5417900813514493,3.277454350333578,0.0,0.0,0.0,3.4536781710121587,0.0,0.0,0.0,0.0,0.0,0.0,0.0,0.0,0.0,0.0,0.0,0.0,0.0,0.0,
1.017,3.543313444049122,3.543313444049122,3.278744239723643,0.0,0.0,0.0,3.455123709273962,0.0,0.0,0.0,0.0,0.0,0.0,0.0,0.0,0.0,0.0,0.0,0.0,0.0,0.0,
1.0308,3.5448722595347713,3.5448722595347713,3.28006413082984,0.0,0.0,0.0,3.4566028832997944,0.0,0.0,0.0,0.0,0.0,0.0,0.0,0.0,0.0,0.0,0.0,0.0,0.0,0.0,
1.0445,3.5464440907494343,3.5464440907494343,3.2813950246071237,0.0,0.0,0.0,3.458094402035331,0.0,0.0,0.0,0.0,0.0,0.0,0.0,0.0,0.0,0.0,0.0,0.0,0.0,0.0,
1.0583,3.548052043398858,3.548052043398858,3.2827564839865766,0.0,0.0,0.0,3.4596201902614307,0.0,0.0,0.0,0.0,0.0,0.0,0.0,0.0,0.0,0.0,0.0,0.0,0.0,0.0,
1.072,3.5496729748664797,3.5496729748664797,3.2841289129768816,0.0,0.0,0.0,3.461158287569947,0.0,0.0,0.0,0.0,0.0,0.0,0.0,0.0,0.0,0.0,0.0,0.0,0.0,0.0,
1.0857,3.5513186112368245,3.5513186112368245,3.28552223907889,0.0,0.0,0.0,3.462719820517513,0.0,0.0,0.0,0.0,0.0,0.0,0.0,0.0,0.0,0.0,0.0,0.0,0.0,0.0,
1.0995,3.553001404688474,3.553001404688474,3.2869470039352073,0.0,0.0,0.0,3.464316604437385,0.0,0.0,0.0,0.0,0.0,0.0,0.0,0.0,0.0,0.0,0.0,0.0,0.0,0.0,
1.1132,3.55469713827006,3.55469713827006,3.288382702693355,0.0,0.0,0.0,3.465925659744492,0.0,0.0,0.0,0.0,0.0,0.0,0.0,0.0,0.0,0.0,0.0,0.0,0.0,0.0,
1.127,3.5564307438539853,3.5564307438539853,3.289850442785188,0.0,0.0,0.0,3.4675706434977194,0.0,0.0,0.0,0.0,0.0,0.0,0.0,0.0,0.0,0.0,0.0,0.0,0.0,0.0,
1.1407,3.558177275297034,3.558177275297034,3.2913291025471434,0.0,0.0,0.0,3.469227884380404,0.0,0.0,0.0,0.0,0.0,0.0,0.0,0.0,0.0,0.0,0.0,0.0,0.0,0.0,
1.1545,3.559962413473688,3.559962413473688,3.2928404227718535,0.0,0.0,0.0,3.4709217499064096,0.0,0.0,0.0,0.0,0.0,0.0,0.0,0.0,0.0,0.0,0.0,0.0,0.0,0.0,
1.1682,3.561760472891361,3.561760472891361,3.29436265645071,0.0,0.0,0.0,3.4726278674111444,0.0,0.0,0.0,0.0,0.0,0.0,0.0,0.0,0.0,0.0,0.0,0.0,0.0,0.0,
1.182,3.5635978943805235,3.5635978943805235,3.295918186926638,0.0,0.0,0.0,3.474371325229228,0.0,0.0,0.0,0.0,0.0,0.0,0.0,0.0,0.0,0.0,0.0,0.0,0.0,0.0,
1.1957,3.565448242520599,3.565448242520599,3.2974846329605665,0.0,0.0,0.0,3.4761270393339214,0.0,0.0,0.0,0.0,0.0,0.0,0.0,0.0,0.0,0.0,0.0,0.0,0.0,0.0,
1.2094,3.567324933705805,3.567324933705805,3.2990733512475487,0.0,0.0,0.0,3.477907739553053,0.0,0.0,0.0,0.0,0.0,0.0,0.0,0.0,0.0,0.0,0.0,0.0,0.0,0.0,
1.2232,3.56924215900538,3.56924215900538,3.3006963533920914,0.0,0.0,0.0,3.4797268904676173,0.0,0.0,0.0,0.0,0.0,0.0,0.0,0.0,0.0,0.0,0.0,0.0,0.0,0.0,
1.2369,3.57117233871388,3.57117233871388,3.302330290534025,0.0,0.0,0.0,3.481558322653928,0.0,0.0,0.0,0.0,0.0,0.0,0.0,0.0,0.0,0.0,0.0,0.0,0.0,0.0,
1.2507,3.57314386313005,3.57314386313005,3.3039991939536497,0.0,0.0,0.0,3.483428973404583,0.0,0.0,0.0,0.0,0.0,0.0,0.0,0.0,0.0,0.0,0.0,0.0,0.0,0.0,
1.2644,3.575128374242299,3.575128374242299,3.305679056736042,0.0,0.0,0.0,3.485311935073547,0.0,0.0,0.0,0.0,0.0,0.0,0.0,0.0,0.0,0.0,0.0,0.0,0.0,0.0,
1.2782,3.5771550644151637,3.5771550644151637,3.3073945880107622,0.0,0.0,0.0,3.487234905613697,0.0,0.0,0.0,0.0,0.0,0.0,0.0,0.0,0.0,0.0,0.0,0.0,0.0,0.0,
1.2919,3.5791947851429464,3.5791947851429464,3.309121112581349,0.0,0.0,0.0,3.4891702276224144,0.0,0.0,0.0,0.0,0.0,0.0,0.0,0.0,0.0,0.0,0.0,0.0,0.0,0.0,
1.3056,3.5812623494259763,3.5812623494259763,3.310871167387367,0.0,0.0,0.0,3.4911319554131066,0.0,0.0,0.0,0.0,0.0,0.0,0.0,0.0,0.0,0.0,0.0,0.0,0.0,0.0,
1.3194,3.5833733894866557,3.5833733894866557,3.31265798160962,0.0,0.0,0.0,3.49313492019431,0.0,0.0,0.0,0.0,0.0,0.0,0.0,0.0,0.0,0.0,0.0,0.0,0.0,0.0,
1.3331,3.585497548602879,3.585497548602879,3.314455858787411,0.0,0.0,0.0,3.4951503186643897,0.0,0.0,0.0,0.0,0.0,0.0,0.0,0.0,0.0,0.0,0.0,0.0,0.0,0.0,
1.3469,3.5876660817930714,3.5876660817930714,3.3162912508017306,0.0,0.0,0.0,3.497207804795958,0.0,0.0,0.0,0.0,0.0,0.0,0.0,0.0,0.0,0.0,0.0,0.0,0.0,0.0,
1.3606,3.58984780914677,3.58984780914677,3.3181377654930633,0.0,0.0,0.0,3.499277794595534,0.0,0.0,0.0,0.0,0.0,0.0,0.0,0.0,0.0,0.0,0.0,0.0,0.0,0.0,
1.3744,3.5920748364676593,3.5920748364676593,3.3200225733738313,0.0,0.0,0.0,3.5013907487697167,0.0,0.0,0.0,0.0,0.0,0.0,0.0,0.0,0.0,0.0,0.0,0.0,0.0,0.0,
1.3881,3.594315146611948,3.594315146611948,3.3219185748147977,0.0,0.0,0.0,3.5035162893462313,0.0,0.0,0.0,0.0,0.0,0.0,0.0,0.0,0.0,0.0,0.0,0.0,0.0,0.0,
1.4019,3.596601711461296,3.596601711461296,3.3238536717481213,0.0,0.0,0.0,3.505685698223571,0.0,0.0,0.0,0.0,0.0,0.0,0.0,0.0,0.0,0.0,0.0,0.0,0.0,0.0,
1.4156,3.5989016620094585,3.5989016620094585,3.3258000448191223,0.0,0.0,0.0,3.5078677896126798,0.0,0.0,0.0,0.0,0.0,0.0,0.0,0.0,0.0,0.0,0.0,0.0,0.0,0.0,
1.4293,3.6012317329377765,3.6012317329377765,3.327771853865397,0.0,0.0,0.0,3.51007843991365,0.0,0.0,0.0,0.0,0.0,0.0,0.0,0.0,0.0,0.0,0.0,0.0,0.0,0.0,
1.4431,3.6036095458323723,3.6036095458323723,3.329784007589006,0.0,0.0,0.0,3.512334366417917,0.0,0.0,0.0,0.0,0.0,0.0,0.0,0.0,0.0,0.0,0.0,0.0,0.0,0.0,
1.4568,3.606000926725759,3.606000926725759,3.3318075843095327,0.0,0.0,0.0,3.5146031459203506,0.0,0.0,0.0,0.0,0.0,0.0,0.0,0.0,0.0,0.0,0.0,0.0,0.0,0.0,
1.4706,3.6084410823488606,3.6084410823488606,3.3338723726958914,0.0,0.0,0.0,3.516918179131204,0.0,0.0,0.0,0.0,0.0,0.0,0.0,0.0,0.0,0.0,0.0,0.0,0.0,0.0,
1.4843,3.610894947595705,3.610894947595705,3.3359486984623055,0.0,0.0,0.0,3.5192461978845717,0.0,0.0,0.0,0.0,0.0,0.0,0.0,0.0,0.0,0.0,0.0,0.0,0.0,0.0,
1.4981,3.613398654184785,3.613398654184785,3.338067130899725,0.0,0.0,0.0,3.5216214797564316,0.0,0.0,0.0,0.0,0.0,0.0,0.0,0.0,0.0,0.0,0.0,0.0,0.0,0.0,
1.5118,3.6159162289798084,3.6159162289798084,3.3401972289866926,0.0,0.0,0.0,3.5240098956487693,0.0,0.0,0.0,0.0,0.0,0.0,0.0,0.0,0.0,0.0,0.0,0.0,0.0,0.0,
1.5255,3.61846601641616,3.61846601641616,3.3423545109140345,0.0,0.0,0.0,3.5264288479154513,0.0,0.0,0.0,0.0,0.0,0.0,0.0,0.0,0.0,0.0,0.0,0.0,0.0,0.0,
1.5393,3.621067310126211,3.621067310126211,3.3445552957429863,0.0,0.0,0.0,3.528896638665136,0.0,0.0,0.0,0.0,0.0,0.0,0.0,0.0,0.0,0.0,0.0,0.0,0.0,0.0,
1.553,3.623682743393759,3.623682743393759,3.3467679659982856,0.0,0.0,0.0,3.5313778175952684,0.0,0.0,0.0,0.0,0.0,0.0,0.0,0.0,0.0,0.0,0.0,0.0,0.0,0.0,
1.5668,3.6263508415115147,3.6263508415115147,3.349025110139721,0.0,0.0,0.0,3.5339089310542504,0.0,0.0,0.0,0.0,0.0,0.0,0.0,0.0,0.0,0.0,0.0,0.0,0.0,0.0,
1.5805,3.6290332843228383,3.6290332843228383,3.3512943060030915,0.0,0.0,0.0,3.5364536248829226,0.0,0.0,0.0,0.0,0.0,0.0,0.0,0.0,0.0,0.0,0.0,0.0,0.0,0.0,
1.5943,3.631769590634615,3.631769590634615,3.353608979782234,0.0,0.0,0.0,3.5390493870171547,0.0,0.0,0.0,0.0,0.0,0.0,0.0,0.0,0.0,0.0,0.0,0.0,0.0,0.0,
1.608,3.634520467290448,3.634520467290448,3.3559358882913024,0.0,0.0,0.0,3.5416589409573995,0.0,0.0,0.0,0.0,0.0,0.0,0.0,0.0,0.0,0.0,0.0,0.0,0.0,0.0,
1.6217,3.63730598767634,3.63730598767634,3.358292007339662,0.0,0.0,0.0,3.5443013275641135,0.0,0.0,0.0,0.0,0.0,0.0,0.0,0.0,0.0,0.0,0.0,0.0,0.0,0.0,
1.6355,3.6401472468728198,3.6401472468728198,3.360695173998807,0.0,0.0,0.0,3.546996555914815,0.0,0.0,0.0,0.0,0.0,0.0,0.0,0.0,0.0,0.0,0.0,0.0,0.0,0.0,
1.6492,3.6430034555218795,3.6430034555218795,3.3631108829400875,0.0,0.0,0.0,3.549705931327949,0.0,0.0,0.0,0.0,0.0,0.0,0.0,0.0,0.0,0.0,0.0,0.0,0.0,0.0,
1.663,3.645916711033221,3.645916711033221,3.3655747335401953,0.0,0.0,0.0,3.5524693852022122,0.0,0.0,0.0,0.0,0.0,0.0,0.0,0.0,0.0,0.0,0.0,0.0,0.0,0.0,
1.6767,3.6488451983717756,3.6488451983717756,3.3680513555065614,0.0,0.0,0.0,3.5552472507500377,0.0,0.0,0.0,0.0,0.0,0.0,0.0,0.0,0.0,0.0,0.0,0.0,0.0,0.0,
1.6905,3.651832088531286,3.651832088531286,3.370577252509373,0.0,0.0,0.0,3.5580804765239815,0.0,0.0,0.0,0.0,0.0,0.0,0.0,0.0,0.0,0.0,0.0,0.0,0.0,0.0,
1.7042,3.6548345180644906,3.6548345180644906,3.3731161703474073,0.0,0.0,0.0,3.560928402158796,0.0,0.0,0.0,0.0,0.0,0.0,0.0,0.0,0.0,0.0,0.0,0.0,0.0,0.0,
1.718,3.657896756890796,3.657896756890796,3.375705538010036,0.0,0.0,0.0,3.563833017263876,0.0,0.0,0.0,0.0,0.0,0.0,0.0,0.0,0.0,0.0,0.0,0.0,0.0,0.0,
1.7317,3.660974869396148,3.660974869396148,3.3783081976063682,0.0,0.0,0.0,3.5667526454662215,0.0,0.0,0.0,0.0,0.0,0.0,0.0,0.0,0.0,0.0,0.0,0.0,0.0,0.0,
1.7454,3.664091360643233,3.664091360643233,3.3809431723232337,0.0,0.0,0.0,3.5697086312032336,0.0,0.0,0.0,0.0,0.0,0.0,0.0,0.0,0.0,0.0,0.0,0.0,0.0,0.0,
1.7592,3.6672698690229617,3.6672698690229617,3.3836304393091243,0.0,0.0,0.0,3.572723392451683,0.0,0.0,0.0,0.0,0.0,0.0,0.0,0.0,0.0,0.0,0.0,0.0,0.0,0.0,
1.7729,3.6704648058038414,3.6704648058038414,3.386331447828647,0.0,0.0,0.0,3.5757536864787767,0.0,0.0,0.0,0.0,0.0,0.0,0.0,0.0,0.0,0.0,0.0,0.0,0.0,0.0,
1.7867,3.6737233050624525,3.6737233050624525,3.3890860369424103,0.0,0.0,0.0,3.5788442156891054,0.0,0.0,0.0,0.0,0.0,0.0,0.0,0.0,0.0,0.0,0.0,0.0,0.0,0.0,
1.8004,3.6769986417246927,3.6769986417246927,3.391854698852673,0.0,0.0,0.0,3.581950660767353,0.0,0.0,0.0,0.0,0.0,0.0,0.0,0.0,0.0,0.0,0.0,0.0,0.0,0.0,
