energies(eV),real_xx,real_yy,real_zz,real_xy,real_yz,real_xz,real_ave,imag_xx,imag_yy,imag_zz,imag_xy,imag_yz,imag_xz,imag_ave,absorption_xx,absorption_yy,absorption_zz,absorption_xy,absorption_yz,absorption_xz,absorption_ave,band_gap
0.0,4.222342958030079,3.5718777560552963,3.8168063989896357,0.0,0.0,0.1458492668934264,3.8703423710250036,0.0,0.0,0.0,0.0,0.0,0.0,0.0,0.0,0.0,0.0,0.0,0.0,0.0,0.0,4.1701999999999995
0.0157,4.222357524192759,3.571889767258655,3.8168187974928367,0.0,0.0,0.14585082388304474,3.8703553629814174,0.0,0.0,0.0,0.0,0.0,0.0,0.0,0.0,0.0,0.0,0.0,0.0,0.0,0.0,
0.0313,4.222400853202775,3.5719254963236535,3.8168556785544503,0.0,0.0,0.14585545542999062,3.870394009360293,0.0,0.0,0.0,0.0,0.0,0.0,0.0,0.0,0.0,0.0,0.0,0.0,0.0,0.0,
0.047,4.222473503714053,3.571985404294257,3.816917517833064,0.0,0.0,0.14586322146759614,3.8704588086137908,0.0,0.0,0.0,0.0,0.0,0.0,0.0,0.0,0.0,0.0,0.0,0.0,0.0,0.0,
0.0627,4.2225752960431695,3.5720693436380087,3.817004162619302,0.0,0.0,0.14587410315349592,3.8705496007668265,0.0,0.0,0.0,0.0,0.0,0.0,0.0,0.0,0.0,0.0,0.0,0.0,0.0,0.0,
0.0784,4.222706237593267,3.5721773213480206,3.8171156195433094,0.0,0.0,0.14588810178952602,3.8706663928281997,0.0,0.0,0.0,0.0,0.0,0.0,0.0,0.0,0.0,0.0,0.0,0.0,0.0,0.0,
0.094,4.22286522584781,3.5723084293797442,3.8172509505614,0.0,0.0,0.14590510015091093,3.8708082019296515,0.0,0.0,0.0,0.0,0.0,0.0,0.0,0.0,0.0,0.0,0.0,0.0,0.0,0.0,
0.1097,4.223054310697865,3.5724643595452696,3.8174119010583003,0.0,0.0,0.14592531820227028,3.8709768571004783,0.0,0.0,0.0,0.0,0.0,0.0,0.0,0.0,0.0,0.0,0.0,0.0,0.0,0.0,
0.1254,4.223272579622478,3.5726443610041385,3.8175976949097614,0.0,0.0,0.14594865933463044,3.8711715451787927,0.0,0.0,0.0,0.0,0.0,0.0,0.0,0.0,0.0,0.0,0.0,0.0,0.0,0.0,
0.1411,4.223520048511958,3.572848448770297,3.817808346349192,0.0,0.0,0.14597512634416046,3.871392281210482,0.0,0.0,0.0,0.0,0.0,0.0,0.0,0.0,0.0,0.0,0.0,0.0,0.0,0.0,
0.1567,4.22379488055291,3.5730751101153,3.8180422926124624,0.0,0.0,0.14600452398419458,3.871637427760225,0.0,0.0,0.0,0.0,0.0,0.0,0.0,0.0,0.0,0.0,0.0,0.0,0.0,0.0,
0.1724,4.224100619278586,3.573327269897237,3.818302550967882,0.0,0.0,0.1460372326767009,3.871910146714568,0.0,0.0,0.0,0.0,0.0,0.0,0.0,0.0,0.0,0.0,0.0,0.0,0.0,0.0,
0.1881,4.2244356183022385,3.573603573003077,3.8185877209593495,0.0,0.0,0.14607307786871354,3.8722089707548886,0.0,0.0,0.0,0.0,0.0,0.0,0.0,0.0,0.0,0.0,0.0,0.0,0.0,0.0,
0.2037,4.2247974890526345,3.5739020521830738,3.8188957703451276,0.0,0.0,0.14611180559733022,3.8725317705269453,0.0,0.0,0.0,0.0,0.0,0.0,0.0,0.0,0.0,0.0,0.0,0.0,0.0,0.0,
0.2194,4.225190897332826,3.5742265590833133,3.819230672161917,0.0,0.0,0.146153917030445,3.872882709526019,0.0,0.0,0.0,0.0,0.0,0.0,0.0,0.0,0.0,0.0,0.0,0.0,0.0,0.0,
0.2351,4.225613645473402,3.574575284522955,3.819590556904101,0.0,0.0,0.14619917898478307,3.873259828966819,0.0,0.0,0.0,0.0,0.0,0.0,0.0,0.0,0.0,0.0,0.0,0.0,0.0,0.0,
0.2508,4.226065764361499,3.574948257709753,3.819975452251767,0.0,0.0,0.14624759690799427,3.873663158107673,0.0,0.0,0.0,0.0,0.0,0.0,0.0,0.0,0.0,0.0,0.0,0.0,0.0,0.0,
0.2664,4.226544126910565,3.5753429027406387,3.8203826974736295,0.0,0.0,0.14629883808145389,3.8740899090416114,0.0,0.0,0.0,0.0,0.0,0.0,0.0,0.0,0.0,0.0,0.0,0.0,0.0,0.0,
0.2821,4.2270549010123535,3.5757643123117915,3.8208175450690027,0.0,0.0,0.14635356562887472,3.8745455861310494,0.0,0.0,0.0,0.0,0.0,0.0,0.0,0.0,0.0,0.0,0.0,0.0,0.0,0.0,
0.2978,4.2275951513206955,3.5762100693895476,3.8212774977985817,0.0,0.0,0.14641146776311773,3.875027572836275,0.0,0.0,0.0,0.0,0.0,0.0,0.0,0.0,0.0,0.0,0.0,0.0,0.0,0.0,
0.3134,4.228161194858332,3.5766771396594197,3.82175942175991,0.0,0.0,0.14647215232975144,3.875532585425887,0.0,0.0,0.0,0.0,0.0,0.0,0.0,0.0,0.0,0.0,0.0,0.0,0.0,0.0,
0.3291,4.228760330159,3.577171550543086,3.822269532735305,0.0,0.0,0.1465364046857127,3.876067137812464,0.0,0.0,0.0,0.0,0.0,0.0,0.0,0.0,0.0,0.0,0.0,0.0,0.0,0.0,
0.3448,4.229389066769358,3.5776904273439887,3.822804861020873,0.0,0.0,0.1466038537502255,3.8766281183780733,0.0,0.0,0.0,0.0,0.0,0.0,0.0,0.0,0.0,0.0,0.0,0.0,0.0,0.0,
0.3605,4.230047450896991,3.578233813816647,3.8233654480601396,0.0,0.0,0.1466745077038713,3.8772155709245926,0.0,0.0,0.0,0.0,0.0,0.0,0.0,0.0,0.0,0.0,0.0,0.0,0.0,0.0,
0.3761,4.230731054226279,3.578798060567483,3.8239475253616706,0.0,0.0,0.146747894446845,3.8778255467184777,0.0,0.0,0.0,0.0,0.0,0.0,0.0,0.0,0.0,0.0,0.0,0.0,0.0,0.0,
0.3918,4.231448691302052,3.5793904492763247,3.824558600671582,0.0,0.0,0.14682496376961476,3.878465913749986,0.0,0.0,0.0,0.0,0.0,0.0,0.0,0.0,0.0,0.0,0.0,0.0,0.0,0.0,
0.4075,4.232196127587796,3.580007491367723,3.8251950708292113,0.0,0.0,0.14690526487429909,3.8791328965949106,0.0,0.0,0.0,0.0,0.0,0.0,0.0,0.0,0.0,0.0,0.0,0.0,0.0,0.0,
0.4232,4.232973418256148,3.5806492391382716,3.8258569853492794,0.0,0.0,0.1469888075562497,3.8798265475812332,0.0,0.0,0.0,0.0,0.0,0.0,0.0,0.0,0.0,0.0,0.0,0.0,0.0,0.0,
0.4388,4.233775384557946,3.5813114233119028,3.8265399365934476,0.0,0.0,0.1470750388792983,3.880542248154432,0.0,0.0,0.0,0.0,0.0,0.0,0.0,0.0,0.0,0.0,0.0,0.0,0.0,0.0,
0.4545,4.234612367520912,3.5820025897730625,3.8272527336814344,0.0,0.0,0.1471650749373984,3.881289230325136,0.0,0.0,0.0,0.0,0.0,0.0,0.0,0.0,0.0,0.0,0.0,0.0,0.0,0.0,
0.4702,4.235479383674308,3.582718631499039,3.827991135659496,0.0,0.0,0.14725838436984726,3.882063050277614,0.0,0.0,0.0,0.0,0.0,0.0,0.0,0.0,0.0,0.0,0.0,0.0,0.0,0.0,
0.4858,4.236370687867578,3.5834548108921007,3.8287502523154933,0.0,0.0,0.14735435296602795,3.8828585836917235,0.0,0.0,0.0,0.0,0.0,0.0,0.0,0.0,0.0,0.0,0.0,0.0,0.0,0.0,
0.5015,4.23729777337326,3.5842206290844025,3.829539875465807,0.0,0.0,0.14745422291227525,3.8836860926411565,0.0,0.0,0.0,0.0,0.0,0.0,0.0,0.0,0.0,0.0,0.0,0.0,0.0,0.0,
0.5172,4.238255091606618,3.585011511965266,3.8303552827460563,0.0,0.0,0.14755740180904298,3.884540628772647,0.0,0.0,0.0,0.0,0.0,0.0,0.0,0.0,0.0,0.0,0.0,0.0,0.0,0.0,
0.5329,4.239242713907424,3.5858275273040574,3.8311965382652264,0.0,0.0,0.14766390239944577,3.885422259825569,0.0,0.0,0.0,0.0,0.0,0.0,0.0,0.0,0.0,0.0,0.0,0.0,0.0,0.0,
0.5485,4.24025413362387,3.5866633071709053,3.8320581027554783,0.0,0.0,0.14777302769315362,3.886325181183418,0.0,0.0,0.0,0.0,0.0,0.0,0.0,0.0,0.0,0.0,0.0,0.0,0.0,0.0,
0.5642,4.241302393365499,3.5875296386463718,3.8329510899638786,0.0,0.0,0.14788619027984806,3.887261040658583,0.0,0.0,0.0,0.0,0.0,0.0,0.0,0.0,0.0,0.0,0.0,0.0,0.0,0.0,
0.5799,4.242381184987022,3.588421319149912,3.8338701302250997,0.0,0.0,0.14800271533672435,3.8882242114540113,0.0,0.0,0.0,0.0,0.0,0.0,0.0,0.0,0.0,0.0,0.0,0.0,0.0,0.0,
0.5956,4.2434905894031,3.5893384256614613,3.834815296318777,0.0,0.0,0.14812261737734425,3.8892147704611126,0.0,0.0,0.0,0.0,0.0,0.0,0.0,0.0,0.0,0.0,0.0,0.0,0.0,0.0,
0.6112,4.244623330867677,3.5902749527378046,3.8357803931164267,0.0,0.0,0.14824511529200968,3.890226225573969,0.0,0.0,0.0,0.0,0.0,0.0,0.0,0.0,0.0,0.0,0.0,0.0,0.0,0.0,
0.6269,4.24579401706036,3.5912429884049244,3.836777870463969,0.0,0.0,0.1483717949111128,3.891271625309751,0.0,0.0,0.0,0.0,0.0,0.0,0.0,0.0,0.0,0.0,0.0,0.0,0.0,0.0,
0.6426,4.246995572944389,3.592236694686037,3.837801704829227,0.0,0.0,0.14850189769892097,3.8923446574865506,0.0,0.0,0.0,0.0,0.0,0.0,0.0,0.0,0.0,0.0,0.0,0.0,0.0,0.0,
0.6582,4.2482201407084865,3.5932495829998503,3.8388452044707067,0.0,0.0,0.14863457850669146,3.8934383093930145,0.0,0.0,0.0,0.0,0.0,0.0,0.0,0.0,0.0,0.0,0.0,0.0,0.0,0.0,
0.6739,4.249483512734912,3.5942947275638972,3.8399218311630503,0.0,0.0,0.14877155511307946,3.894566690487286,0.0,0.0,0.0,0.0,0.0,0.0,0.0,0.0,0.0,0.0,0.0,0.0,0.0,0.0,
0.6896,4.250778033749686,3.595365809023085,3.8410250664173375,0.0,0.0,0.1489120052821108,3.8957229697300364,0.0,0.0,0.0,0.0,0.0,0.0,0.0,0.0,0.0,0.0,0.0,0.0,0.0,0.0,
0.7053,4.252103802138109,3.5964629212633246,3.842154998892343,0.0,0.0,0.14905594681055653,3.8969072407645924,0.0,0.0,0.0,0.0,0.0,0.0,0.0,0.0,0.0,0.0,0.0,0.0,0.0,0.0,
0.7209,4.2534521753988175,3.5975789234080797,3.8433042669906983,0.0,0.0,0.14920244766236668,3.8981117885991985,0.0,0.0,0.0,0.0,0.0,0.0,0.0,0.0,0.0,0.0,0.0,0.0,0.0,0.0,
0.7366,4.25484054338972,3.598728221582223,3.844487697810486,0.0,0.0,0.14935340473907205,3.8993521542608094,0.0,0.0,0.0,0.0,0.0,0.0,0.0,0.0,0.0,0.0,0.0,0.0,0.0,0.0,
0.7523,4.2562604688288435,3.5999038467220528,3.845698105439992,0.0,0.0,0.14950790941695932,3.900620806996963,0.0,0.0,0.0,0.0,0.0,0.0,0.0,0.0,0.0,0.0,0.0,0.0,0.0,0.0,
0.7679,4.257702714320388,3.6010981626350795,3.846927620145832,0.0,0.0,0.1496649633345744,3.9019094990337666,0.0,0.0,0.0,0.0,0.0,0.0,0.0,0.0,0.0,0.0,0.0,0.0,0.0,0.0,
0.7836,4.25918588112329,3.6023265871882795,3.848192105056953,0.0,0.0,0.1498266002098959,3.9032348577895077,0.0,0.0,0.0,0.0,0.0,0.0,0.0,0.0,0.0,0.0,0.0,0.0,0.0,0.0,
0.7993,4.26070093925998,3.6035816581265827,3.8494838681225936,0.0,0.0,0.14999184550552278,3.9045888218363856,0.0,0.0,0.0,0.0,0.0,0.0,0.0,0.0,0.0,0.0,0.0,0.0,0.0,0.0,
0.815,4.262248005686931,3.60486348745881,3.850803014970465,0.0,0.0,0.15016072058889868,3.905971502705402,0.0,0.0,0.0,0.0,0.0,0.0,0.0,0.0,0.0,0.0,0.0,0.0,0.0,0.0,
0.8306,4.263817039636029,3.6061637689346684,3.8521409892150813,0.0,0.0,0.1503321368667407,3.9073739325952594,0.0,0.0,0.0,0.0,0.0,0.0,0.0,0.0,0.0,0.0,0.0,0.0,0.0,0.0,
0.8463,4.265428278776642,3.607499289655894,3.853515054496415,0.0,0.0,0.15050831431457418,3.9088142076429833,0.0,0.0,0.0,0.0,0.0,0.0,0.0,0.0,0.0,0.0,0.0,0.0,0.0,0.0,
0.862,4.267071892952989,3.6088619204021435,3.8549168350160894,0.0,0.0,0.15068818876466925,3.910283549457074,0.0,0.0,0.0,0.0,0.0,0.0,0.0,0.0,0.0,0.0,0.0,0.0,0.0,0.0,
0.8777,4.268748010322053,3.610251784191354,3.8563464466832063,0.0,0.0,0.1508717837802073,3.9117820803988708,0.0,0.0,0.0,0.0,0.0,0.0,0.0,0.0,0.0,0.0,0.0,0.0,0.0,0.0,
0.8933,4.270445774602786,3.6116598931402946,3.8577946355265875,0.0,0.0,0.15105791834591809,3.9133001010898893,0.0,0.0,0.0,0.0,0.0,0.0,0.0,0.0,0.0,0.0,0.0,0.0,0.0,0.0,
0.909,4.272187085230808,3.613104427968068,3.8592800886559853,0.0,0.0,0.1512490033803644,3.9148572006182873,0.0,0.0,0.0,0.0,0.0,0.0,0.0,0.0,0.0,0.0,0.0,0.0,0.0,0.0,
0.9247,4.273961300041104,3.614576581222571,3.860793735879043,0.0,0.0,0.15144388295836214,3.9164438723809063,0.0,0.0,0.0,0.0,0.0,0.0,0.0,0.0,0.0,0.0,0.0,0.0,0.0,0.0,
0.9403,4.275756942811904,3.6160668458215515,3.86232579253067,0.0,0.0,0.15164130521910546,3.918049860388042,0.0,0.0,0.0,0.0,0.0,0.0,0.0,0.0,0.0,0.0,0.0,0.0,0.0,0.0,
0.956,4.277597176691999,3.617594464538738,3.863896029123304,0.0,0.0,0.15184382756873802,3.919695890118014,0.0,0.0,0.0,0.0,0.0,0.0,0.0,0.0,0.0,0.0,0.0,0.0,0.0,0.0,
0.9717,4.27947074241386,3.6191501134846296,3.865494847360101,0.0,0.0,0.15205022377841568,3.9213719010861965,0.0,0.0,0.0,0.0,0.0,0.0,0.0,0.0,0.0,0.0,0.0,0.0,0.0,0.0,
0.9874,4.281377788936355,3.6207339362840183,3.867122382341663,0.0,0.0,0.1522605215758868,3.923078035854012,0.0,0.0,0.0,0.0,0.0,0.0,0.0,0.0,0.0,0.0,0.0,0.0,0.0,0.0,
1.003,4.283306000565687,3.622335721305639,3.8687681301981907,0.0,0.0,0.15247337231793212,3.924803284023172,0.0,0.0,0.0,0.0,0.0,0.0,0.0,0.0,0.0,0.0,0.0,0.0,0.0,0.0,
1.0187,4.2852802523598506,3.6239761533275403,3.8704533304152955,0.0,0.0,0.1526915337097289,3.9265699120342283,0.0,0.0,0.0,0.0,0.0,0.0,0.0,0.0,0.0,0.0,0.0,0.0,0.0,0.0,
1.0344,4.287288449661018,3.6256452078928545,3.8721676692213887,0.0,0.0,0.15291368352485074,3.9283671089250873,0.0,0.0,0.0,0.0,0.0,0.0,0.0,0.0,0.0,0.0,0.0,0.0,0.0,0.0,
1.05,4.289317637518808,3.6273321356562653,3.8739000946003403,0.0,0.0,0.15313839873819074,3.9301832892584714,0.0,0.0,0.0,0.0,0.0,0.0,0.0,0.0,0.0,0.0,0.0,0.0,0.0,0.0,
1.0657,4.291393995182749,3.6290587226034963,3.875672966228505,0.0,0.0,0.15336859114471973,3.9320418946715834,0.0,0.0,0.0,0.0,0.0,0.0,0.0,0.0,0.0,0.0,0.0,0.0,0.0,0.0,
1.0814,4.293504792028832,3.630814409782154,3.8774754252003225,0.0,0.0,0.1536028647735766,3.9339315423371026,0.0,0.0,0.0,0.0,0.0,0.0,0.0,0.0,0.0,0.0,0.0,0.0,0.0,0.0,
1.0971,4.295650199611332,3.6325993634369276,3.8793076276073584,0.0,0.0,0.1538412520049059,3.935852396885206,0.0,0.0,0.0,0.0,0.0,0.0,0.0,0.0,0.0,0.0,0.0,0.0,0.0,0.0,
1.1127,4.297816395853156,3.634402103103606,3.881157777205976,0.0,0.0,0.1540822279357907,3.9377920920542455,0.0,0.0,0.0,0.0,0.0,0.0,0.0,0.0,0.0,0.0,0.0,0.0,0.0,0.0,
1.1284,4.300031329943602,3.636245913045349,3.883049755471522,0.0,0.0,0.15432891563558218,3.9397756661534906,0.0,0.0,0.0,0.0,0.0,0.0,0.0,0.0,0.0,0.0,0.0,0.0,0.0,0.0,
1.1441,4.302281408844858,3.6381195078140225,3.884971963593836,0.0,0.0,0.15457981817597757,3.941790960084239,0.0,0.0,0.0,0.0,0.0,0.0,0.0,0.0,0.0,0.0,0.0,0.0,0.0,0.0,
1.1598,4.304566817962632,3.6400230676404783,3.886924570606699,0.0,0.0,0.15483497085511227,3.9438381520699366,0.0,0.0,0.0,0.0,0.0,0.0,0.0,0.0,0.0,0.0,0.0,0.0,0.0,0.0,
1.1754,4.306872850504671,3.6419443639782303,3.888895020086506,0.0,0.0,0.15509274361732048,3.9459040781898023,0.0,0.0,0.0,0.0,0.0,0.0,0.0,0.0,0.0,0.0,0.0,0.0,0.0,0.0,
1.1911,4.309229262585489,3.6439082153837337,3.8909087490671546,0.0,0.0,0.1553564778830121,3.9480154090121253,0.0,0.0,0.0,0.0,0.0,0.0,0.0,0.0,0.0,0.0,0.0,0.0,0.0,0.0,
1.2068,4.311621581553937,3.645902593348827,3.892953403248856,0.0,0.0,0.15562457257711557,3.9501591927172064,0.0,0.0,0.0,0.0,0.0,0.0,0.0,0.0,0.0,0.0,0.0,0.0,0.0,0.0,
1.2224,4.314034425073499,3.647914696609129,3.895015845145534,0.0,0.0,0.15589531650226518,3.952321655609387,0.0,0.0,0.0,0.0,0.0,0.0,0.0,0.0,0.0,0.0,0.0,0.0,0.0,0.0,
1.2381,4.3164989297628775,3.649970519254719,3.8971227016470773,0.0,0.0,0.15617221977764212,3.954530716888225,0.0,0.0,0.0,0.0,0.0,0.0,0.0,0.0,0.0,0.0,0.0,0.0,0.0,0.0,
1.2538,4.318999951520025,3.6520574641017065,3.8992610411626454,0.0,0.0,0.15645360100079686,3.9567728189281257,0.0,0.0,0.0,0.0,0.0,0.0,0.0,0.0,0.0,0.0,0.0,0.0,0.0,0.0,
1.2695,4.321537701888619,3.65417573801338,3.9014310573005435,0.0,0.0,0.156739501110513,3.959048165734181,0.0,0.0,0.0,0.0,0.0,0.0,0.0,0.0,0.0,0.0,0.0,0.0,0.0,0.0,
1.2851,4.324095879677571,3.656311758575757,3.903618821347167,0.0,0.0,0.15702809732498885,3.961342153200165,0.0,0.0,0.0,0.0,0.0,0.0,0.0,0.0,0.0,0.0,0.0,0.0,0.0,0.0,
1.3008,4.326707500383162,3.6584931245674714,3.905852581629002,0.0,0.0,0.15732313206129814,3.9636844021932123,0.0,0.0,0.0,0.0,0.0,0.0,0.0,0.0,0.0,0.0,0.0,0.0,0.0,0.0,
1.3165,4.329356506888573,3.6607064634416613,3.9081186207206766,0.0,0.0,0.15762281350534238,3.9660605303503034,0.0,0.0,0.0,0.0,0.0,0.0,0.0,0.0,0.0,0.0,0.0,0.0,0.0,0.0,
1.3322,4.332043126908697,3.66295199869034,3.910417147531763,0.0,0.0,0.15792718617165927,3.9684707577102665,0.0,0.0,0.0,0.0,0.0,0.0,0.0,0.0,0.0,0.0,0.0,0.0,0.0,0.0,
1.3478,4.334750118825545,3.665215345760776,3.912733422446372,0.0,0.0,0.1582343115796143,3.9708996290108978,0.0,0.0,0.0,0.0,0.0,0.0,0.0,0.0,0.0,0.0,0.0,0.0,0.0,0.0,
1.3635,4.3375124225857675,3.6675257529272427,3.9150973570894974,0.0,0.0,0.15854817339902774,3.973378510867503,0.0,0.0,0.0,0.0,0.0,0.0,0.0,0.0,0.0,0.0,0.0,0.0,0.0,0.0,
1.3792,4.340313046944926,3.6698690517711254,3.9174944289668536,0.0,0.0,0.15886686539636016,3.9758921758943018,0.0,0.0,0.0,0.0,0.0,0.0,0.0,0.0,0.0,0.0,0.0,0.0,0.0,0.0,
1.3948,4.343134030230836,3.6722302417074677,3.919909276800685,0.0,0.0,0.15918835945590745,3.978424516246329,0.0,0.0,0.0,0.0,0.0,0.0,0.0,0.0,0.0,0.0,0.0,0.0,0.0,0.0,
1.4105,4.34601178693301,3.674639839020686,3.9223730884649552,0.0,0.0,0.15951682643483617,3.9810082381395504,0.0,0.0,0.0,0.0,0.0,0.0,0.0,0.0,0.0,0.0,0.0,0.0,0.0,0.0,
1.4262,4.34892861079427,3.677083064294349,3.9248707244842502,0.0,0.0,0.15985027149914724,3.9836274665242897,0.0,0.0,0.0,0.0,0.0,0.0,0.0,0.0,0.0,0.0,0.0,0.0,0.0,0.0,
1.4419,4.351884760323807,3.6795601729909246,3.927402423105653,0.0,0.0,0.16018874614823142,3.9862824521401277,0.0,0.0,0.0,0.0,0.0,0.0,0.0,0.0,0.0,0.0,0.0,0.0,0.0,0.0,
1.4575,4.35486129175214,3.6820553216408567,3.929951974022694,0.0,0.0,0.16053009851159641,3.98895619580523,0.0,0.0,0.0,0.0,0.0,0.0,0.0,0.0,0.0,0.0,0.0,0.0,0.0,0.0,
1.4732,4.357896632279026,3.684600763274611,3.9325523097774577,0.0,0.0,0.16087875830509982,3.991683235110365,0.0,0.0,0.0,0.0,0.0,0.0,0.0,0.0,0.0,0.0,0.0,0.0,0.0,0.0,
1.4889,4.360972100729349,3.687180882788487,3.9351874485496054,0.0,0.0,0.1612326084294525,3.9944468106891473,0.0,0.0,0.0,0.0,0.0,0.0,0.0,0.0,0.0,0.0,0.0,0.0,0.0,0.0,
1.5045,4.364068000048558,3.6897791880805237,3.9378405279013813,0.0,0.0,0.16158940089703508,3.997229238676821,0.0,0.0,0.0,0.0,0.0,0.0,0.0,0.0,0.0,0.0,0.0,0.0,0.0,0.0,
1.5202,4.3672243024853215,3.692429270142418,3.9405458217845384,0.0,0.0,0.1619537668165205,4.0000664648040924,0.0,0.0,0.0,0.0,0.0,0.0,0.0,0.0,0.0,0.0,0.0,0.0,0.0,0.0,
1.5359,4.37042157932167,3.695114871017835,3.943286701608747,0.0,0.0,0.16232349417636788,4.002941050649417,0.0,0.0,0.0,0.0,0.0,0.0,0.0,0.0,0.0,0.0,0.0,0.0,0.0,0.0,
1.5516,4.373660123564061,3.697836282429149,3.9460634387848685,0.0,0.0,0.1626986425627519,4.005853281592693,0.0,0.0,0.0,0.0,0.0,0.0,0.0,0.0,0.0,0.0,0.0,0.0,0.0,0.0,
1.5672,4.376919208911932,3.7005761229761234,3.948858278518044,0.0,0.0,0.1630768309496286,4.008784536802033,0.0,0.0,0.0,0.0,0.0,0.0,0.0,0.0,0.0,0.0,0.0,0.0,0.0,0.0,
1.5829,4.380240920543649,3.7033698202043994,3.9517073322904244,0.0,0.0,0.16346296970971125,4.0117726910128235,0.0,0.0,0.0,0.0,0.0,0.0,0.0,0.0,0.0,0.0,0.0,0.0,0.0,0.0,
1.5986,4.383604808669563,3.706200235122274,3.9545930868097687,0.0,0.0,0.16385471552874528,4.014799376867202,0.0,0.0,0.0,0.0,0.0,0.0,0.0,0.0,0.0,0.0,0.0,0.0,0.0,0.0,
1.6143,4.387011187947655,3.709067682433651,3.9575158344551196,0.0,0.0,0.16425213320325033,4.017864901612142,0.0,0.0,0.0,0.0,0.0,0.0,0.0,0.0,0.0,0.0,0.0,0.0,0.0,0.0,
1.6299,4.390438273176926,3.7119538620835644,3.9604569007216326,0.0,0.0,0.16465270273994628,4.020949678660708,0.0,0.0,0.0,0.0,0.0,0.0,0.0,0.0,0.0,0.0,0.0,0.0,0.0,0.0,
1.6456,4.3939303256917634,3.714896101527926,3.9634542934577834,0.0,0.0,0.16506162687118833,4.024093573559157,0.0,0.0,0.0,0.0,0.0,0.0,0.0,0.0,0.0,0.0,0.0,0.0,0.0,0.0,
1.6613,4.397465845605366,3.7178763520638625,3.966489587935829,0.0,0.0,0.16547642521144978,4.0272772618683526,0.0,0.0,0.0,0.0,0.0,0.0,0.0,0.0,0.0,0.0,0.0,0.0,0.0,0.0,
1.6769,4.401022233237661,3.7208756044125444,3.9695434010669812,0.0,0.0,0.16589446940886526,4.030480412905729,0.0,0.0,0.0,0.0,0.0,0.0,0.0,0.0,0.0,0.0,0.0,0.0,0.0,0.0,
1.6926,4.404645425459819,3.723932654777393,3.9726552035572618,0.0,0.0,0.16632119063380624,4.033744427931491,0.0,0.0,0.0,0.0,0.0,0.0,0.0,0.0,0.0,0.0,0.0,0.0,0.0,0.0,
1.7083,4.408313114947751,3.7270287524181502,3.975805868735894,0.0,0.0,0.1667540016783699,4.037049245367265,0.0,0.0,0.0,0.0,0.0,0.0,0.0,0.0,0.0,0.0,0.0,0.0,0.0,0.0,
1.724,4.412025658192526,3.7301642568922015,3.9789957298122505,0.0,0.0,0.16719297768492938,4.04039521496566,0.0,0.0,0.0,0.0,0.0,0.0,0.0,0.0,0.0,0.0,0.0,0.0,0.0,0.0,
1.7396,4.415759339493686,3.7333191833741783,3.9822044310850107,0.0,0.0,0.16763533972358294,4.043760984650958,0.0,0.0,0.0,0.0,0.0,0.0,0.0,0.0,0.0,0.0,0.0,0.0,0.0,0.0,
1.7553,4.419562394082327,3.7365343512574047,3.9854734538852017,0.0,0.0,0.16808683711339098,4.047190066408311,0.0,0.0,0.0,0.0,0.0,0.0,0.0,0.0,0.0,0.0,0.0,0.0,0.0,0.0,
1.771,4.423411408643263,3.7397900445394083,3.9887827084213856,0.0,0.0,0.16854473428612313,4.050661387201353,0.0,0.0,0.0,0.0,0.0,0.0,0.0,0.0,0.0,0.0,0.0,0.0,0.0,0.0,
1.7867,4.4273067661538,3.7430866514611747,3.99213255396,0.0,0.0,0.16900911311548805,4.054175323858325,0.0,0.0,0.0,0.0,0.0,0.0,0.0,0.0,0.0,0.0,0.0,0.0,0.0,0.0,
1.8023,4.4312235989795035,3.7464031756545193,3.9955016287820433,0.0,0.0,0.16947703666733943,4.057709467805355,0.0,0.0,0.0,0.0,0.0,0.0,0.0,0.0,0.0,0.0,0.0,0.0,0.0,0.0,
1.818,4.435212517829777,3.7497825380412513,3.998933497308404,0.0,0.0,0.16995458900240026,4.061309517726477,0.0,0.0,0.0,0.0,0.0,0.0,0.0,0.0,0.0,0.0,0.0,0.0,0.0,0.0,
1.8337,4.4392489682677185,3.753204022225643,4.002407074006621,0.0,0.0,0.17043887897770643,4.064953354833327,0.0,0.0,0.0,0.0,0.0,0.0,0.0,0.0,0.0,0.0,0.0,0.0,0.0,0.0,
1.8493,4.4433071940619175,3.756645848310505,4.005900219622273,0.0,0.0,0.17092684596480717,4.068617753998232,0.0,0.0,0.0,0.0,0.0,0.0,0.0,0.0,0.0,0.0,0.0,0.0,0.0,0.0,
