energies(eV),real_xx,real_yy,real_zz,real_xy,real_yz,real_xz,real_ave,imag_xx,imag_yy,imag_zz,imag_xy,imag_yz,imag_xz,imag_ave,absorption_xx,absorption_yy,absorption_zz,absorption_xy,absorption_yz,absorption_xz,absorption_ave,band_gap
0.0,3.8316603234396704,3.7460334947041516,3.8846034888329513,0.0,0.0,0.0,3.8207657689922576,0.0,0.0,0.0,0.0,0.0,0.0,0.0,0.0,0.0,0.0,0.0,0.0,0.0,0.0,5.9266
0.0186,3.831669850021162,3.7460424670238477,3.8846132935434072,0.0,0.0,0.0,3.820775203529472,0.0,0.0,0.0,0.0,0.0,0.0,0.0,0.0,0.0,0.0,0.0,0.0,0.0,0.0,
0.0371,3.831698225671688,3.746069191749577,3.884642497628012,0.0,0.0,0.0,3.820803305016426,0.0,0.0,0.0,0.0,0.0,0.0,0.0,0.0,0.0,0.0,0.0,0.0,0.0,0.0,
0.0557,3.831745758674735,3.7461139591872836,3.8846914183881327,0.0,0.0,0.0,3.8208503787500505,0.0,0.0,0.0,0.0,0.0,0.0,0.0,0.0,0.0,0.0,0.0,0.0,0.0,0.0,
0.0743,3.831812349412531,3.7461766754458177,3.884759953326758,0.0,0.0,0.0,3.8209163260617025,0.0,0.0,0.0,0.0,0.0,0.0,0.0,0.0,0.0,0.0,0.0,0.0,0.0,0.0,
0.0928,3.831897489981783,3.746256862078108,3.88484757975192,0.0,0.0,0.0,3.82100064393727,0.0,0.0,0.0,0.0,0.0,0.0,0.0,0.0,0.0,0.0,0.0,0.0,0.0,0.0,
0.1114,3.8320021053824376,3.7463553901385462,3.8849552497231556,0.0,0.0,0.0,3.821104248414713,0.0,0.0,0.0,0.0,0.0,0.0,0.0,0.0,0.0,0.0,0.0,0.0,0.0,0.0,
0.13,3.8321257922393865,3.746471879569729,3.885082548152352,0.0,0.0,0.0,3.821226739987156,0.0,0.0,0.0,0.0,0.0,0.0,0.0,0.0,0.0,0.0,0.0,0.0,0.0,0.0,
0.1485,3.8322677385994792,3.7466055654907118,3.8852286394520696,0.0,0.0,0.0,3.8213673145140867,0.0,0.0,0.0,0.0,0.0,0.0,0.0,0.0,0.0,0.0,0.0,0.0,0.0,0.0,
0.1671,3.8324294866271877,3.7467579001140066,3.88539511090641,0.0,0.0,0.0,3.8215274992158683,0.0,0.0,0.0,0.0,0.0,0.0,0.0,0.0,0.0,0.0,0.0,0.0,0.0,0.0,
0.1856,3.832609305661044,3.74692725326594,3.8855801814127813,0.0,0.0,0.0,3.821705580113255,0.0,0.0,0.0,0.0,0.0,0.0,0.0,0.0,0.0,0.0,0.0,0.0,0.0,0.0,
0.2042,3.8328091493355574,3.747115464612346,3.8857858617707737,0.0,0.0,0.0,3.8219034919062254,0.0,0.0,0.0,0.0,0.0,0.0,0.0,0.0,0.0,0.0,0.0,0.0,0.0,0.0,
0.2228,3.8330281077058075,3.7473216768752042,3.8860112155852526,0.0,0.0,0.0,3.822120333388755,0.0,0.0,0.0,0.0,0.0,0.0,0.0,0.0,0.0,0.0,0.0,0.0,0.0,0.0,
0.2413,3.8332648613268874,3.7475446471095792,3.886254885002291,0.0,0.0,0.0,3.822354797812919,0.0,0.0,0.0,0.0,0.0,0.0,0.0,0.0,0.0,0.0,0.0,0.0,0.0,0.0,
0.2599,3.8335219824101783,3.747786797430518,3.8865195175161715,0.0,0.0,0.0,3.8226094324522895,0.0,0.0,0.0,0.0,0.0,0.0,0.0,0.0,0.0,0.0,0.0,0.0,0.0,0.0,
0.2785,3.8337982564323676,3.748046983642023,3.8868038632866413,0.0,0.0,0.0,3.822883034453677,0.0,0.0,0.0,0.0,0.0,0.0,0.0,0.0,0.0,0.0,0.0,0.0,0.0,0.0,
0.297,3.834092058554571,3.748323675135033,3.887106250165998,0.0,0.0,0.0,3.823173994618534,0.0,0.0,0.0,0.0,0.0,0.0,0.0,0.0,0.0,0.0,0.0,0.0,0.0,0.0,
0.3156,3.8344065808142735,3.7486198776159307,3.8874299636435863,0.0,0.0,0.0,3.823485474024597,0.0,0.0,0.0,0.0,0.0,0.0,0.0,0.0,0.0,0.0,0.0,0.0,0.0,0.0,
0.3342,3.8347403035380387,3.748934159447222,3.8877734398392825,0.0,0.0,0.0,3.8238159676081813,0.0,0.0,0.0,0.0,0.0,0.0,0.0,0.0,0.0,0.0,0.0,0.0,0.0,0.0,
0.3527,3.8350912957234873,3.749264701651604,3.888134691511029,0.0,0.0,0.0,3.82416356296204,0.0,0.0,0.0,0.0,0.0,0.0,0.0,0.0,0.0,0.0,0.0,0.0,0.0,0.0,
0.3713,3.8354633707866066,3.7496150949456397,3.8885176437592093,0.0,0.0,0.0,3.824532036497152,0.0,0.0,0.0,0.0,0.0,0.0,0.0,0.0,0.0,0.0,0.0,0.0,0.0,0.0,
0.3899,3.8358547031872368,3.7499836195945035,3.8889204179184347,0.0,0.0,0.0,3.8249195802333915,0.0,0.0,0.0,0.0,0.0,0.0,0.0,0.0,0.0,0.0,0.0,0.0,0.0,0.0,
0.4084,3.8362630548436045,3.7503681674144316,3.889340710699387,0.0,0.0,0.0,3.825323977652475,0.0,0.0,0.0,0.0,0.0,0.0,0.0,0.0,0.0,0.0,0.0,0.0,0.0,0.0,
0.427,3.8366928624080967,3.7507729158303036,3.8897830887475293,0.0,0.0,0.0,3.8257496223286434,0.0,0.0,0.0,0.0,0.0,0.0,0.0,0.0,0.0,0.0,0.0,0.0,0.0,0.0,
0.4456,3.8371419936113416,3.7511958562205225,3.8902453577150267,0.0,0.0,0.0,3.8261944025156303,0.0,0.0,0.0,0.0,0.0,0.0,0.0,0.0,0.0,0.0,0.0,0.0,0.0,0.0,
0.4641,3.837607902228716,3.7516345902217387,3.890724897158837,0.0,0.0,0.0,3.8266557965364303,0.0,0.0,0.0,0.0,0.0,0.0,0.0,0.0,0.0,0.0,0.0,0.0,0.0,0.0,
0.4827,3.838095650314928,3.7520938839466376,3.8912269175243153,0.0,0.0,0.0,3.8271388172619605,0.0,0.0,0.0,0.0,0.0,0.0,0.0,0.0,0.0,0.0,0.0,0.0,0.0,0.0,
0.5013,3.838602797861959,3.7525714389629323,3.891748907730991,0.0,0.0,0.0,3.827641048185294,0.0,0.0,0.0,0.0,0.0,0.0,0.0,0.0,0.0,0.0,0.0,0.0,0.0,0.0,
0.5198,3.8391264892898502,3.753064565618351,3.892287928920568,0.0,0.0,0.0,3.8281596612762563,0.0,0.0,0.0,0.0,0.0,0.0,0.0,0.0,0.0,0.0,0.0,0.0,0.0,0.0,
0.5384,3.8396724145327013,3.7535786209769495,3.8928498379172534,0.0,0.0,0.0,3.8287002911423014,0.0,0.0,0.0,0.0,0.0,0.0,0.0,0.0,0.0,0.0,0.0,0.0,0.0,0.0,
0.5569,3.8402347326951274,3.7541081043149176,3.893428623156263,0.0,0.0,0.0,3.829257153388769,0.0,0.0,0.0,0.0,0.0,0.0,0.0,0.0,0.0,0.0,0.0,0.0,0.0,0.0,
0.5755,3.8408195534511735,3.7546587677077485,3.894030573586548,0.0,0.0,0.0,3.8298362982484897,0.0,0.0,0.0,0.0,0.0,0.0,0.0,0.0,0.0,0.0,0.0,0.0,0.0,0.0,
0.5941,3.841423921433697,3.755227827457966,3.8946526476770083,0.0,0.0,0.0,3.8304347988562237,0.0,0.0,0.0,0.0,0.0,0.0,0.0,0.0,0.0,0.0,0.0,0.0,0.0,0.0,
0.6126,3.842044462553235,3.755812105767719,3.895291372839601,0.0,0.0,0.0,3.8310493137201846,0.0,0.0,0.0,0.0,0.0,0.0,0.0,0.0,0.0,0.0,0.0,0.0,0.0,0.0,
0.6312,3.842687919191093,3.75641795007489,3.8959536894288314,0.0,0.0,0.0,3.831686519564938,0.0,0.0,0.0,0.0,0.0,0.0,0.0,0.0,0.0,0.0,0.0,0.0,0.0,0.0,
0.6498,3.84335102482049,3.7570422837410717,3.896636235621532,0.0,0.0,0.0,3.8323431813943643,0.0,0.0,0.0,0.0,0.0,0.0,0.0,0.0,0.0,0.0,0.0,0.0,0.0,0.0,
0.6683,3.8440300920226735,3.757681634044258,3.897335216279287,0.0,0.0,0.0,3.8330156474487396,0.0,0.0,0.0,0.0,0.0,0.0,0.0,0.0,0.0,0.0,0.0,0.0,0.0,0.0,
0.6869,3.8447324992115095,3.7583429468222613,3.8980582266245922,0.0,0.0,0.0,3.833711224219454,0.0,0.0,0.0,0.0,0.0,0.0,0.0,0.0,0.0,0.0,0.0,0.0,0.0,0.0,
0.7055,3.8454546671387204,3.75902285106695,3.898801582917178,0.0,0.0,0.0,3.8344263670409493,0.0,0.0,0.0,0.0,0.0,0.0,0.0,0.0,0.0,0.0,0.0,0.0,0.0,0.0,
0.724,3.8461925932817307,3.7597175775092917,3.899561165621321,0.0,0.0,0.0,3.835157112137448,0.0,0.0,0.0,0.0,0.0,0.0,0.0,0.0,0.0,0.0,0.0,0.0,0.0,0.0,
0.7426,3.8469542957386804,3.760434673722287,3.90034522863041,0.0,0.0,0.0,3.8359113993637926,0.0,0.0,0.0,0.0,0.0,0.0,0.0,0.0,0.0,0.0,0.0,0.0,0.0,0.0,
0.7612,3.847735880822754,3.761170472757501,3.90114976450015,0.0,0.0,0.0,3.836685372693468,0.0,0.0,0.0,0.0,0.0,0.0,0.0,0.0,0.0,0.0,0.0,0.0,0.0,0.0,
0.7797,3.8485330289744404,3.7619209070313366,3.901970327285676,0.0,0.0,0.0,3.8374747544304846,0.0,0.0,0.0,0.0,0.0,0.0,0.0,0.0,0.0,0.0,0.0,0.0,0.0,0.0,
0.7983,3.849354401959597,3.7626941294894087,3.9028158336997225,0.0,0.0,0.0,3.838288121716243,0.0,0.0,0.0,0.0,0.0,0.0,0.0,0.0,0.0,0.0,0.0,0.0,0.0,0.0,
0.8169,3.8501957897782444,3.7634861755287354,3.9036819506431226,0.0,0.0,0.0,3.839121305316701,0.0,0.0,0.0,0.0,0.0,0.0,0.0,0.0,0.0,0.0,0.0,0.0,0.0,0.0,
0.8354,3.8510525537395495,3.7642926773362126,3.9045639035817765,0.0,0.0,0.0,3.839969711552513,0.0,0.0,0.0,0.0,0.0,0.0,0.0,0.0,0.0,0.0,0.0,0.0,0.0,0.0,
0.854,3.8519340035981204,3.765122397175357,3.9054712765484205,0.0,0.0,0.0,3.8408425591072994,0.0,0.0,0.0,0.0,0.0,0.0,0.0,0.0,0.0,0.0,0.0,0.0,0.0,0.0,
0.8726,3.852835611006006,3.7659710709279137,3.906399408671115,0.0,0.0,0.0,3.8417353635350118,0.0,0.0,0.0,0.0,0.0,0.0,0.0,0.0,0.0,0.0,0.0,0.0,0.0,0.0,
0.8911,3.853752415882376,3.766834028486866,3.9073431944753847,0.0,0.0,0.0,3.842643212948209,0.0,0.0,0.0,0.0,0.0,0.0,0.0,0.0,0.0,0.0,0.0,0.0,0.0,0.0,
0.9097,3.8546943806356255,3.7677206456917185,3.9083128901732347,0.0,0.0,0.0,3.84357597216686,0.0,0.0,0.0,0.0,0.0,0.0,0.0,0.0,0.0,0.0,0.0,0.0,0.0,0.0,
0.9282,3.8556514284458503,3.7686214363461557,3.9092981229168786,0.0,0.0,0.0,3.844523662569628,0.0,0.0,0.0,0.0,0.0,0.0,0.0,0.0,0.0,0.0,0.0,0.0,0.0,0.0,
0.9468,3.856633959194593,3.7695461874930776,3.9103095995120425,0.0,0.0,0.0,3.845496582066571,0.0,0.0,0.0,0.0,0.0,0.0,0.0,0.0,0.0,0.0,0.0,0.0,0.0,0.0,
0.9654,3.857636909181472,3.7704901314645554,3.911342107829064,0.0,0.0,0.0,3.846489716158364,0.0,0.0,0.0,0.0,0.0,0.0,0.0,0.0,0.0,0.0,0.0,0.0,0.0,0.0,
0.9839,3.8586547773955444,3.771448089510428,3.91238998532685,0.0,0.0,0.0,3.8474976174109408,0.0,0.0,0.0,0.0,0.0,0.0,0.0,0.0,0.0,0.0,0.0,0.0,0.0,0.0,
1.0025,3.8596986249275127,3.7724304700566273,3.913464619903372,0.0,0.0,0.0,3.8485312382958377,0.0,0.0,0.0,0.0,0.0,0.0,0.0,0.0,0.0,0.0,0.0,0.0,0.0,0.0,
1.0211,3.8607630634987733,3.773432200225388,3.914560465170752,0.0,0.0,0.0,3.8495852429649706,0.0,0.0,0.0,0.0,0.0,0.0,0.0,0.0,0.0,0.0,0.0,0.0,0.0,0.0,
1.0396,3.861842263858819,3.7744477927141853,3.9156715205158763,0.0,0.0,0.0,3.8506538590296273,0.0,0.0,0.0,0.0,0.0,0.0,0.0,0.0,0.0,0.0,0.0,0.0,0.0,0.0,
1.0582,3.8629479539249534,3.7754882824563865,3.916809860782298,0.0,0.0,0.0,3.851748699054546,0.0,0.0,0.0,0.0,0.0,0.0,0.0,0.0,0.0,0.0,0.0,0.0,0.0,0.0,
1.0768,3.8640744181921516,3.776548288944665,3.917969602566548,0.0,0.0,0.0,3.8528641032344546,0.0,0.0,0.0,0.0,0.0,0.0,0.0,0.0,0.0,0.0,0.0,0.0,0.0,0.0,
1.0953,3.8652154962800522,3.7776220136845664,3.9191444041737182,0.0,0.0,0.0,3.8539939713794453,0.0,0.0,0.0,0.0,0.0,0.0,0.0,0.0,0.0,0.0,0.0,0.0,0.0,0.0,
1.1139,3.8663835889224436,3.778721123579476,3.9203470336348736,0.0,0.0,0.0,3.8551505820455976,0.0,0.0,0.0,0.0,0.0,0.0,0.0,0.0,0.0,0.0,0.0,0.0,0.0,0.0,
1.1325,3.8675726505638464,3.7798399279129358,3.9215712675903798,0.0,0.0,0.0,3.8563279486890543,0.0,0.0,0.0,0.0,0.0,0.0,0.0,0.0,0.0,0.0,0.0,0.0,0.0,0.0,
1.151,3.8687761866224673,3.780972314193855,3.922810420064472,0.0,0.0,0.0,3.857519640293598,0.0,0.0,0.0,0.0,0.0,0.0,0.0,0.0,0.0,0.0,0.0,0.0,0.0,0.0,
1.1696,3.8700072770197997,3.7821305871045547,3.924077958916003,0.0,0.0,0.0,3.858738607680119,0.0,0.0,0.0,0.0,0.0,0.0,0.0,0.0,0.0,0.0,0.0,0.0,0.0,0.0,
1.1882,3.871259543146186,3.7833087429763244,3.925367317701075,0.0,0.0,0.0,3.859978534607862,0.0,0.0,0.0,0.0,0.0,0.0,0.0,0.0,0.0,0.0,0.0,0.0,0.0,0.0,
1.2067,3.872526152960735,3.7845003523478047,3.9266714627697503,0.0,0.0,0.0,3.8612326560260968,0.0,0.0,0.0,0.0,0.0,0.0,0.0,0.0,0.0,0.0,0.0,0.0,0.0,0.0,
1.2253,3.873820872335195,3.7857183638440137,3.9280045688578564,0.0,0.0,0.0,3.8625146016790217,0.0,0.0,0.0,0.0,0.0,0.0,0.0,0.0,0.0,0.0,0.0,0.0,0.0,0.0,
1.2438,3.8751298531980014,3.7869497476959766,3.9293523782507465,0.0,0.0,0.0,3.863810659714908,0.0,0.0,0.0,0.0,0.0,0.0,0.0,0.0,0.0,0.0,0.0,0.0,0.0,0.0,
1.2624,3.87646732226048,3.7882078850376617,3.930729540630389,0.0,0.0,0.0,3.8651349159761765,0.0,0.0,0.0,0.0,0.0,0.0,0.0,0.0,0.0,0.0,0.0,0.0,0.0,0.0,
1.281,3.877826338849231,3.789486244252207,3.932128910480067,0.0,0.0,0.0,3.866480497860502,0.0,0.0,0.0,0.0,0.0,0.0,0.0,0.0,0.0,0.0,0.0,0.0,0.0,0.0,
1.2995,3.8791995009382787,3.790777860707614,3.933542866821463,0.0,0.0,0.0,3.8678400761557854,0.0,0.0,0.0,0.0,0.0,0.0,0.0,0.0,0.0,0.0,0.0,0.0,0.0,0.0,
1.3181,3.8806017333540597,3.792096770563458,3.9349867788964854,0.0,0.0,0.0,3.869228427604668,0.0,0.0,0.0,0.0,0.0,0.0,0.0,0.0,0.0,0.0,0.0,0.0,0.0,0.0,
1.3367,3.8820257534482123,3.793436121108048,3.936453148811671,0.0,0.0,0.0,3.870638341122644,0.0,0.0,0.0,0.0,0.0,0.0,0.0,0.0,0.0,0.0,0.0,0.0,0.0,0.0,
1.3552,3.8834638121039653,3.794788621951841,3.937933997879097,0.0,0.0,0.0,3.872062143978301,0.0,0.0,0.0,0.0,0.0,0.0,0.0,0.0,0.0,0.0,0.0,0.0,0.0,0.0,
1.3738,3.8849315401221434,3.7961689714372757,3.93944542309645,0.0,0.0,0.0,3.8735153115519565,0.0,0.0,0.0,0.0,0.0,0.0,0.0,0.0,0.0,0.0,0.0,0.0,0.0,0.0,
1.3924,3.8864213091769533,3.7975699923800534,3.940979570335768,0.0,0.0,0.0,3.8749902906309246,0.0,0.0,0.0,0.0,0.0,0.0,0.0,0.0,0.0,0.0,0.0,0.0,0.0,0.0,
1.4109,3.8879250190774814,3.798984065001085,3.9425280990480376,0.0,0.0,0.0,3.8764790610422017,0.0,0.0,0.0,0.0,0.0,0.0,0.0,0.0,0.0,0.0,0.0,0.0,0.0,0.0,
1.4295,3.8894590148920045,3.8004265573751397,3.94410784263637,0.0,0.0,0.0,3.8779978049678383,0.0,0.0,0.0,0.0,0.0,0.0,0.0,0.0,0.0,0.0,0.0,0.0,0.0,0.0,
1.4481,3.891015318711855,3.801889964283576,3.9457105866684232,0.0,0.0,0.0,3.879538623221285,0.0,0.0,0.0,0.0,0.0,0.0,0.0,0.0,0.0,0.0,0.0,0.0,0.0,0.0,
1.4666,3.8925854750771616,3.8033663327342198,3.9473276243616335,0.0,0.0,0.0,3.881093144057672,0.0,0.0,0.0,0.0,0.0,0.0,0.0,0.0,0.0,0.0,0.0,0.0,0.0,0.0,
1.4852,3.8941865520639043,3.804871708487742,3.948976534642135,0.0,0.0,0.0,3.882678265064594,0.0,0.0,0.0,0.0,0.0,0.0,0.0,0.0,0.0,0.0,0.0,0.0,0.0,0.0,
1.5038,3.8958102180662433,3.8063982545401354,3.9506487384849973,0.0,0.0,0.0,3.8842857370304587,0.0,0.0,0.0,0.0,0.0,0.0,0.0,0.0,0.0,0.0,0.0,0.0,0.0,0.0,
1.5223,3.8974476579424753,3.807937680665348,3.9523351582735207,0.0,0.0,0.0,3.8859068322937813,0.0,0.0,0.0,0.0,0.0,0.0,0.0,0.0,0.0,0.0,0.0,0.0,0.0,0.0,
1.5409,3.8991166719782395,3.809506718680312,3.954054128057867,0.0,0.0,0.0,3.887559172905473,0.0,0.0,0.0,0.0,0.0,0.0,0.0,0.0,0.0,0.0,0.0,0.0,0.0,0.0,
1.5595,3.9008085705408075,3.811097195849705,3.955796699707174,0.0,0.0,0.0,3.889234155365896,0.0,0.0,0.0,0.0,0.0,0.0,0.0,0.0,0.0,0.0,0.0,0.0,0.0,0.0,
1.578,3.902514174169003,3.812700480489446,3.957553419934688,0.0,0.0,0.0,3.8909226915310455,0.0,0.0,0.0,0.0,0.0,0.0,0.0,0.0,0.0,0.0,0.0,0.0,0.0,0.0,
1.5966,3.9042520250368495,3.81433399927325,3.95934338801515,0.0,0.0,0.0,3.8926431374417496,0.0,0.0,0.0,0.0,0.0,0.0,0.0,0.0,0.0,0.0,0.0,0.0,0.0,0.0,
1.6151,3.9060035407378213,3.8159802821966102,3.961147465679174,0.0,0.0,0.0,3.894377096204535,0.0,0.0,0.0,0.0,0.0,0.0,0.0,0.0,0.0,0.0,0.0,0.0,0.0,0.0,
1.6337,3.9077877632071356,3.817657223856884,3.9629852677517916,0.0,0.0,0.0,3.896143418271937,0.0,0.0,0.0,0.0,0.0,0.0,0.0,0.0,0.0,0.0,0.0,0.0,0.0,0.0,
1.6523,3.909595396093343,3.819356082856089,3.964847220488868,0.0,0.0,0.0,3.897932899812767,0.0,0.0,0.0,0.0,0.0,0.0,0.0,0.0,0.0,0.0,0.0,0.0,0.0,0.0,
1.6708,3.911416642019985,3.8210676486634108,3.9667232333076927,0.0,0.0,0.0,3.899735841330363,0.0,0.0,0.0,0.0,0.0,0.0,0.0,0.0,0.0,0.0,0.0,0.0,0.0,0.0,
1.6894,3.913271302040321,3.822810526390062,3.9686337042432753,0.0,0.0,0.0,3.9015718442245526,0.0,0.0,0.0,0.0,0.0,0.0,0.0,0.0,0.0,0.0,0.0,0.0,0.0,0.0,
1.708,3.9151497091283143,3.824575627387958,3.9705686772567184,0.0,0.0,0.0,3.90343133792433,0.0,0.0,0.0,0.0,0.0,0.0,0.0,0.0,0.0,0.0,0.0,0.0,0.0,0.0,
1.7265,3.9170416880665226,3.8263533873616224,3.9725176719909894,0.0,0.0,0.0,3.905304249139711,0.0,0.0,0.0,0.0,0.0,0.0,0.0,0.0,0.0,0.0,0.0,0.0,0.0,0.0,
1.7451,3.918967810059461,3.828163131956214,3.974501881211474,0.0,0.0,0.0,3.907210941075716,0.0,0.0,0.0,0.0,0.0,0.0,0.0,0.0,0.0,0.0,0.0,0.0,0.0,0.0,
1.7637,3.9209180322266146,3.829995420559391,3.976510961181128,0.0,0.0,0.0,3.909141471322378,0.0,0.0,0.0,0.0,0.0,0.0,0.0,0.0,0.0,0.0,0.0,0.0,0.0,0.0,
1.7822,3.9228817959802966,3.831840330082401,3.9785340359989863,0.0,0.0,0.0,3.9110853873538947,0.0,0.0,0.0,0.0,0.0,0.0,0.0,0.0,0.0,0.0,0.0,0.0,0.0,0.0,
1.8008,3.9248804542518,3.8337179172118763,3.9805931052501866,0.0,0.0,0.0,3.9130638255712875,0.0,0.0,0.0,0.0,0.0,0.0,0.0,0.0,0.0,0.0,0.0,0.0,0.0,0.0,
1.8194,3.926903582875498,3.8356183844310103,3.982677431833509,0.0,0.0,0.0,3.9150664663800057,0.0,0.0,0.0,0.0,0.0,0.0,0.0,0.0,0.0,0.0,0.0,0.0,0.0,0.0,
1.8379,3.928940234100662,3.8375314445918014,3.9847757382580644,0.0,0.0,0.0,3.9170824723168423,0.0,0.0,0.0,0.0,0.0,0.0,0.0,0.0,0.0,0.0,0.0,0.0,0.0,0.0,
1.8565,3.931012554723789,3.8394778964353886,3.986910843608967,0.0,0.0,0.0,3.9191337649227154,0.0,0.0,0.0,0.0,0.0,0.0,0.0,0.0,0.0,0.0,0.0,0.0,0.0,0.0,
1.8751,3.93310973360389,3.841447580366306,3.9890716114826996,0.0,0.0,0.0,3.9212096418176317,0.0,0.0,0.0,0.0,0.0,0.0,0.0,0.0,0.0,0.0,0.0,0.0,0.0,0.0,
1.8936,3.9352204277608616,3.8434298396653364,3.9912463564655605,0.0,0.0,0.0,3.9232988746305857,0.0,0.0,0.0,0.0,0.0,0.0,0.0,0.0,0.0,0.0,0.0,0.0,0.0,0.0,
1.9122,3.93736759057972,3.845446226665724,3.9934587304371783,0.0,0.0,0.0,3.925424182560874,0.0,0.0,0.0,0.0,0.0,0.0,0.0,0.0,0.0,0.0,0.0,0.0,0.0,0.0,
1.9308,3.9395400179846627,3.8474862142769086,3.995697191471259,0.0,0.0,0.0,3.9275744745776096,0.0,0.0,0.0,0.0,0.0,0.0,0.0,0.0,0.0,0.0,0.0,0.0,0.0,0.0,
1.9493,3.9417259654160333,3.849538770441343,3.997949639600574,0.0,0.0,0.0,3.92973812515265,0.0,0.0,0.0,0.0,0.0,0.0,0.0,0.0,0.0,0.0,0.0,0.0,0.0,0.0,
1.9679,3.9439492061789485,3.851626213166956,4.00024057343286,0.0,0.0,0.0,3.9319386642595884,0.0,0.0,0.0,0.0,0.0,0.0,0.0,0.0,0.0,0.0,0.0,0.0,0.0,0.0,
1.9864,3.946185977050446,3.8537262260637677,4.002545508303564,0.0,0.0,0.0,3.934152570472593,0.0,0.0,0.0,0.0,0.0,0.0,0.0,0.0,0.0,0.0,0.0,0.0,0.0,0.0,
2.005,3.948460605166725,3.855861644114002,4.004889514857281,0.0,0.0,0.0,3.936403921379336,0.0,0.0,0.0,0.0,0.0,0.0,0.0,0.0,0.0,0.0,0.0,0.0,0.0,0.0,
2.0236,3.9507612177972122,3.858021315239597,4.007260360923329,0.0,0.0,0.0,3.938680964653379,0.0,0.0,0.0,0.0,0.0,0.0,0.0,0.0,0.0,0.0,0.0,0.0,0.0,0.0,
2.0421,3.9530753864140795,3.86019356851184,4.009645240287698,0.0,0.0,0.0,3.940971398404539,0.0,0.0,0.0,0.0,0.0,0.0,0.0,0.0,0.0,0.0,0.0,0.0,0.0,0.0,
2.0607,3.9554282817043114,3.86240202598831,4.012070095029495,0.0,0.0,0.0,3.943300134240706,0.0,0.0,0.0,0.0,0.0,0.0,0.0,0.0,0.0,0.0,0.0,0.0,0.0,0.0,
2.0793,3.957807620719381,3.864635152401524,4.014522269407412,0.0,0.0,0.0,3.9456550141761055,0.0,0.0,0.0,0.0,0.0,0.0,0.0,0.0,0.0,0.0,0.0,0.0,0.0,0.0,
2.0978,3.960200554947894,3.8668808847862333,4.016988523428305,0.0,0.0,0.0,3.948023321054144,0.0,0.0,0.0,0.0,0.0,0.0,0.0,0.0,0.0,0.0,0.0,0.0,0.0,0.0,
2.1164,3.9626331137074033,3.8691636459210166,4.019495686377697,0.0,0.0,0.0,3.950430815335372,0.0,0.0,0.0,0.0,0.0,0.0,0.0,0.0,0.0,0.0,0.0,0.0,0.0,0.0,
2.135,3.96509259679318,3.8714715109637647,4.022030671590845,0.0,0.0,0.0,3.9528649264492635,0.0,0.0,0.0,0.0,0.0,0.0,0.0,0.0,0.0,0.0,0.0,0.0,0.0,0.0,
2.1535,3.9675657282190704,3.8737920181224723,4.024579797466159,0.0,0.0,0.0,3.9553125146025674,0.0,0.0,0.0,0.0,0.0,0.0,0.0,0.0,0.0,0.0,0.0,0.0,0.0,0.0,
2.1721,3.97007941172079,3.876150405174125,4.027170797012582,0.0,0.0,0.0,3.9578002046358325,0.0,0.0,0.0,0.0,0.0,0.0,0.0,0.0,0.0,0.0,0.0,0.0,0.0,0.0,
2.1907,3.9726205224768987,3.8785343510279384,4.02979014495042,0.0,0.0,0.0,3.9603150061517525,0.0,0.0,0.0,0.0,0.0,0.0,0.0,0.0,0.0,0.0,0.0,0.0,0.0,0.0,
2.2092,3.9751753491932673,3.880930987969005,4.0324237098807405,0.0,0.0,0.0,3.9628433490143373,0.0,0.0,0.0,0.0,0.0,0.0,0.0,0.0,0.0,0.0,0.0,0.0,0.0,0.0,
2.2278,3.9777716865509816,3.8833663837092542,4.035100145831716,0.0,0.0,0.0,3.9654127386973173,0.0,0.0,0.0,0.0,0.0,0.0,0.0,0.0,0.0,0.0,0.0,0.0,0.0,0.0,
2.2464,3.9803959774156397,3.8858278139346085,4.037805480864188,0.0,0.0,0.0,3.9680097574048125,0.0,0.0,0.0,0.0,0.0,0.0,0.0,0.0,0.0,0.0,0.0,0.0,0.0,0.0,
2.2649,3.9830340669950806,3.888301997592406,4.040525125217659,0.0,0.0,0.0,3.9706203966017153,0.0,0.0,0.0,0.0,0.0,0.0,0.0,0.0,0.0,0.0,0.0,0.0,0.0,0.0,
2.2835,3.9857146582162337,3.8908158479542063,4.043288672049967,0.0,0.0,0.0,3.9732730594068024,0.0,0.0,0.0,0.0,0.0,0.0,0.0,0.0,0.0,0.0,0.0,0.0,0.0,0.0,
2.302,3.9884091120086116,3.8933425009841254,4.046066598940332,0.0,0.0,0.0,3.9759394039776894,0.0,0.0,0.0,0.0,0.0,0.0,0.0,0.0,0.0,0.0,0.0,0.0,0.0,0.0,
2.3206,3.991146746249417,3.8959094421769818,4.048889135038628,0.0,0.0,0.0,3.978648441155009,0.0,0.0,0.0,0.0,0.0,0.0,0.0,0.0,0.0,0.0,0.0,0.0,0.0,0.0,
2.3392,3.9939132654911624,3.89850325907542,4.051741545367465,0.0,0.0,0.0,3.9813860233113494,0.0,0.0,0.0,0.0,0.0,0.0,0.0,0.0,0.0,0.0,0.0,0.0,0.0,0.0,
2.3577,3.996693756836262,3.901109964601247,4.0546084564123035,0.0,0.0,0.0,3.984137392616604,0.0,0.0,0.0,0.0,0.0,0.0,0.0,0.0,0.0,0.0,0.0,0.0,0.0,0.0,
2.3763,3.999518477047061,3.903757917454452,4.0575210685401935,0.0,0.0,0.0,3.986932487680569,0.0,0.0,0.0,0.0,0.0,0.0,0.0,0.0,0.0,0.0,0.0,0.0,0.0,0.0,
2.3949,4.002372676091188,3.906433281793257,4.060464176822868,0.0,0.0,0.0,3.989756711569104,0.0,0.0,0.0,0.0,0.0,0.0,0.0,0.0,0.0,0.0,0.0,0.0,0.0,0.0,
2.4134,4.005240973872209,3.909121635768634,4.063421924586744,0.0,0.0,0.0,3.9925948447425292,0.0,0.0,0.0,0.0,0.0,0.0,0.0,0.0,0.0,0.0,0.0,0.0,0.0,0.0,
