energies(eV),real_xx,real_yy,real_zz,real_xy,real_yz,real_xz,real_ave,imag_xx,imag_yy,imag_zz,imag_xy,imag_yz,imag_xz,imag_ave,absorption_xx,absorption_yy,absorption_zz,absorption_xy,absorption_yz,absorption_xz,absorption_ave,band_gap
0.0,1.7457904428349666,1.7457904428349666,1.735261599261908,0.0,0.0,0.0,1.742280828310614,0.0,0.0,0.0,0.0,0.0,0.0,0.0,0.0,0.0,0.0,0.0,0.0,0.0,0.0,10.4595
0.0165,1.7457910426143828,1.7457910426143828,1.7352621879114727,0.0,0.0,0.0,1.7422814243800795,0.0,0.0,0.0,0.0,0.0,0.0,0.0,0.0,0.0,0.0,0.0,0.0,0.0,0.0,
0.033,1.745792841959576,1.745792841959576,1.7352639538669632,0.0,0.0,0.0,1.7422832125953718,0.0,0.0,0.0,0.0,0.0,0.0,0.0,0.0,0.0,0.0,0.0,0.0,0.0,0.0,
0.0495,1.7457958408913696,1.7457958408913696,1.7352668971487817,0.0,0.0,0.0,1.7422861929771738,0.0,0.0,0.0,0.0,0.0,0.0,0.0,0.0,0.0,0.0,0.0,0.0,0.0,0.0,
0.0659,1.7458000103853952,1.7458000103853952,1.7352709892710956,0.0,0.0,0.0,1.7422903366806288,0.0,0.0,0.0,0.0,0.0,0.0,0.0,0.0,0.0,0.0,0.0,0.0,0.0,0.0,
0.0824,1.7458054013374498,1.7458054013374498,1.7352762801851496,0.0,0.0,0.0,1.742295694286683,0.0,0.0,0.0,0.0,0.0,0.0,0.0,0.0,0.0,0.0,0.0,0.0,0.0,0.0,
0.0989,1.7458119920214112,1.7458119920214112,1.7352827485678906,0.0,0.0,0.0,1.742302244203571,0.0,0.0,0.0,0.0,0.0,0.0,0.0,0.0,0.0,0.0,0.0,0.0,0.0,0.0,
0.1154,1.7458197825135442,1.7458197825135442,1.735290394494016,0.0,0.0,0.0,1.7423099865070348,0.0,0.0,0.0,0.0,0.0,0.0,0.0,0.0,0.0,0.0,0.0,0.0,0.0,0.0,
0.1319,1.745828772903993,1.745828772903993,1.7352992180518496,0.0,0.0,0.0,1.7423189212866117,0.0,0.0,0.0,0.0,0.0,0.0,0.0,0.0,0.0,0.0,0.0,0.0,0.0,0.0,
0.1484,1.7458389632968014,1.7458389632968014,1.7353092193433122,0.0,0.0,0.0,1.7423290486456384,0.0,0.0,0.0,0.0,0.0,0.0,0.0,0.0,0.0,0.0,0.0,0.0,0.0,0.0,
0.1649,1.7458503538098904,1.7458503538098904,1.7353203984839203,0.0,0.0,0.0,1.7423403687012335,0.0,0.0,0.0,0.0,0.0,0.0,0.0,0.0,0.0,0.0,0.0,0.0,0.0,0.0,
0.1814,1.7458629445750897,1.7458629445750897,1.7353327556028364,0.0,0.0,0.0,1.7423528815843385,0.0,0.0,0.0,0.0,0.0,0.0,0.0,0.0,0.0,0.0,0.0,0.0,0.0,0.0,
0.1978,1.7458766485394874,1.7458766485394874,1.735346205262321,0.0,0.0,0.0,1.7423665007804319,0.0,0.0,0.0,0.0,0.0,0.0,0.0,0.0,0.0,0.0,0.0,0.0,0.0,0.0,
0.2143,1.745891632983386,1.745891632983386,1.7353609116381823,0.0,0.0,0.0,1.7423813925349847,0.0,0.0,0.0,0.0,0.0,0.0,0.0,0.0,0.0,0.0,0.0,0.0,0.0,0.0,
0.2308,1.7459078181572156,1.7459078181572156,1.7353767964604319,0.0,0.0,0.0,1.7423974775916211,0.0,0.0,0.0,0.0,0.0,0.0,0.0,0.0,0.0,0.0,0.0,0.0,0.0,0.0,
0.2473,1.745925204248351,1.745925204248351,1.7353938599126515,0.0,0.0,0.0,1.7424147561364514,0.0,0.0,0.0,0.0,0.0,0.0,0.0,0.0,0.0,0.0,0.0,0.0,0.0,0.0,
0.2638,1.7459437914580902,1.7459437914580902,1.7354121021920368,0.0,0.0,0.0,1.742433228369406,0.0,0.0,0.0,0.0,0.0,0.0,0.0,0.0,0.0,0.0,0.0,0.0,0.0,0.0,
0.2803,1.745963580001677,1.745963580001677,1.7354315235094506,0.0,0.0,0.0,1.742452894504268,0.0,0.0,0.0,0.0,0.0,0.0,0.0,0.0,0.0,0.0,0.0,0.0,0.0,0.0,
0.2968,1.745984570108267,1.745984570108267,1.7354521240893934,0.0,0.0,0.0,1.7424737547686426,0.0,0.0,0.0,0.0,0.0,0.0,0.0,0.0,0.0,0.0,0.0,0.0,0.0,0.0,
0.3132,1.7460066239042735,1.7460066239042735,1.7354737686164659,0.0,0.0,0.0,1.742495672141671,0.0,0.0,0.0,0.0,0.0,0.0,0.0,0.0,0.0,0.0,0.0,0.0,0.0,0.0,
0.3297,1.7460300105941502,1.7460300105941502,1.7354967212988424,0.0,0.0,0.0,1.742518914162381,0.0,0.0,0.0,0.0,0.0,0.0,0.0,0.0,0.0,0.0,0.0,0.0,0.0,0.0,
0.3462,1.7460545996165577,1.7460545996165577,1.7355208539976195,0.0,0.0,0.0,1.7425433510769117,0.0,0.0,0.0,0.0,0.0,0.0,0.0,0.0,0.0,0.0,0.0,0.0,0.0,0.0,
0.3627,1.7460803912564187,1.7460803912564187,1.7355461669919108,0.0,0.0,0.0,1.7425689831682494,0.0,0.0,0.0,0.0,0.0,0.0,0.0,0.0,0.0,0.0,0.0,0.0,0.0,0.0,
0.3792,1.7461073858126213,1.7461073858126213,1.7355726605745319,0.0,0.0,0.0,1.742595810733258,0.0,0.0,0.0,0.0,0.0,0.0,0.0,0.0,0.0,0.0,0.0,0.0,0.0,0.0,
0.3957,1.746135583598046,1.746135583598046,1.7356003350519997,0.0,0.0,0.0,1.7426238340826974,0.0,0.0,0.0,0.0,0.0,0.0,0.0,0.0,0.0,0.0,0.0,0.0,0.0,0.0,
0.4122,1.7461649849395773,1.7461649849395773,1.7356291907445376,0.0,0.0,0.0,1.7426530535412308,0.0,0.0,0.0,0.0,0.0,0.0,0.0,0.0,0.0,0.0,0.0,0.0,0.0,0.0,
0.4287,1.7461955901781048,1.7461955901781048,1.735659227986109,0.0,0.0,0.0,1.7426834694474396,0.0,0.0,0.0,0.0,0.0,0.0,0.0,0.0,0.0,0.0,0.0,0.0,0.0,0.0,
0.4451,1.7462272032559008,1.7462272032559008,1.7356902543569905,0.0,0.0,0.0,1.742714886956264,0.0,0.0,0.0,0.0,0.0,0.0,0.0,0.0,0.0,0.0,0.0,0.0,0.0,0.0,
0.4616,1.7462602100653342,1.7462602100653342,1.7357226485871355,0.0,0.0,0.0,1.7427476895726013,0.0,0.0,0.0,0.0,0.0,0.0,0.0,0.0,0.0,0.0,0.0,0.0,0.0,0.0,
0.4781,1.7462944218762617,1.7462944218762617,1.7357562254483274,0.0,0.0,0.0,1.7427816897336168,0.0,0.0,0.0,0.0,0.0,0.0,0.0,0.0,0.0,0.0,0.0,0.0,0.0,0.0,
0.4946,1.7463298390856496,1.7463298390856496,1.7357909853294693,0.0,0.0,0.0,1.7428168878335895,0.0,0.0,0.0,0.0,0.0,0.0,0.0,0.0,0.0,0.0,0.0,0.0,0.0,0.0,
0.5111,1.7463664621045427,1.7463664621045427,1.7358269286332118,0.0,0.0,0.0,1.7428532842807656,0.0,0.0,0.0,0.0,0.0,0.0,0.0,0.0,0.0,0.0,0.0,0.0,0.0,0.0,
0.5276,1.746404291358055,1.746404291358055,1.7358640557760485,0.0,0.0,0.0,1.742890879497386,0.0,0.0,0.0,0.0,0.0,0.0,0.0,0.0,0.0,0.0,0.0,0.0,0.0,0.0,
0.5441,1.7464433272854185,1.7464433272854185,1.735902367188247,0.0,0.0,0.0,1.7429296739196947,0.0,0.0,0.0,0.0,0.0,0.0,0.0,0.0,0.0,0.0,0.0,0.0,0.0,0.0,
0.5605,1.7464833228059424,1.7464833228059424,1.7359416203742812,0.0,0.0,0.0,1.7429694219953886,0.0,0.0,0.0,0.0,0.0,0.0,0.0,0.0,0.0,0.0,0.0,0.0,0.0,0.0,
0.577,1.7465247661349494,1.7465247661349494,1.7359822944871324,0.0,0.0,0.0,1.7430106089190105,0.0,0.0,0.0,0.0,0.0,0.0,0.0,0.0,0.0,0.0,0.0,0.0,0.0,0.0,
0.5935,1.7465674175372603,1.7465674175372603,1.7360241542403216,0.0,0.0,0.0,1.7430529964382808,0.0,0.0,0.0,0.0,0.0,0.0,0.0,0.0,0.0,0.0,0.0,0.0,0.0,0.0,
0.61,1.7466112775085538,1.7466112775085538,1.7360672001194517,0.0,0.0,0.0,1.7430965850455198,0.0,0.0,0.0,0.0,0.0,0.0,0.0,0.0,0.0,0.0,0.0,0.0,0.0,0.0,
0.6265,1.7466563465586946,1.7466563465586946,1.7361114326239968,0.0,0.0,0.0,1.7431413752471288,0.0,0.0,0.0,0.0,0.0,0.0,0.0,0.0,0.0,0.0,0.0,0.0,0.0,0.0,
0.643,1.746702625211748,1.746702625211748,1.7361568522673438,0.0,0.0,0.0,1.7431873675636131,0.0,0.0,0.0,0.0,0.0,0.0,0.0,0.0,0.0,0.0,0.0,0.0,0.0,0.0,
0.6595,1.746750114005971,1.746750114005971,1.736203459576813,0.0,0.0,0.0,1.7432345625295849,0.0,0.0,0.0,0.0,0.0,0.0,0.0,0.0,0.0,0.0,0.0,0.0,0.0,0.0,
0.676,1.7467988134938586,1.7467988134938586,1.7362512550936475,0.0,0.0,0.0,1.7432829606937883,0.0,0.0,0.0,0.0,0.0,0.0,0.0,0.0,0.0,0.0,0.0,0.0,0.0,0.0,
0.6924,1.7468484181033805,1.7468484181033805,1.7362999389170173,0.0,0.0,0.0,1.7433322583745927,0.0,0.0,0.0,0.0,0.0,0.0,0.0,0.0,0.0,0.0,0.0,0.0,0.0,0.0,
0.7089,1.7468995333468351,1.7468995333468351,1.7363501053183559,0.0,0.0,0.0,1.743383057337342,0.0,0.0,0.0,0.0,0.0,0.0,0.0,0.0,0.0,0.0,0.0,0.0,0.0,0.0,
0.7254,1.746951861023366,1.746951861023366,1.736401461631044,0.0,0.0,0.0,1.7434350612259255,0.0,0.0,0.0,0.0,0.0,0.0,0.0,0.0,0.0,0.0,0.0,0.0,0.0,0.0,
0.7419,1.7470054017424657,1.7470054017424657,1.7364540084521796,0.0,0.0,0.0,1.7434882706457036,0.0,0.0,0.0,0.0,0.0,0.0,0.0,0.0,0.0,0.0,0.0,0.0,0.0,0.0,
0.7584,1.7470601561279957,1.7470601561279957,1.73650774639291,0.0,0.0,0.0,1.7435426862163004,0.0,0.0,0.0,0.0,0.0,0.0,0.0,0.0,0.0,0.0,0.0,0.0,0.0,0.0,
0.7749,1.7471161248181302,1.7471161248181302,1.7365626760784219,0.0,0.0,0.0,1.7435983085715607,0.0,0.0,0.0,0.0,0.0,0.0,0.0,0.0,0.0,0.0,0.0,0.0,0.0,0.0,
0.7914,1.7471733084654337,1.7471733084654337,1.7366187981479773,0.0,0.0,0.0,1.7436551383596148,0.0,0.0,0.0,0.0,0.0,0.0,0.0,0.0,0.0,0.0,0.0,0.0,0.0,0.0,
0.8078,1.7472313501391286,1.7472313501391286,1.7366757622959712,0.0,0.0,0.0,1.743712820858076,0.0,0.0,0.0,0.0,0.0,0.0,0.0,0.0,0.0,0.0,0.0,0.0,0.0,0.0,
0.8243,1.7472909583423735,1.7472909583423735,1.7367342638712038,0.0,0.0,0.0,1.7437720601853168,0.0,0.0,0.0,0.0,0.0,0.0,0.0,0.0,0.0,0.0,0.0,0.0,0.0,0.0,
0.8408,1.7473517835426202,1.7473517835426202,1.7367939598287727,0.0,0.0,0.0,1.7438325089713376,0.0,0.0,0.0,0.0,0.0,0.0,0.0,0.0,0.0,0.0,0.0,0.0,0.0,0.0,
0.8573,1.74741382645002,1.74741382645002,1.7368548508643658,0.0,0.0,0.0,1.7438941679214686,0.0,0.0,0.0,0.0,0.0,0.0,0.0,0.0,0.0,0.0,0.0,0.0,0.0,0.0,
0.8738,1.7474770877892185,1.7474770877892185,1.7369169376878666,0.0,0.0,0.0,1.7439570377554345,0.0,0.0,0.0,0.0,0.0,0.0,0.0,0.0,0.0,0.0,0.0,0.0,0.0,0.0,
0.8903,1.7475415682993747,1.7475415682993747,1.736980221023366,0.0,0.0,0.0,1.7440211192073718,0.0,0.0,0.0,0.0,0.0,0.0,0.0,0.0,0.0,0.0,0.0,0.0,0.0,0.0,
0.9068,1.74760726873415,1.74760726873415,1.7370447016091948,0.0,0.0,0.0,1.7440864130258316,0.0,0.0,0.0,0.0,0.0,0.0,0.0,0.0,0.0,0.0,0.0,0.0,0.0,0.0,
0.9233,1.7476741898617916,1.7476741898617916,1.7371103801979322,0.0,0.0,0.0,1.7441529199738384,0.0,0.0,0.0,0.0,0.0,0.0,0.0,0.0,0.0,0.0,0.0,0.0,0.0,0.0,
0.9397,1.747741915799045,1.747741915799045,1.737176848626944,0.0,0.0,0.0,1.7442202267416782,0.0,0.0,0.0,0.0,0.0,0.0,0.0,0.0,0.0,0.0,0.0,0.0,0.0,0.0,
0.9562,1.74781127326533,1.74781127326533,1.7372449182640213,0.0,0.0,0.0,1.7442891549315604,0.0,0.0,0.0,0.0,0.0,0.0,0.0,0.0,0.0,0.0,0.0,0.0,0.0,0.0,
0.9727,1.747881853811812,1.747881853811812,1.7373141882426935,0.0,0.0,0.0,1.744359298622106,0.0,0.0,0.0,0.0,0.0,0.0,0.0,0.0,0.0,0.0,0.0,0.0,0.0,0.0,
0.9892,1.7479536582651298,1.7479536582651298,1.737384659372753,0.0,0.0,0.0,1.7444306586343377,0.0,0.0,0.0,0.0,0.0,0.0,0.0,0.0,0.0,0.0,0.0,0.0,0.0,0.0,
1.0057,1.7480266874666017,1.7480266874666017,1.7374563324783807,0.0,0.0,0.0,1.7445032358038615,0.0,0.0,0.0,0.0,0.0,0.0,0.0,0.0,0.0,0.0,0.0,0.0,0.0,0.0,
1.0222,1.7481009422722726,1.7481009422722726,1.7375292083981604,0.0,0.0,0.0,1.7445770309809019,0.0,0.0,0.0,0.0,0.0,0.0,0.0,0.0,0.0,0.0,0.0,0.0,0.0,0.0,
1.0387,1.7481764235529234,1.7481764235529234,1.7376032879851384,0.0,0.0,0.0,1.7446520450303282,0.0,0.0,0.0,0.0,0.0,0.0,0.0,0.0,0.0,0.0,0.0,0.0,0.0,0.0,
1.0551,1.7482526635947402,1.7482526635947402,1.7376781122096703,0.0,0.0,0.0,1.7447278131330501,0.0,0.0,0.0,0.0,0.0,0.0,0.0,0.0,0.0,0.0,0.0,0.0,0.0,0.0,
1.0716,1.7483305930501127,1.7483305930501127,1.737754594439832,0.0,0.0,0.0,1.7448052601800192,0.0,0.0,0.0,0.0,0.0,0.0,0.0,0.0,0.0,0.0,0.0,0.0,0.0,0.0,
1.0881,1.7484097516760149,1.7484097516760149,1.7378322829777868,0.0,0.0,0.0,1.7448839287766056,0.0,0.0,0.0,0.0,0.0,0.0,0.0,0.0,0.0,0.0,0.0,0.0,0.0,0.0,
1.1046,1.7484901404024353,1.7484901404024353,1.7379111787345547,0.0,0.0,0.0,1.7449638198464752,0.0,0.0,0.0,0.0,0.0,0.0,0.0,0.0,0.0,0.0,0.0,0.0,0.0,0.0,
1.1211,1.7485717601742485,1.7485717601742485,1.7379912826357484,0.0,0.0,0.0,1.7450449343280818,0.0,0.0,0.0,0.0,0.0,0.0,0.0,0.0,0.0,0.0,0.0,0.0,0.0,0.0,
1.1376,1.7486546119512756,1.7486546119512756,1.738072595621615,0.0,0.0,0.0,1.745127273174722,0.0,0.0,0.0,0.0,0.0,0.0,0.0,0.0,0.0,0.0,0.0,0.0,0.0,0.0,
1.1541,1.7487386967082825,1.7487386967082825,1.7381551186470512,0.0,0.0,0.0,1.7452108373545387,0.0,0.0,0.0,0.0,0.0,0.0,0.0,0.0,0.0,0.0,0.0,0.0,0.0,0.0,
1.1706,1.7488240154350498,1.7488240154350498,1.7382388526816395,0.0,0.0,0.0,1.7452956278505798,0.0,0.0,0.0,0.0,0.0,0.0,0.0,0.0,0.0,0.0,0.0,0.0,0.0,0.0,
1.187,1.7489100408467908,1.7489100408467908,1.7383232802328326,0.0,0.0,0.0,1.7453811206421381,0.0,0.0,0.0,0.0,0.0,0.0,0.0,0.0,0.0,0.0,0.0,0.0,0.0,0.0,
1.2035,1.7489978230485663,1.7489978230485663,1.7384094318988952,0.0,0.0,0.0,1.7454683593320093,0.0,0.0,0.0,0.0,0.0,0.0,0.0,0.0,0.0,0.0,0.0,0.0,0.0,0.0,
1.22,1.74908684227341,1.74908684227341,1.738496797565146,0.0,0.0,0.0,1.7455568273706554,0.0,0.0,0.0,0.0,0.0,0.0,0.0,0.0,0.0,0.0,0.0,0.0,0.0,0.0,
1.2365,1.7491770995713316,1.7491770995713316,1.7385853782601628,0.0,0.0,0.0,1.745646525800942,0.0,0.0,0.0,0.0,0.0,0.0,0.0,0.0,0.0,0.0,0.0,0.0,0.0,0.0,
1.253,1.7492685960075005,1.7492685960075005,1.7386751750273945,0.0,0.0,0.0,1.7457374556807987,0.0,0.0,0.0,0.0,0.0,0.0,0.0,0.0,0.0,0.0,0.0,0.0,0.0,0.0,
1.2695,1.7493613326623003,1.7493613326623003,1.7387661889251738,0.0,0.0,0.0,1.745829618083258,0.0,0.0,0.0,0.0,0.0,0.0,0.0,0.0,0.0,0.0,0.0,0.0,0.0,0.0,
1.286,1.7494553106313508,1.7494553106313508,1.7388584210267646,0.0,0.0,0.0,1.7459230140964888,0.0,0.0,0.0,0.0,0.0,0.0,0.0,0.0,0.0,0.0,0.0,0.0,0.0,0.0,
1.3024,1.7495499501879042,1.7495499501879042,1.7389513023736813,0.0,0.0,0.0,1.7460170675831632,0.0,0.0,0.0,0.0,0.0,0.0,0.0,0.0,0.0,0.0,0.0,0.0,0.0,0.0,
1.3189,1.74964640659338,1.74964640659338,1.7390459667629095,0.0,0.0,0.0,1.74611292664989,0.0,0.0,0.0,0.0,0.0,0.0,0.0,0.0,0.0,0.0,0.0,0.0,0.0,0.0,
1.3354,1.7497441076848514,1.7497441076848514,1.7391418526588591,0.0,0.0,0.0,1.7462100226761874,0.0,0.0,0.0,0.0,0.0,0.0,0.0,0.0,0.0,0.0,0.0,0.0,0.0,0.0,
1.3519,1.7498430546191788,1.7498430546191788,1.739238961194805,0.0,0.0,0.0,1.7463083568110542,0.0,0.0,0.0,0.0,0.0,0.0,0.0,0.0,0.0,0.0,0.0,0.0,0.0,0.0,
1.3684,1.7499432485686732,1.7499432485686732,1.7393372935191167,0.0,0.0,0.0,1.746407930218821,0.0,0.0,0.0,0.0,0.0,0.0,0.0,0.0,0.0,0.0,0.0,0.0,0.0,0.0,
1.3849,1.7500446907211284,1.7500446907211284,1.7394368507953346,0.0,0.0,0.0,1.746508744079197,0.0,0.0,0.0,0.0,0.0,0.0,0.0,0.0,0.0,0.0,0.0,0.0,0.0,0.0,
1.4014,1.7501473822798412,1.7501473822798412,1.7395376342021913,0.0,0.0,0.0,1.7466107995872913,0.0,0.0,0.0,0.0,0.0,0.0,0.0,0.0,0.0,0.0,0.0,0.0,0.0,0.0,
1.4179,1.7502513244636764,1.7502513244636764,1.7396396449336486,0.0,0.0,0.0,1.7467140979536673,0.0,0.0,0.0,0.0,0.0,0.0,0.0,0.0,0.0,0.0,0.0,0.0,0.0,0.0,
1.4343,1.7503558771944072,1.7503558771944072,1.7397422548037276,0.0,0.0,0.0,1.7468180030641804,0.0,0.0,0.0,0.0,0.0,0.0,0.0,0.0,0.0,0.0,0.0,0.0,0.0,0.0,
1.4508,1.7504623167490831,1.7504623167490831,1.739846716370646,0.0,0.0,0.0,1.7469237832896038,0.0,0.0,0.0,0.0,0.0,0.0,0.0,0.0,0.0,0.0,0.0,0.0,0.0,0.0,
1.4673,1.7505700106714914,1.7505700106714914,1.739952408928353,0.0,0.0,0.0,1.7470308100904453,0.0,0.0,0.0,0.0,0.0,0.0,0.0,0.0,0.0,0.0,0.0,0.0,0.0,0.0,
1.4838,1.750678960243048,1.750678960243048,1.7400593337320762,0.0,0.0,0.0,1.7471390847393906,0.0,0.0,0.0,0.0,0.0,0.0,0.0,0.0,0.0,0.0,0.0,0.0,0.0,0.0,
1.5003,1.7507891667609357,1.7507891667609357,1.7401674920524952,0.0,0.0,0.0,1.7472486085247887,0.0,0.0,0.0,0.0,0.0,0.0,0.0,0.0,0.0,0.0,0.0,0.0,0.0,0.0,
1.5168,1.7509006315381583,1.7509006315381583,1.740276885175791,0.0,0.0,0.0,1.7473593827507026,0.0,0.0,0.0,0.0,0.0,0.0,0.0,0.0,0.0,0.0,0.0,0.0,0.0,0.0,
1.5333,1.7510133559035796,1.7510133559035796,1.7403875144036673,0.0,0.0,0.0,1.747471408736942,0.0,0.0,0.0,0.0,0.0,0.0,0.0,0.0,0.0,0.0,0.0,0.0,0.0,0.0,
1.5497,1.7511266465814068,1.7511266465814068,1.7404986993440168,0.0,0.0,0.0,1.7475839975022769,0.0,0.0,0.0,0.0,0.0,0.0,0.0,0.0,0.0,0.0,0.0,0.0,0.0,0.0,
1.5662,1.7512418865190917,1.7512418865190917,1.7406117972368977,0.0,0.0,0.0,1.7476985234250269,0.0,0.0,0.0,0.0,0.0,0.0,0.0,0.0,0.0,0.0,0.0,0.0,0.0,0.0,
1.5827,1.7513583901188048,1.7513583901188048,1.7407261352249332,0.0,0.0,0.0,1.747814305154181,0.0,0.0,0.0,0.0,0.0,0.0,0.0,0.0,0.0,0.0,0.0,0.0,0.0,0.0,
1.5992,1.7514761587732233,1.7514761587732233,1.7408417146723236,0.0,0.0,0.0,1.7479313440729234,0.0,0.0,0.0,0.0,0.0,0.0,0.0,0.0,0.0,0.0,0.0,0.0,0.0,0.0,
1.6157,1.7515951938911314,1.7515951938911314,1.740958536959045,0.0,0.0,0.0,1.7480496415804359,0.0,0.0,0.0,0.0,0.0,0.0,0.0,0.0,0.0,0.0,0.0,0.0,0.0,0.0,
1.6322,1.7517154968974444,1.7517154968974444,1.7410766034808831,0.0,0.0,0.0,1.7481691990919241,0.0,0.0,0.0,0.0,0.0,0.0,0.0,0.0,0.0,0.0,0.0,0.0,0.0,0.0,
1.6487,1.7518370692332796,1.7518370692332796,1.7411959156494905,0.0,0.0,0.0,1.7482900180386833,0.0,0.0,0.0,0.0,0.0,0.0,0.0,0.0,0.0,0.0,0.0,0.0,0.0,0.0,
1.6652,1.7519599123560048,1.7519599123560048,1.7413164748924304,0.0,0.0,0.0,1.7484120998681467,0.0,0.0,0.0,0.0,0.0,0.0,0.0,0.0,0.0,0.0,0.0,0.0,0.0,0.0,
1.6816,1.7520832716899029,1.7520832716899029,1.7414375406609843,0.0,0.0,0.0,1.7485346946802636,0.0,0.0,0.0,0.0,0.0,0.0,0.0,0.0,0.0,0.0,0.0,0.0,0.0,0.0,
1.6981,1.7522086530995278,1.7522086530995278,1.7415605908190972,0.0,0.0,0.0,1.748659299006051,0.0,0.0,0.0,0.0,0.0,0.0,0.0,0.0,0.0,0.0,0.0,0.0,0.0,0.0,
1.7146,1.7523353097569523,1.7523353097569523,1.7416848924211874,0.0,0.0,0.0,1.7487851706450306,0.0,0.0,0.0,0.0,0.0,0.0,0.0,0.0,0.0,0.0,0.0,0.0,0.0,0.0,
1.7311,1.7524632431849407,1.7524632431849407,1.7418104469588602,0.0,0.0,0.0,1.7489123111095806,0.0,0.0,0.0,0.0,0.0,0.0,0.0,0.0,0.0,0.0,0.0,0.0,0.0,0.0,
1.7476,1.7525924549227594,1.7525924549227594,1.741937255939899,0.0,0.0,0.0,1.7490407219284725,0.0,0.0,0.0,0.0,0.0,0.0,0.0,0.0,0.0,0.0,0.0,0.0,0.0,0.0,
1.7641,1.752722946526255,1.752722946526255,1.742065320888291,0.0,0.0,0.0,1.7491704046469339,0.0,0.0,0.0,0.0,0.0,0.0,0.0,0.0,0.0,0.0,0.0,0.0,0.0,0.0,
1.7806,1.752854719567872,1.752854719567872,1.7421946433442939,0.0,0.0,0.0,1.7493013608266794,0.0,0.0,0.0,0.0,0.0,0.0,0.0,0.0,0.0,0.0,0.0,0.0,0.0,0.0,
1.797,1.7529869653687062,1.7529869653687062,1.7423244296659879,0.0,0.0,0.0,1.7494327868011335,0.0,0.0,0.0,0.0,0.0,0.0,0.0,0.0,0.0,0.0,0.0,0.0,0.0,0.0,
1.8135,1.7531212982801234,1.7531212982801234,1.7424562641783776,0.0,0.0,0.0,1.7495662869128747,0.0,0.0,0.0,0.0,0.0,0.0,0.0,0.0,0.0,0.0,0.0,0.0,0.0,0.0,
1.83,1.7532569174373733,1.7532569174373733,1.742589360907661,0.0,0.0,0.0,1.7497010652608027,0.0,0.0,0.0,0.0,0.0,0.0,0.0,0.0,0.0,0.0,0.0,0.0,0.0,0.0,
1.8465,1.7533938244798213,1.7533938244798213,1.7427237214596376,0.0,0.0,0.0,1.7498371234730934,0.0,0.0,0.0,0.0,0.0,0.0,0.0,0.0,0.0,0.0,0.0,0.0,0.0,0.0,
1.863,1.7535320210637435,1.7535320210637435,1.742859347456656,0.0,0.0,0.0,1.7499744631947145,0.0,0.0,0.0,0.0,0.0,0.0,0.0,0.0,0.0,0.0,0.0,0.0,0.0,0.0,
1.8795,1.753671508862356,1.753671508862356,1.7429962405376627,0.0,0.0,0.0,1.750113086087458,0.0,0.0,0.0,0.0,0.0,0.0,0.0,0.0,0.0,0.0,0.0,0.0,0.0,0.0,
1.896,1.753812289565908,1.753812289565908,1.7431344023582742,0.0,0.0,0.0,1.7502529938300302,0.0,0.0,0.0,0.0,0.0,0.0,0.0,0.0,0.0,0.0,0.0,0.0,0.0,0.0,
1.9125,1.753954364881711,1.753954364881711,1.7432738345908265,0.0,0.0,0.0,1.750394188118083,0.0,0.0,0.0,0.0,0.0,0.0,0.0,0.0,0.0,0.0,0.0,0.0,0.0,0.0,
1.9289,1.7540968637071566,1.7540968637071566,1.7434136823360014,0.0,0.0,0.0,1.7505358032501048,0.0,0.0,0.0,0.0,0.0,0.0,0.0,0.0,0.0,0.0,0.0,0.0,0.0,0.0,
1.9454,1.7542415255656127,1.7542415255656127,1.74355565275141,0.0,0.0,0.0,1.7506795679608784,0.0,0.0,0.0,0.0,0.0,0.0,0.0,0.0,0.0,0.0,0.0,0.0,0.0,0.0,
1.9619,1.7543874872506344,1.7543874872506344,1.7436988986862063,0.0,0.0,0.0,1.7508246243958252,0.0,0.0,0.0,0.0,0.0,0.0,0.0,0.0,0.0,0.0,0.0,0.0,0.0,0.0,
1.9784,1.7545347505383537,1.7545347505383537,1.7438434218801087,0.0,0.0,0.0,1.7509709743189388,0.0,0.0,0.0,0.0,0.0,0.0,0.0,0.0,0.0,0.0,0.0,0.0,0.0,0.0,
1.9949,1.7546833172222935,1.7546833172222935,1.743989224089869,0.0,0.0,0.0,1.7511186195114854,0.0,0.0,0.0,0.0,0.0,0.0,0.0,0.0,0.0,0.0,0.0,0.0,0.0,0.0,
2.0114,1.7548331891134201,1.7548331891134201,1.7441363070893183,0.0,0.0,0.0,1.751267561772053,0.0,0.0,0.0,0.0,0.0,0.0,0.0,0.0,0.0,0.0,0.0,0.0,0.0,0.0,
2.0279,1.7549843680402302,1.7549843680402302,1.7442846726694472,0.0,0.0,0.0,1.7514178029166356,0.0,0.0,0.0,0.0,0.0,0.0,0.0,0.0,0.0,0.0,0.0,0.0,0.0,0.0,
2.0443,1.755135927734251,1.755135927734251,1.7444334117968012,0.0,0.0,0.0,1.7515684224217678,0.0,0.0,0.0,0.0,0.0,0.0,0.0,0.0,0.0,0.0,0.0,0.0,0.0,0.0,
2.0608,1.7552897183387084,1.7552897183387084,1.7445843401793955,0.0,0.0,0.0,1.7517212589522708,0.0,0.0,0.0,0.0,0.0,0.0,0.0,0.0,0.0,0.0,0.0,0.0,0.0,0.0,
2.0773,1.7554448215586,1.7554448215586,1.744736556607958,0.0,0.0,0.0,1.7518753999083863,0.0,0.0,0.0,0.0,0.0,0.0,0.0,0.0,0.0,0.0,0.0,0.0,0.0,0.0,
2.0938,1.7556012392930325,1.7556012392930325,1.7448900629426325,0.0,0.0,0.0,1.7520308471762325,0.0,0.0,0.0,0.0,0.0,0.0,0.0,0.0,0.0,0.0,0.0,0.0,0.0,0.0,
2.1103,1.7557589734589627,1.7557589734589627,1.7450448610610185,0.0,0.0,0.0,1.752187602659648,0.0,0.0,0.0,0.0,0.0,0.0,0.0,0.0,0.0,0.0,0.0,0.0,0.0,0.0,
2.1268,1.7559180259912752,1.7559180259912752,1.7452009528582921,0.0,0.0,0.0,1.752345668280281,0.0,0.0,0.0,0.0,0.0,0.0,0.0,0.0,0.0,0.0,0.0,0.0,0.0,0.0,
