energies(eV),real_xx,real_yy,real_zz,real_xy,real_yz,real_xz,real_ave,imag_xx,imag_yy,imag_zz,imag_xy,imag_yz,imag_xz,imag_ave,absorption_xx,absorption_yy,absorption_zz,absorption_xy,absorption_yz,absorption_xz,absorption_ave,band_gap
0.0,2.6152025874751117,2.6152025874751117,3.7293874895016708,0.0,0.0,0.0,2.986597554817298,0.0,0.0,0.0,0.0,0.0,0.0,0.0,0.0,0.0,0.0,0.0,0.0,0.0,0.0,4.7075000000000005
0.018,2.615207904891782,2.615207904891782,3.7294007035175745,0.0,0.0,0.0,2.986605504433713,0.0,0.0,0.0,0.0,0.0,0.0,0.0,0.0,0.0,0.0,0.0,0.0,0.0,0.0,
0.036,2.6152238574680196,2.6152238574680196,3.7294403465954145,0.0,0.0,0.0,2.9866293538438176,0.0,0.0,0.0,0.0,0.0,0.0,0.0,0.0,0.0,0.0,0.0,0.0,0.0,0.0,
0.054,2.615250446182527,2.615250446182527,3.729506421825815,0.0,0.0,0.0,2.9866691047302893,0.0,0.0,0.0,0.0,0.0,0.0,0.0,0.0,0.0,0.0,0.0,0.0,0.0,0.0,
0.072,2.61528767266676,2.61528767266676,3.7295989343605798,0.0,0.0,0.0,2.986724759898033,0.0,0.0,0.0,0.0,0.0,0.0,0.0,0.0,0.0,0.0,0.0,0.0,0.0,0.0,
0.09,2.6153355392051574,2.6153355392051574,3.7297178914138547,0.0,0.0,0.0,2.986796323274723,0.0,0.0,0.0,0.0,0.0,0.0,0.0,0.0,0.0,0.0,0.0,0.0,0.0,0.0,
0.108,2.615394048735571,2.615394048735571,3.7298633022637397,0.0,0.0,0.0,2.9868837999116273,0.0,0.0,0.0,0.0,0.0,0.0,0.0,0.0,0.0,0.0,0.0,0.0,0.0,0.0,
0.126,2.6154632048498803,2.6154632048498803,3.730035178254355,0.0,0.0,0.0,2.986987195984705,0.0,0.0,0.0,0.0,0.0,0.0,0.0,0.0,0.0,0.0,0.0,0.0,0.0,0.0,
0.144,2.6155430117946166,2.6155430117946166,3.730233532798386,0.0,0.0,0.0,2.9871065187958727,0.0,0.0,0.0,0.0,0.0,0.0,0.0,0.0,0.0,0.0,0.0,0.0,0.0,0.0,
0.162,2.6156334744718297,2.6156334744718297,3.7304583813800694,0.0,0.0,0.0,2.9872417767745763,0.0,0.0,0.0,0.0,0.0,0.0,0.0,0.0,0.0,0.0,0.0,0.0,0.0,0.0,
0.18,2.61573459843993,2.61573459843993,3.73070974155873,0.0,0.0,0.0,2.98739297947953,0.0,0.0,0.0,0.0,0.0,0.0,0.0,0.0,0.0,0.0,0.0,0.0,0.0,0.0,
0.198,2.6158463899148607,2.6158463899148607,3.730987632972609,0.0,0.0,0.0,2.9875601376007768,0.0,0.0,0.0,0.0,0.0,0.0,0.0,0.0,0.0,0.0,0.0,0.0,0.0,0.0,
0.216,2.615968855771178,2.615968855771178,3.7312920773433738,0.0,0.0,0.0,2.98774326296191,0.0,0.0,0.0,0.0,0.0,0.0,0.0,0.0,0.0,0.0,0.0,0.0,0.0,0.0,
0.234,2.6161020035434213,2.6161020035434213,3.7316230984809295,0.0,0.0,0.0,2.9879423685225905,0.0,0.0,0.0,0.0,0.0,0.0,0.0,0.0,0.0,0.0,0.0,0.0,0.0,0.0,
0.252,2.6162458414275025,2.6162458414275025,3.7319807222887764,0.0,0.0,0.0,2.98815746838126,0.0,0.0,0.0,0.0,0.0,0.0,0.0,0.0,0.0,0.0,0.0,0.0,0.0,0.0,
0.27,2.6164003782823224,2.6164003782823224,3.732364976769875,0.0,0.0,0.0,2.988388577778173,0.0,0.0,0.0,0.0,0.0,0.0,0.0,0.0,0.0,0.0,0.0,0.0,0.0,0.0,
0.288,2.6165656236314163,2.6165656236314163,3.7327758920329446,0.0,0.0,0.0,2.988635713098592,0.0,0.0,0.0,0.0,0.0,0.0,0.0,0.0,0.0,0.0,0.0,0.0,0.0,0.0,
0.306,2.6167415876648246,2.6167415876648246,3.7332135002991875,0.0,0.0,0.0,2.988898891876279,0.0,0.0,0.0,0.0,0.0,0.0,0.0,0.0,0.0,0.0,0.0,0.0,0.0,0.0,
0.324,2.6169282812409627,2.6169282812409627,3.7336778359096163,0.0,0.0,0.0,2.9891781327971807,0.0,0.0,0.0,0.0,0.0,0.0,0.0,0.0,0.0,0.0,0.0,0.0,0.0,0.0,
0.342,2.6171257158887533,2.6171257158887533,3.7341689353328196,0.0,0.0,0.0,2.989473455703442,0.0,0.0,0.0,0.0,0.0,0.0,0.0,0.0,0.0,0.0,0.0,0.0,0.0,0.0,
0.36,2.6173339038098513,2.6173339038098513,3.7346868371731667,0.0,0.0,0.0,2.989784881597623,0.0,0.0,0.0,0.0,0.0,0.0,0.0,0.0,0.0,0.0,0.0,0.0,0.0,0.0,
0.378,2.6175528578809484,2.6175528578809484,3.735231582179634,0.0,0.0,0.0,2.9901124326471766,0.0,0.0,0.0,0.0,0.0,0.0,0.0,0.0,0.0,0.0,0.0,0.0,0.0,0.0,
0.396,2.617782591656248,2.617782591656248,3.7358032132549326,0.0,0.0,0.0,2.9904561321891427,0.0,0.0,0.0,0.0,0.0,0.0,0.0,0.0,0.0,0.0,0.0,0.0,0.0,0.0,
0.414,2.6180231193701076,2.6180231193701076,3.7364017754653163,0.0,0.0,0.0,2.990816004735177,0.0,0.0,0.0,0.0,0.0,0.0,0.0,0.0,0.0,0.0,0.0,0.0,0.0,0.0,
0.432,2.6182744559397624,2.6182744559397624,3.737027316050931,0.0,0.0,0.0,2.991192075976819,0.0,0.0,0.0,0.0,0.0,0.0,0.0,0.0,0.0,0.0,0.0,0.0,0.0,0.0,
0.45,2.6185366169681936,2.6185366169681936,3.7376798844363917,0.0,0.0,0.0,2.991584372790926,0.0,0.0,0.0,0.0,0.0,0.0,0.0,0.0,0.0,0.0,0.0,0.0,0.0,0.0,
0.468,2.618809618747169,2.618809618747169,3.7383595322422325,0.0,0.0,0.0,2.991992923245524,0.0,0.0,0.0,0.0,0.0,0.0,0.0,0.0,0.0,0.0,0.0,0.0,0.0,0.0,
0.486,2.6190934782603676,2.6190934782603676,3.739066313296646,0.0,0.0,0.0,2.992417756605794,0.0,0.0,0.0,0.0,0.0,0.0,0.0,0.0,0.0,0.0,0.0,0.0,0.0,0.0,
0.504,2.6193882131867205,2.6193882131867205,3.739800283647823,0.0,0.0,0.0,2.992858903340421,0.0,0.0,0.0,0.0,0.0,0.0,0.0,0.0,0.0,0.0,0.0,0.0,0.0,0.0,
0.522,2.619693841903796,2.619693841903796,3.7405615015768707,0.0,0.0,0.0,2.9933163951281543,0.0,0.0,0.0,0.0,0.0,0.0,0.0,0.0,0.0,0.0,0.0,0.0,0.0,0.0,
0.54,2.6200103834914126,2.6200103834914126,3.7413500276111766,0.0,0.0,0.0,2.9937902648646673,0.0,0.0,0.0,0.0,0.0,0.0,0.0,0.0,0.0,0.0,0.0,0.0,0.0,0.0,
0.558,2.6203378577353753,2.6203378577353753,3.742165924538344,0.0,0.0,0.0,2.9942805466696982,0.0,0.0,0.0,0.0,0.0,0.0,0.0,0.0,0.0,0.0,0.0,0.0,0.0,0.0,
0.576,2.620676285131307,2.620676285131307,3.743009257420864,0.0,0.0,0.0,2.994787275894493,0.0,0.0,0.0,0.0,0.0,0.0,0.0,0.0,0.0,0.0,0.0,0.0,0.0,0.0,
0.594,2.6210256868886375,2.6210256868886375,3.7438800936109526,0.0,0.0,0.0,2.995310489129409,0.0,0.0,0.0,0.0,0.0,0.0,0.0,0.0,0.0,0.0,0.0,0.0,0.0,0.0,
0.612,2.6213860849349024,2.6213860849349024,3.744778502766435,0.0,0.0,0.0,2.9958502242120795,0.0,0.0,0.0,0.0,0.0,0.0,0.0,0.0,0.0,0.0,0.0,0.0,0.0,0.0,
0.63,2.621757501919914,2.621757501919914,3.7457045568667677,0.0,0.0,0.0,2.996406520235532,0.0,0.0,0.0,0.0,0.0,0.0,0.0,0.0,0.0,0.0,0.0,0.0,0.0,0.0,
0.648,2.6221399612202743,2.6221399612202743,3.7466583302299865,0.0,0.0,0.0,2.996979417556845,0.0,0.0,0.0,0.0,0.0,0.0,0.0,0.0,0.0,0.0,0.0,0.0,0.0,0.0,
0.666,2.622533486944042,2.622533486944042,3.7476398995299953,0.0,0.0,0.0,2.9975689578060263,0.0,0.0,0.0,0.0,0.0,0.0,0.0,0.0,0.0,0.0,0.0,0.0,0.0,0.0,
0.684,2.622938103935483,2.622938103935483,3.7486493438145967,0.0,0.0,0.0,2.9981751838951873,0.0,0.0,0.0,0.0,0.0,0.0,0.0,0.0,0.0,0.0,0.0,0.0,0.0,0.0,
0.702,2.6233538377799803,2.6233538377799803,3.7496867445241495,0.0,0.0,0.0,2.9987981400280366,0.0,0.0,0.0,0.0,0.0,0.0,0.0,0.0,0.0,0.0,0.0,0.0,0.0,0.0,
0.72,2.623780714809186,2.623780714809186,3.750752185510666,0.0,0.0,0.0,2.9994378717096795,0.0,0.0,0.0,0.0,0.0,0.0,0.0,0.0,0.0,0.0,0.0,0.0,0.0,0.0,
0.738,2.6242187621062314,2.6242187621062314,3.751845753057781,0.0,0.0,0.0,3.000094425756748,0.0,0.0,0.0,0.0,0.0,0.0,0.0,0.0,0.0,0.0,0.0,0.0,0.0,0.0,
0.756,2.6246680075112105,2.6246680075112105,3.7529675359011296,0.0,0.0,0.0,3.00076785030785,0.0,0.0,0.0,0.0,0.0,0.0,0.0,0.0,0.0,0.0,0.0,0.0,0.0,0.0,
0.774,2.625128479626718,2.625128479626718,3.7541176252495716,0.0,0.0,0.0,3.001458194834336,0.0,0.0,0.0,0.0,0.0,0.0,0.0,0.0,0.0,0.0,0.0,0.0,0.0,0.0,
0.792,2.6256002078236382,2.6256002078236382,3.7552961148068706,0.0,0.0,0.0,3.002165510151382,0.0,0.0,0.0,0.0,0.0,0.0,0.0,0.0,0.0,0.0,0.0,0.0,0.0,0.0,
0.81,2.626083222247107,2.626083222247107,3.7565031007942813,0.0,0.0,0.0,3.0028898484294984,0.0,0.0,0.0,0.0,0.0,0.0,0.0,0.0,0.0,0.0,0.0,0.0,0.0,0.0,
0.828,2.6265775538225986,2.6265775538225986,3.7577386819735037,0.0,0.0,0.0,3.0036312632062336,0.0,0.0,0.0,0.0,0.0,0.0,0.0,0.0,0.0,0.0,0.0,0.0,0.0,0.0,
0.846,2.6270832342621953,2.6270832342621953,3.7590029596706795,0.0,0.0,0.0,3.0043898093983565,0.0,0.0,0.0,0.0,0.0,0.0,0.0,0.0,0.0,0.0,0.0,0.0,0.0,0.0,
0.864,2.6276002960710905,2.6276002960710905,3.760296037800802,0.0,0.0,0.0,3.005165543314328,0.0,0.0,0.0,0.0,0.0,0.0,0.0,0.0,0.0,0.0,0.0,0.0,0.0,0.0,
0.882,2.628128772554237,2.628128772554237,3.7616180228930274,0.0,0.0,0.0,3.0059585226671666,0.0,0.0,0.0,0.0,0.0,0.0,0.0,0.0,0.0,0.0,0.0,0.0,0.0,0.0,
0.9,2.6286686978231772,2.6286686978231772,3.7629690241166083,0.0,0.0,0.0,3.0067688065876546,0.0,0.0,0.0,0.0,0.0,0.0,0.0,0.0,0.0,0.0,0.0,0.0,0.0,0.0,
0.918,2.6292201068030874,2.6292201068030874,3.764349153307576,0.0,0.0,0.0,3.0075964556379167,0.0,0.0,0.0,0.0,0.0,0.0,0.0,0.0,0.0,0.0,0.0,0.0,0.0,0.0,
0.936,2.62978303523997,2.62978303523997,3.7657585249962473,0.0,0.0,0.0,3.0084415318253956,0.0,0.0,0.0,0.0,0.0,0.0,0.0,0.0,0.0,0.0,0.0,0.0,0.0,0.0,
0.954,2.6303575197081437,2.6303575197081437,3.7671972564354976,0.0,0.0,0.0,3.0093040986172617,0.0,0.0,0.0,0.0,0.0,0.0,0.0,0.0,0.0,0.0,0.0,0.0,0.0,0.0,
0.972,2.630943597617728,2.630943597617728,3.768665467629638,0.0,0.0,0.0,3.0101842209550314,0.0,0.0,0.0,0.0,0.0,0.0,0.0,0.0,0.0,0.0,0.0,0.0,0.0,0.0,
0.99,2.631541307222641,2.631541307222641,3.7701632813644,0.0,0.0,0.0,3.0110819652698937,0.0,0.0,0.0,0.0,0.0,0.0,0.0,0.0,0.0,0.0,0.0,0.0,0.0,0.0,
1.008,2.6321506876284513,2.6321506876284513,3.771690823237424,0.0,0.0,0.0,3.011997399498109,0.0,0.0,0.0,0.0,0.0,0.0,0.0,0.0,0.0,0.0,0.0,0.0,0.0,0.0,
1.026,2.632771778800752,2.632771778800752,3.7732482216898307,0.0,0.0,0.0,3.0129305930971113,0.0,0.0,0.0,0.0,0.0,0.0,0.0,0.0,0.0,0.0,0.0,0.0,0.0,0.0,
1.044,2.633404621573523,2.633404621573523,3.7748356080384564,0.0,0.0,0.0,3.013881617061834,0.0,0.0,0.0,0.0,0.0,0.0,0.0,0.0,0.0,0.0,0.0,0.0,0.0,0.0,
1.062,2.6340492576578654,2.6340492576578654,3.7764531165090376,0.0,0.0,0.0,3.0148505439415896,0.0,0.0,0.0,0.0,0.0,0.0,0.0,0.0,0.0,0.0,0.0,0.0,0.0,0.0,
1.0799,2.6347020498098694,2.6347020498098694,3.778091646162392,0.0,0.0,0.0,3.0158319152607103,0.0,0.0,0.0,0.0,0.0,0.0,0.0,0.0,0.0,0.0,0.0,0.0,0.0,0.0,
1.0979,2.6353703350851525,2.6353703350851525,3.7797696440825876,0.0,0.0,0.0,3.016836771417631,0.0,0.0,0.0,0.0,0.0,0.0,0.0,0.0,0.0,0.0,0.0,0.0,0.0,0.0,
1.1159,2.6360505439086657,2.6360505439086657,3.7814781837968297,0.0,0.0,0.0,3.0178597572047203,0.0,0.0,0.0,0.0,0.0,0.0,0.0,0.0,0.0,0.0,0.0,0.0,0.0,0.0,
1.1339,2.6367427215859367,2.6367427215859367,3.7832174114991224,0.0,0.0,0.0,3.0189009515569984,0.0,0.0,0.0,0.0,0.0,0.0,0.0,0.0,0.0,0.0,0.0,0.0,0.0,0.0,
1.1519,2.6374469143463175,2.6374469143463175,3.784987476471637,0.0,0.0,0.0,3.0199604350547573,0.0,0.0,0.0,0.0,0.0,0.0,0.0,0.0,0.0,0.0,0.0,0.0,0.0,0.0,
1.1699,2.6381631693529735,2.6381631693529735,3.78678853112346,0.0,0.0,0.0,3.0210382899431356,0.0,0.0,0.0,0.0,0.0,0.0,0.0,0.0,0.0,0.0,0.0,0.0,0.0,0.0,
1.1879,2.638891534713287,2.638891534713287,3.788620731030373,0.0,0.0,0.0,3.0221346001523153,0.0,0.0,0.0,0.0,0.0,0.0,0.0,0.0,0.0,0.0,0.0,0.0,0.0,0.0,
1.2059,2.6396320594893856,2.6396320594893856,3.7904842349755827,0.0,0.0,0.0,3.0232494513181183,0.0,0.0,0.0,0.0,0.0,0.0,0.0,0.0,0.0,0.0,0.0,0.0,0.0,0.0,
1.2239,2.6403847937089666,2.6403847937089666,3.792379204991531,0.0,0.0,0.0,3.0243829308031547,0.0,0.0,0.0,0.0,0.0,0.0,0.0,0.0,0.0,0.0,0.0,0.0,0.0,0.0,
1.2419,2.641149788376392,2.641149788376392,3.794305806402862,0.0,0.0,0.0,3.0255351277185487,0.0,0.0,0.0,0.0,0.0,0.0,0.0,0.0,0.0,0.0,0.0,0.0,0.0,0.0,
1.2599,2.641927095484034,2.641927095484034,3.7962642078703115,0.0,0.0,0.0,3.0267061329461264,0.0,0.0,0.0,0.0,0.0,0.0,0.0,0.0,0.0,0.0,0.0,0.0,0.0,0.0,
1.2779,2.6427167680240036,2.6427167680240036,3.798254581435891,0.0,0.0,0.0,3.0278960391612997,0.0,0.0,0.0,0.0,0.0,0.0,0.0,0.0,0.0,0.0,0.0,0.0,0.0,0.0,
1.2959,2.6435188599999604,2.6435188599999604,3.800277102569058,0.0,0.0,0.0,3.0291049408563264,0.0,0.0,0.0,0.0,0.0,0.0,0.0,0.0,0.0,0.0,0.0,0.0,0.0,0.0,
1.3139,2.644333426439388,2.644333426439388,3.8023319502142066,0.0,0.0,0.0,3.0303329343643277,0.0,0.0,0.0,0.0,0.0,0.0,0.0,0.0,0.0,0.0,0.0,0.0,0.0,0.0,
1.3319,2.6451605234060627,2.6451605234060627,3.804419306839259,0.0,0.0,0.0,3.031580117883795,0.0,0.0,0.0,0.0,0.0,0.0,0.0,0.0,0.0,0.0,0.0,0.0,0.0,0.0,
1.3499,2.646000208012926,2.646000208012926,3.8065393584854985,0.0,0.0,0.0,3.0328465915037834,0.0,0.0,0.0,0.0,0.0,0.0,0.0,0.0,0.0,0.0,0.0,0.0,0.0,0.0,
1.3679,2.6468525384351023,2.6468525384351023,3.8086922948187247,0.0,0.0,0.0,3.0341324572296435,0.0,0.0,0.0,0.0,0.0,0.0,0.0,0.0,0.0,0.0,0.0,0.0,0.0,0.0,
1.3859,2.6477175739234013,2.6477175739234013,3.8108783091816023,0.0,0.0,0.0,3.035437819009468,0.0,0.0,0.0,0.0,0.0,0.0,0.0,0.0,0.0,0.0,0.0,0.0,0.0,0.0,
1.4039,2.6485953748180266,2.6485953748180266,3.8130975986474054,0.0,0.0,0.0,3.0367627827611527,0.0,0.0,0.0,0.0,0.0,0.0,0.0,0.0,0.0,0.0,0.0,0.0,0.0,0.0,
1.4219,2.6494860025626745,2.6494860025626745,3.815350364075088,0.0,0.0,0.0,3.038107456400146,0.0,0.0,0.0,0.0,0.0,0.0,0.0,0.0,0.0,0.0,0.0,0.0,0.0,0.0,
1.4399,2.6503895197189458,2.6503895197189458,3.817636810165728,0.0,0.0,0.0,3.0394719498678735,0.0,0.0,0.0,0.0,0.0,0.0,0.0,0.0,0.0,0.0,0.0,0.0,0.0,0.0,
1.4579,2.6513059899810747,2.6513059899810747,3.819957145520407,0.0,0.0,0.0,3.040856375160852,0.0,0.0,0.0,0.0,0.0,0.0,0.0,0.0,0.0,0.0,0.0,0.0,0.0,0.0,
1.4759,2.6522354781910806,2.6522354781910806,3.822311582699583,0.0,0.0,0.0,3.042260846360582,0.0,0.0,0.0,0.0,0.0,0.0,0.0,0.0,0.0,0.0,0.0,0.0,0.0,0.0,
1.4939,2.65317805035421,2.65317805035421,3.8247003382838294,0.0,0.0,0.0,3.043685479664083,0.0,0.0,0.0,0.0,0.0,0.0,0.0,0.0,0.0,0.0,0.0,0.0,0.0,0.0,
1.5119,2.654133773654779,2.654133773654779,3.8271236329362592,0.0,0.0,0.0,3.0451303934152727,0.0,0.0,0.0,0.0,0.0,0.0,0.0,0.0,0.0,0.0,0.0,0.0,0.0,0.0,
1.5299,2.6551027164723777,2.6551027164723777,3.82958169146649,0.0,0.0,0.0,3.046595708137082,0.0,0.0,0.0,0.0,0.0,0.0,0.0,0.0,0.0,0.0,0.0,0.0,0.0,0.0,
1.5479,2.6560849483985063,2.6560849483985063,3.8320747428960718,0.0,0.0,0.0,3.0480815465643616,0.0,0.0,0.0,0.0,0.0,0.0,0.0,0.0,0.0,0.0,0.0,0.0,0.0,0.0,
1.5659,2.6570805402535242,2.6570805402535242,3.834603020525794,0.0,0.0,0.0,3.049588033677614,0.0,0.0,0.0,0.0,0.0,0.0,0.0,0.0,0.0,0.0,0.0,0.0,0.0,0.0,
1.5839,2.658089564104092,2.658089564104092,3.837166762004507,0.0,0.0,0.0,3.0511152967375637,0.0,0.0,0.0,0.0,0.0,0.0,0.0,0.0,0.0,0.0,0.0,0.0,0.0,0.0,
1.6019,2.6591120932809655,2.6591120932809655,3.8397662093998135,0.0,0.0,0.0,3.0526634653205815,0.0,0.0,0.0,0.0,0.0,0.0,0.0,0.0,0.0,0.0,0.0,0.0,0.0,0.0,
1.6199,2.660148202397252,2.660148202397252,3.842401609270427,0.0,0.0,0.0,3.0542326713549772,0.0,0.0,0.0,0.0,0.0,0.0,0.0,0.0,0.0,0.0,0.0,0.0,0.0,0.0,
1.6379,2.661197967367073,2.661197967367073,3.84507321274047,0.0,0.0,0.0,3.0558230491582052,0.0,0.0,0.0,0.0,0.0,0.0,0.0,0.0,0.0,0.0,0.0,0.0,0.0,0.0,
1.6559,2.662261465424697,2.662261465424697,3.8477812755756546,0.0,0.0,0.0,3.057434735475016,0.0,0.0,0.0,0.0,0.0,0.0,0.0,0.0,0.0,0.0,0.0,0.0,0.0,0.0,
1.6739,2.663338775144137,2.663338775144137,3.850526058261292,0.0,0.0,0.0,3.0590678695165217,0.0,0.0,0.0,0.0,0.0,0.0,0.0,0.0,0.0,0.0,0.0,0.0,0.0,0.0,
1.6919,2.664429976459189,2.664429976459189,3.8533078260824216,0.0,0.0,0.0,3.0607225930002664,0.0,0.0,0.0,0.0,0.0,0.0,0.0,0.0,0.0,0.0,0.0,0.0,0.0,0.0,
1.7099,2.6655351506839517,2.6655351506839517,3.856126849205886,0.0,0.0,0.0,3.0623990501912632,0.0,0.0,0.0,0.0,0.0,0.0,0.0,0.0,0.0,0.0,0.0,0.0,0.0,0.0,
1.7279,2.6666543805338927,2.6666543805338927,3.858983402764622,0.0,0.0,0.0,3.0640973879441358,0.0,0.0,0.0,0.0,0.0,0.0,0.0,0.0,0.0,0.0,0.0,0.0,0.0,0.0,
1.7459,2.667787750147345,2.667787750147345,3.861877766943964,0.0,0.0,0.0,3.065817755746218,0.0,0.0,0.0,0.0,0.0,0.0,0.0,0.0,0.0,0.0,0.0,0.0,0.0,0.0,
1.7639,2.668935345107618,2.668935345107618,3.8648102270703233,0.0,0.0,0.0,3.067560305761853,0.0,0.0,0.0,0.0,0.0,0.0,0.0,0.0,0.0,0.0,0.0,0.0,0.0,0.0,
1.7819,2.6700972524654922,2.6700972524654922,3.8677810737019893,0.0,0.0,0.0,3.069325192877658,0.0,0.0,0.0,0.0,0.0,0.0,0.0,0.0,0.0,0.0,0.0,0.0,0.0,0.0,
1.7999,2.6712735607624696,2.6712735607624696,3.8707906027224523,0.0,0.0,0.0,3.071112574749131,0.0,0.0,0.0,0.0,0.0,0.0,0.0,0.0,0.0,0.0,0.0,0.0,0.0,0.0,
1.8179,2.6724643600543807,2.6724643600543807,3.873839115435986,0.0,0.0,0.0,3.072922611848249,0.0,0.0,0.0,0.0,0.0,0.0,0.0,0.0,0.0,0.0,0.0,0.0,0.0,0.0,
1.8359,2.673669741935737,2.673669741935737,3.876926918665879,0.0,0.0,0.0,3.074755467512451,0.0,0.0,0.0,0.0,0.0,0.0,0.0,0.0,0.0,0.0,0.0,0.0,0.0,0.0,
1.8539,2.6748897995645398,2.6748897995645398,3.880054324855033,0.0,0.0,0.0,3.0766113079947046,0.0,0.0,0.0,0.0,0.0,0.0,0.0,0.0,0.0,0.0,0.0,0.0,0.0,0.0,
1.8719,2.6761246276877637,2.6761246276877637,3.8832216521693077,0.0,0.0,0.0,3.078490302514945,0.0,0.0,0.0,0.0,0.0,0.0,0.0,0.0,0.0,0.0,0.0,0.0,0.0,0.0,
1.8899,2.6773743226675286,2.6773743226675286,3.88642922460363,0.0,0.0,0.0,3.0803926233128958,0.0,0.0,0.0,0.0,0.0,0.0,0.0,0.0,0.0,0.0,0.0,0.0,0.0,0.0,
1.9079,2.6786389825077723,2.6786389825077723,3.889677372090771,0.0,0.0,0.0,3.0823184457021053,0.0,0.0,0.0,0.0,0.0,0.0,0.0,0.0,0.0,0.0,0.0,0.0,0.0,0.0,
1.9259,2.6799187068816535,2.6799187068816535,3.8929664306130456,0.0,0.0,0.0,3.0842679481254507,0.0,0.0,0.0,0.0,0.0,0.0,0.0,0.0,0.0,0.0,0.0,0.0,0.0,0.0,
1.9439,2.6812135971597515,2.6812135971597515,3.896296742316981,0.0,0.0,0.0,3.0862413122121612,0.0,0.0,0.0,0.0,0.0,0.0,0.0,0.0,0.0,0.0,0.0,0.0,0.0,0.0,
1.9619,2.682523756438675,2.682523756438675,3.899668655631042,0.0,0.0,0.0,3.088238722836131,0.0,0.0,0.0,0.0,0.0,0.0,0.0,0.0,0.0,0.0,0.0,0.0,0.0,0.0,
1.9799,2.6838492895707313,2.6838492895707313,3.903082525386447,0.0,0.0,0.0,3.09026036817597,0.0,0.0,0.0,0.0,0.0,0.0,0.0,0.0,0.0,0.0,0.0,0.0,0.0,0.0,
1.9979,2.685190303194039,2.685190303194039,3.906538712941268,0.0,0.0,0.0,3.092306439776449,0.0,0.0,0.0,0.0,0.0,0.0,0.0,0.0,0.0,0.0,0.0,0.0,0.0,0.0,
2.0159,2.6865469057636107,2.6865469057636107,3.9100375863078676,0.0,0.0,0.0,3.094377132611696,0.0,0.0,0.0,0.0,0.0,0.0,0.0,0.0,0.0,0.0,0.0,0.0,0.0,0.0,
2.0339,2.687919207583106,2.687919207583106,3.9135795202836916,0.0,0.0,0.0,3.096472645149968,0.0,0.0,0.0,0.0,0.0,0.0,0.0,0.0,0.0,0.0,0.0,0.0,0.0,0.0,
2.0519,2.6893073208373983,2.6893073208373983,3.9171648965857657,0.0,0.0,0.0,3.0985931794201877,0.0,0.0,0.0,0.0,0.0,0.0,0.0,0.0,0.0,0.0,0.0,0.0,0.0,0.0,
2.0699,2.6907113596259924,2.6907113596259924,3.920794103988591,0.0,0.0,0.0,3.1007389410801918,0.0,0.0,0.0,0.0,0.0,0.0,0.0,0.0,0.0,0.0,0.0,0.0,0.0,0.0,
2.0879,2.6921314399973033,2.6921314399973033,3.924467538466128,0.0,0.0,0.0,3.102910139486912,0.0,0.0,0.0,0.0,0.0,0.0,0.0,0.0,0.0,0.0,0.0,0.0,0.0,0.0,
2.1059,2.6935676799837536,2.6935676799837536,3.928185603337439,0.0,0.0,0.0,3.1051069877683157,0.0,0.0,0.0,0.0,0.0,0.0,0.0,0.0,0.0,0.0,0.0,0.0,0.0,0.0,
2.1239,2.695020199637829,2.695020199637829,3.931948709416348,0.0,0.0,0.0,3.107329702897335,0.0,0.0,0.0,0.0,0.0,0.0,0.0,0.0,0.0,0.0,0.0,0.0,0.0,0.0,
2.1419,2.696489121069093,2.696489121069093,3.935757275165359,0.0,0.0,0.0,3.1095785057678484,0.0,0.0,0.0,0.0,0.0,0.0,0.0,0.0,0.0,0.0,0.0,0.0,0.0,0.0,
2.1599,2.697974568482003,2.697974568482003,3.9396117268538156,0.0,0.0,0.0,3.111853621272607,0.0,0.0,0.0,0.0,0.0,0.0,0.0,0.0,0.0,0.0,0.0,0.0,0.0,0.0,
2.1779,2.699476668214913,2.699476668214913,3.9435124987203443,0.0,0.0,0.0,3.11415527838339,0.0,0.0,0.0,0.0,0.0,0.0,0.0,0.0,0.0,0.0,0.0,0.0,0.0,0.0,
2.1959,2.7009955487799466,2.7009955487799466,3.947460033140015,0.0,0.0,0.0,3.1164837102333025,0.0,0.0,0.0,0.0,0.0,0.0,0.0,0.0,0.0,0.0,0.0,0.0,0.0,0.0,
2.2139,2.7025313409039886,2.7025313409039886,3.951454780796137,0.0,0.0,0.0,3.118839154201371,0.0,0.0,0.0,0.0,0.0,0.0,0.0,0.0,0.0,0.0,0.0,0.0,0.0,0.0,
2.2319,2.7040841775706785,2.7040841775706785,3.955497200856874,0.0,0.0,0.0,3.1212218519994104,0.0,0.0,0.0,0.0,0.0,0.0,0.0,0.0,0.0,0.0,0.0,0.0,0.0,0.0,
2.2499,2.7056541940636523,2.7056541940636523,3.95958776115693,0.0,0.0,0.0,3.1236320497614116,0.0,0.0,0.0,0.0,0.0,0.0,0.0,0.0,0.0,0.0,0.0,0.0,0.0,0.0,
2.2679,2.7072415280107682,2.7072415280107682,3.9637269383843954,0.0,0.0,0.0,3.1260699981353106,0.0,0.0,0.0,0.0,0.0,0.0,0.0,0.0,0.0,0.0,0.0,0.0,0.0,0.0,
2.2859,2.7088463194296644,2.7088463194296644,3.967915218273031,0.0,0.0,0.0,3.128535952377453,0.0,0.0,0.0,0.0,0.0,0.0,0.0,0.0,0.0,0.0,0.0,0.0,0.0,0.0,
2.3039,2.710468710774371,2.710468710774371,3.9721530957999356,0.0,0.0,0.0,3.1310301724495595,0.0,0.0,0.0,0.0,0.0,0.0,0.0,0.0,0.0,0.0,0.0,0.0,0.0,0.0,
2.3219,2.7121088469833516,2.7121088469833516,3.9764410753890322,0.0,0.0,0.0,3.133552923118579,0.0,0.0,0.0,0.0,0.0,0.0,0.0,0.0,0.0,0.0,0.0,0.0,0.0,0.0,
2.3399,2.7137668755287265,2.7137668755287265,3.9807796711205854,0.0,0.0,0.0,3.136104474059346,0.0,0.0,0.0,0.0,0.0,0.0,0.0,0.0,0.0,0.0,0.0,0.0,0.0,0.0,
