energies(eV),real_xx,real_yy,real_zz,real_xy,real_yz,real_xz,real_ave,imag_xx,imag_yy,imag_zz,imag_xy,imag_yz,imag_xz,imag_ave,absorption_xx,absorption_yy,absorption_zz,absorption_xy,absorption_yz,absorption_xz,absorption_ave,band_gap
0.0,2.3315034931590413,2.3315034931590413,2.3340891948456415,0.0,0.0,0.0,2.332365393721241,0.0,0.0,0.0,0.0,0.0,0.0,0.0,0.0,0.0,0.0,0.0,0.0,0.0,0.0,8.0665
0.0243,2.331507239339399,2.331507239339399,2.3340930299379448,0.0,0.0,0.0,2.3323691695389144,0.0,0.0,0.0,0.0,0.0,0.0,0.0,0.0,0.0,0.0,0.0,0.0,0.0,0.0,
0.0487,2.3315185397828246,2.3315185397828246,2.334104598594859,0.0,0.0,0.0,2.332380559386836,0.0,0.0,0.0,0.0,0.0,0.0,0.0,0.0,0.0,0.0,0.0,0.0,0.0,0.0,
0.073,2.3315373023804113,2.3315373023804113,2.3341238065465086,0.0,0.0,0.0,2.332399470435777,0.0,0.0,0.0,0.0,0.0,0.0,0.0,0.0,0.0,0.0,0.0,0.0,0.0,0.0,
0.0973,2.3315635588886674,2.3315635588886674,2.3341506863450423,0.0,0.0,0.0,2.332425934707459,0.0,0.0,0.0,0.0,0.0,0.0,0.0,0.0,0.0,0.0,0.0,0.0,0.0,0.0,
0.1216,2.3315973105114454,2.3315973105114454,2.334185239281556,0.0,0.0,0.0,2.3324599534348156,0.0,0.0,0.0,0.0,0.0,0.0,0.0,0.0,0.0,0.0,0.0,0.0,0.0,0.0,
0.146,2.3316387440336586,2.3316387440336586,2.3342276566520272,0.0,0.0,0.0,2.332501714906448,0.0,0.0,0.0,0.0,0.0,0.0,0.0,0.0,0.0,0.0,0.0,0.0,0.0,0.0,
0.1703,2.331687521735231,2.331687521735231,2.3342775928097463,0.0,0.0,0.0,2.3325508787600695,0.0,0.0,0.0,0.0,0.0,0.0,0.0,0.0,0.0,0.0,0.0,0.0,0.0,0.0,
0.1946,2.331743800236741,2.331743800236741,2.334335208203094,0.0,0.0,0.0,2.332607602892192,0.0,0.0,0.0,0.0,0.0,0.0,0.0,0.0,0.0,0.0,0.0,0.0,0.0,0.0,
0.2189,2.331807582120294,2.331807582120294,2.3344005056015202,0.0,0.0,0.0,2.3326718899473695,0.0,0.0,0.0,0.0,0.0,0.0,0.0,0.0,0.0,0.0,0.0,0.0,0.0,0.0,
0.2433,2.331879179193063,2.331879179193063,2.3344738043670796,0.0,0.0,0.0,2.3327440542510685,0.0,0.0,0.0,0.0,0.0,0.0,0.0,0.0,0.0,0.0,0.0,0.0,0.0,0.0,
0.2676,2.331958007878262,2.331958007878262,2.3345545072131286,0.0,0.0,0.0,2.332823507656551,0.0,0.0,0.0,0.0,0.0,0.0,0.0,0.0,0.0,0.0,0.0,0.0,0.0,0.0,
0.2919,2.3320443497790344,2.3320443497790344,2.334642902611791,0.0,0.0,0.0,2.33291053405662,0.0,0.0,0.0,0.0,0.0,0.0,0.0,0.0,0.0,0.0,0.0,0.0,0.0,0.0,
0.3163,2.332138610649809,2.332138610649809,2.334739406167067,0.0,0.0,0.0,2.333005542488895,0.0,0.0,0.0,0.0,0.0,0.0,0.0,0.0,0.0,0.0,0.0,0.0,0.0,0.0,
0.3406,2.332240022189045,2.332240022189045,2.3348432315095473,0.0,0.0,0.0,2.3331077586292124,0.0,0.0,0.0,0.0,0.0,0.0,0.0,0.0,0.0,0.0,0.0,0.0,0.0,0.0,
0.3649,2.3323489599034364,2.3323489599034364,2.3349547633066132,0.0,0.0,0.0,2.3332175610378285,0.0,0.0,0.0,0.0,0.0,0.0,0.0,0.0,0.0,0.0,0.0,0.0,0.0,0.0,
0.3892,2.3324654288031095,2.3324654288031095,2.335074006933179,0.0,0.0,0.0,2.333334954846466,0.0,0.0,0.0,0.0,0.0,0.0,0.0,0.0,0.0,0.0,0.0,0.0,0.0,0.0,
0.4136,2.3325899601363558,2.3325899601363558,2.3352015065662055,0.0,0.0,0.0,2.333460475612972,0.0,0.0,0.0,0.0,0.0,0.0,0.0,0.0,0.0,0.0,0.0,0.0,0.0,0.0,
0.4379,2.3327215388834652,2.3327215388834652,2.335336223273343,0.0,0.0,0.0,2.3335931003467576,0.0,0.0,0.0,0.0,0.0,0.0,0.0,0.0,0.0,0.0,0.0,0.0,0.0,0.0,
0.4622,2.3328606659680524,2.3328606659680524,2.3354786702128107,0.0,0.0,0.0,2.3337333340496387,0.0,0.0,0.0,0.0,0.0,0.0,0.0,0.0,0.0,0.0,0.0,0.0,0.0,0.0,
0.4865,2.333007347801794,2.333007347801794,2.335628854264524,0.0,0.0,0.0,2.3338811832893707,0.0,0.0,0.0,0.0,0.0,0.0,0.0,0.0,0.0,0.0,0.0,0.0,0.0,0.0,
0.5109,2.333162241527198,2.333162241527198,2.335787448608803,0.0,0.0,0.0,2.3340373105544,0.0,0.0,0.0,0.0,0.0,0.0,0.0,0.0,0.0,0.0,0.0,0.0,0.0,0.0,
0.5352,2.3333240846656382,2.3333240846656382,2.335953160956586,0.0,0.0,0.0,2.3342004434292876,0.0,0.0,0.0,0.0,0.0,0.0,0.0,0.0,0.0,0.0,0.0,0.0,0.0,0.0,
0.5595,2.333493503936487,2.333493503936487,2.336126633364335,0.0,0.0,0.0,2.33437121374577,0.0,0.0,0.0,0.0,0.0,0.0,0.0,0.0,0.0,0.0,0.0,0.0,0.0,0.0,
0.5839,2.3336712512559536,2.3336712512559536,2.336308636142925,0.0,0.0,0.0,2.3345503795516107,0.0,0.0,0.0,0.0,0.0,0.0,0.0,0.0,0.0,0.0,0.0,0.0,0.0,0.0,
0.6082,2.333855877891488,2.333855877891488,2.3364976862816267,0.0,0.0,0.0,2.334736480688201,0.0,0.0,0.0,0.0,0.0,0.0,0.0,0.0,0.0,0.0,0.0,0.0,0.0,0.0,
0.6325,2.3340481052480557,2.3340481052480557,2.336694522873393,0.0,0.0,0.0,2.3349302444565017,0.0,0.0,0.0,0.0,0.0,0.0,0.0,0.0,0.0,0.0,0.0,0.0,0.0,0.0,
0.6568,2.3342479422269884,2.3342479422269884,2.336899155474226,0.0,0.0,0.0,2.3351316799760675,0.0,0.0,0.0,0.0,0.0,0.0,0.0,0.0,0.0,0.0,0.0,0.0,0.0,0.0,
0.6812,2.3344562675716904,2.3344562675716904,2.337112484401839,0.0,0.0,0.0,2.33534167318174,0.0,0.0,0.0,0.0,0.0,0.0,0.0,0.0,0.0,0.0,0.0,0.0,0.0,0.0,
0.7055,2.3346713833535064,2.3346713833535064,2.3373327714265386,0.0,0.0,0.0,2.335558512711184,0.0,0.0,0.0,0.0,0.0,0.0,0.0,0.0,0.0,0.0,0.0,0.0,0.0,0.0,
0.7298,2.334894137667961,2.334894137667961,2.3375608855021706,0.0,0.0,0.0,2.3357830536126976,0.0,0.0,0.0,0.0,0.0,0.0,0.0,0.0,0.0,0.0,0.0,0.0,0.0,0.0,
0.7541,2.335124540865378,2.335124540865378,2.3377968377441665,0.0,0.0,0.0,2.3360153064916407,0.0,0.0,0.0,0.0,0.0,0.0,0.0,0.0,0.0,0.0,0.0,0.0,0.0,0.0,
0.7785,2.3353635991842916,2.3353635991842916,2.338041659195901,0.0,0.0,0.0,2.336256285854828,0.0,0.0,0.0,0.0,0.0,0.0,0.0,0.0,0.0,0.0,0.0,0.0,0.0,0.0,
0.8028,2.3356093642517495,2.3356093642517495,2.338293355070058,0.0,0.0,0.0,2.336504027857852,0.0,0.0,0.0,0.0,0.0,0.0,0.0,0.0,0.0,0.0,0.0,0.0,0.0,0.0,
0.8271,2.335862811499635,2.335862811499635,2.338552924876465,0.0,0.0,0.0,2.3367595159585783,0.0,0.0,0.0,0.0,0.0,0.0,0.0,0.0,0.0,0.0,0.0,0.0,0.0,0.0,
0.8515,2.3361250433192744,2.3361250433192744,2.3388214982731776,0.0,0.0,0.0,2.3370238616372423,0.0,0.0,0.0,0.0,0.0,0.0,0.0,0.0,0.0,0.0,0.0,0.0,0.0,0.0,
0.8758,2.336393922506805,2.336393922506805,2.3390968869874813,0.0,0.0,0.0,2.33729491066703,0.0,0.0,0.0,0.0,0.0,0.0,0.0,0.0,0.0,0.0,0.0,0.0,0.0,0.0,
0.9001,2.3366705205130165,2.3366705205130165,2.3393801890007984,0.0,0.0,0.0,2.337573743342277,0.0,0.0,0.0,0.0,0.0,0.0,0.0,0.0,0.0,0.0,0.0,0.0,0.0,0.0,
0.9244,2.336954850283078,2.336954850283078,2.339671418225445,0.0,0.0,0.0,2.3378603729305336,0.0,0.0,0.0,0.0,0.0,0.0,0.0,0.0,0.0,0.0,0.0,0.0,0.0,0.0,
0.9488,2.337248143114287,2.337248143114287,2.3399718365642643,0.0,0.0,0.0,2.338156040930946,0.0,0.0,0.0,0.0,0.0,0.0,0.0,0.0,0.0,0.0,0.0,0.0,0.0,0.0,
0.9731,2.3375480087164284,2.3375480087164284,2.3402789963520156,0.0,0.0,0.0,2.338458337928291,0.0,0.0,0.0,0.0,0.0,0.0,0.0,0.0,0.0,0.0,0.0,0.0,0.0,0.0,
0.9974,2.3378556472478262,2.3378556472478262,2.3405941276027775,0.0,0.0,0.0,2.33876847403281,0.0,0.0,0.0,0.0,0.0,0.0,0.0,0.0,0.0,0.0,0.0,0.0,0.0,0.0,
1.0217,2.338171073175899,2.338171073175899,2.3409172458725505,0.0,0.0,0.0,2.3390864640747826,0.0,0.0,0.0,0.0,0.0,0.0,0.0,0.0,0.0,0.0,0.0,0.0,0.0,0.0,
1.0461,2.338495647651442,2.338495647651442,2.3412497463299093,0.0,0.0,0.0,2.3394136805442645,0.0,0.0,0.0,0.0,0.0,0.0,0.0,0.0,0.0,0.0,0.0,0.0,0.0,0.0,
1.0704,2.3388267255211135,2.3388267255211135,2.341588920009529,0.0,0.0,0.0,2.339747457017252,0.0,0.0,0.0,0.0,0.0,0.0,0.0,0.0,0.0,0.0,0.0,0.0,0.0,0.0,
1.0947,2.339165636575103,2.339165636575103,2.341936129954253,0.0,0.0,0.0,2.340089134368153,0.0,0.0,0.0,0.0,0.0,0.0,0.0,0.0,0.0,0.0,0.0,0.0,0.0,0.0,
1.1191,2.3395138400732005,2.3395138400732005,2.3422928720552756,0.0,0.0,0.0,2.3404401840672255,0.0,0.0,0.0,0.0,0.0,0.0,0.0,0.0,0.0,0.0,0.0,0.0,0.0,0.0,
1.1434,2.33986849836302,2.33986849836302,2.3426562399235378,0.0,0.0,0.0,2.340797745549859,0.0,0.0,0.0,0.0,0.0,0.0,0.0,0.0,0.0,0.0,0.0,0.0,0.0,0.0,
1.1677,2.3402310391619743,2.3402310391619743,2.343027697130011,0.0,0.0,0.0,2.341163258484653,0.0,0.0,0.0,0.0,0.0,0.0,0.0,0.0,0.0,0.0,0.0,0.0,0.0,0.0,
1.192,2.3406014796849117,2.3406014796849117,2.343407262203259,0.0,0.0,0.0,2.341536740524361,0.0,0.0,0.0,0.0,0.0,0.0,0.0,0.0,0.0,0.0,0.0,0.0,0.0,0.0,
1.2164,2.3409814109591665,2.3409814109591665,2.343796566364375,0.0,0.0,0.0,2.341919796094236,0.0,0.0,0.0,0.0,0.0,0.0,0.0,0.0,0.0,0.0,0.0,0.0,0.0,0.0,
1.2407,2.3413677368773964,2.3413677368773964,2.344192438065205,0.0,0.0,0.0,2.342309303939999,0.0,0.0,0.0,0.0,0.0,0.0,0.0,0.0,0.0,0.0,0.0,0.0,0.0,0.0,
1.265,2.3417620166611424,2.3417620166611424,2.3445964759246958,0.0,0.0,0.0,2.34270683641566,0.0,0.0,0.0,0.0,0.0,0.0,0.0,0.0,0.0,0.0,0.0,0.0,0.0,0.0,
1.2893,2.342164269149339,2.342164269149339,2.345008700232544,0.0,0.0,0.0,2.3431124128437406,0.0,0.0,0.0,0.0,0.0,0.0,0.0,0.0,0.0,0.0,0.0,0.0,0.0,0.0,
1.3137,2.3425762183810943,2.3425762183810943,2.34543087888272,0.0,0.0,0.0,2.3435277718816363,0.0,0.0,0.0,0.0,0.0,0.0,0.0,0.0,0.0,0.0,0.0,0.0,0.0,0.0,
1.338,2.3429945074583767,2.3429945074583767,2.3458595726565905,0.0,0.0,0.0,2.3439495291911148,0.0,0.0,0.0,0.0,0.0,0.0,0.0,0.0,0.0,0.0,0.0,0.0,0.0,0.0,
1.3623,2.3434208283264737,2.3434208283264737,2.346296516537566,0.0,0.0,0.0,2.3443793910635047,0.0,0.0,0.0,0.0,0.0,0.0,0.0,0.0,0.0,0.0,0.0,0.0,0.0,0.0,
1.3867,2.3438570057025454,2.3438570057025454,2.3467435819153373,0.0,0.0,0.0,2.344819197773476,0.0,0.0,0.0,0.0,0.0,0.0,0.0,0.0,0.0,0.0,0.0,0.0,0.0,0.0,
1.411,2.34429948536705,2.34429948536705,2.3471971269621443,0.0,0.0,0.0,2.345265365898748,0.0,0.0,0.0,0.0,0.0,0.0,0.0,0.0,0.0,0.0,0.0,0.0,0.0,0.0,
1.4353,2.3447500597106843,2.3447500597106843,2.347658989907878,0.0,0.0,0.0,2.345719703109749,0.0,0.0,0.0,0.0,0.0,0.0,0.0,0.0,0.0,0.0,0.0,0.0,0.0,0.0,
1.4596,2.345208750525464,2.345208750525464,2.3481291942526386,0.0,0.0,0.0,2.3461822317678553,0.0,0.0,0.0,0.0,0.0,0.0,0.0,0.0,0.0,0.0,0.0,0.0,0.0,0.0,
1.484,2.3456775179928755,2.3456775179928755,2.348609750709012,0.0,0.0,0.0,2.3466549288982543,0.0,0.0,0.0,0.0,0.0,0.0,0.0,0.0,0.0,0.0,0.0,0.0,0.0,0.0,
1.5083,2.346152542498671,2.346152542498671,2.349096744823968,0.0,0.0,0.0,2.34713394327377,0.0,0.0,0.0,0.0,0.0,0.0,0.0,0.0,0.0,0.0,0.0,0.0,0.0,0.0,
1.5326,2.346635751565187,2.346635751565187,2.349592153793754,0.0,0.0,0.0,2.347621218974709,0.0,0.0,0.0,0.0,0.0,0.0,0.0,0.0,0.0,0.0,0.0,0.0,0.0,0.0,
1.5569,2.3471271687427557,2.3471271687427557,2.350096003035116,0.0,0.0,0.0,2.3481167801735423,0.0,0.0,0.0,0.0,0.0,0.0,0.0,0.0,0.0,0.0,0.0,0.0,0.0,0.0,
1.5813,2.347628891241368,2.347628891241368,2.35061044427571,0.0,0.0,0.0,2.3486227422528154,0.0,0.0,0.0,0.0,0.0,0.0,0.0,0.0,0.0,0.0,0.0,0.0,0.0,0.0,
1.6056,2.3481368311163084,2.3481368311163084,2.3511312872745878,0.0,0.0,0.0,2.349134983169068,0.0,0.0,0.0,0.0,0.0,0.0,0.0,0.0,0.0,0.0,0.0,0.0,0.0,0.0,
1.6299,2.348653052559273,2.348653052559273,2.351660649857866,0.0,0.0,0.0,2.3496555849921372,0.0,0.0,0.0,0.0,0.0,0.0,0.0,0.0,0.0,0.0,0.0,0.0,0.0,0.0,
1.6543,2.3491797566880157,2.3491797566880157,2.3522007907429243,0.0,0.0,0.0,2.3501867680396518,0.0,0.0,0.0,0.0,0.0,0.0,0.0,0.0,0.0,0.0,0.0,0.0,0.0,0.0,
1.6786,2.3497126521748664,2.3497126521748664,2.3527473105496526,0.0,0.0,0.0,2.3507242049664616,0.0,0.0,0.0,0.0,0.0,0.0,0.0,0.0,0.0,0.0,0.0,0.0,0.0,0.0,
1.7029,2.350253906831968,2.350253906831968,2.353302433785547,0.0,0.0,0.0,2.351270082483161,0.0,0.0,0.0,0.0,0.0,0.0,0.0,0.0,0.0,0.0,0.0,0.0,0.0,0.0,
1.7272,2.350803547429496,2.350803547429496,2.35386618938765,0.0,0.0,0.0,2.351824428082214,0.0,0.0,0.0,0.0,0.0,0.0,0.0,0.0,0.0,0.0,0.0,0.0,0.0,0.0,
1.7516,2.351363915151192,2.351363915151192,2.354440980378576,0.0,0.0,0.0,2.35238960356032,0.0,0.0,0.0,0.0,0.0,0.0,0.0,0.0,0.0,0.0,0.0,0.0,0.0,0.0,
1.7759,2.3519304446407023,2.3519304446407023,2.3550221254449695,0.0,0.0,0.0,2.3529610049087917,0.0,0.0,0.0,0.0,0.0,0.0,0.0,0.0,0.0,0.0,0.0,0.0,0.0,0.0,
1.8002,2.3525054433686936,2.3525054433686936,2.3556119929620083,0.0,0.0,0.0,2.3535409598997985,0.0,0.0,0.0,0.0,0.0,0.0,0.0,0.0,0.0,0.0,0.0,0.0,0.0,0.0,
1.8245,2.3530889400355903,2.3530889400355903,2.35621061398373,0.0,0.0,0.0,2.354129498018304,0.0,0.0,0.0,0.0,0.0,0.0,0.0,0.0,0.0,0.0,0.0,0.0,0.0,0.0,
1.8489,2.353683417805531,2.353683417805531,2.356820537914552,0.0,0.0,0.0,2.354729124508538,0.0,0.0,0.0,0.0,0.0,0.0,0.0,0.0,0.0,0.0,0.0,0.0,0.0,0.0,
1.8732,2.3542840337044253,2.3542840337044253,2.357436797632556,0.0,0.0,0.0,2.3553349550138023,0.0,0.0,0.0,0.0,0.0,0.0,0.0,0.0,0.0,0.0,0.0,0.0,0.0,0.0,
1.8975,2.3548932367469906,2.3548932367469906,2.3580619074257854,0.0,0.0,0.0,2.3559494603065887,0.0,0.0,0.0,0.0,0.0,0.0,0.0,0.0,0.0,0.0,0.0,0.0,0.0,0.0,
1.9219,2.3555136179579623,2.3555136179579623,2.358698527976336,0.0,0.0,0.0,2.3565752546307537,0.0,0.0,0.0,0.0,0.0,0.0,0.0,0.0,0.0,0.0,0.0,0.0,0.0,0.0,
1.9462,2.356140123570002,2.356140123570002,2.359341475021288,0.0,0.0,0.0,2.357207240720431,0.0,0.0,0.0,0.0,0.0,0.0,0.0,0.0,0.0,0.0,0.0,0.0,0.0,0.0,
1.9705,2.356775310111482,2.356775310111482,2.3599933737533103,0.0,0.0,0.0,2.3578479979920917,0.0,0.0,0.0,0.0,0.0,0.0,0.0,0.0,0.0,0.0,0.0,0.0,0.0,0.0,
1.9948,2.3574192098411997,2.3574192098411997,2.360654259142489,0.0,0.0,0.0,2.358497559608296,0.0,0.0,0.0,0.0,0.0,0.0,0.0,0.0,0.0,0.0,0.0,0.0,0.0,0.0,
2.0192,2.3580745594464187,2.3580745594464187,2.361326942253135,0.0,0.0,0.0,2.3591586870486574,0.0,0.0,0.0,0.0,0.0,0.0,0.0,0.0,0.0,0.0,0.0,0.0,0.0,0.0,
2.0435,2.358736020644727,2.358736020644727,2.3620059455560938,0.0,0.0,0.0,2.3598259956151826,0.0,0.0,0.0,0.0,0.0,0.0,0.0,0.0,0.0,0.0,0.0,0.0,0.0,0.0,
2.0678,2.3594062951377293,2.3594062951377293,2.362694044099692,0.0,0.0,0.0,2.3605022114583836,0.0,0.0,0.0,0.0,0.0,0.0,0.0,0.0,0.0,0.0,0.0,0.0,0.0,0.0,
2.0921,2.3600854173312387,2.3600854173312387,2.3633912752252657,0.0,0.0,0.0,2.361187369962581,0.0,0.0,0.0,0.0,0.0,0.0,0.0,0.0,0.0,0.0,0.0,0.0,0.0,0.0,
2.1165,2.3607762718780183,2.3607762718780183,2.3641006028856584,0.0,0.0,0.0,2.361884382213898,0.0,0.0,0.0,0.0,0.0,0.0,0.0,0.0,0.0,0.0,0.0,0.0,0.0,0.0,
2.1408,2.361473231670967,2.361473231670967,2.364816251618988,0.0,0.0,0.0,2.362587571653641,0.0,0.0,0.0,0.0,0.0,0.0,0.0,0.0,0.0,0.0,0.0,0.0,0.0,0.0,
2.1651,2.3621791458560972,2.3621791458560972,2.365541148800824,0.0,0.0,0.0,2.3632998135043395,0.0,0.0,0.0,0.0,0.0,0.0,0.0,0.0,0.0,0.0,0.0,0.0,0.0,0.0,
2.1895,2.362897011702064,2.362897011702064,2.3662783748370604,0.0,0.0,0.0,2.364024132747063,0.0,0.0,0.0,0.0,0.0,0.0,0.0,0.0,0.0,0.0,0.0,0.0,0.0,0.0,
2.2138,2.3636209824102403,2.3636209824102403,2.367021927489312,0.0,0.0,0.0,2.3647546307699305,0.0,0.0,0.0,0.0,0.0,0.0,0.0,0.0,0.0,0.0,0.0,0.0,0.0,0.0,
2.2381,2.3643540193299013,2.3643540193299013,2.3677748501414433,0.0,0.0,0.0,2.365494296267082,0.0,0.0,0.0,0.0,0.0,0.0,0.0,0.0,0.0,0.0,0.0,0.0,0.0,0.0,
2.2624,2.3650961608498795,2.3650961608498795,2.3685371845508296,0.0,0.0,0.0,2.3662431687501964,0.0,0.0,0.0,0.0,0.0,0.0,0.0,0.0,0.0,0.0,0.0,0.0,0.0,0.0,
2.2868,2.365850556606715,2.365850556606715,2.3693121688119687,0.0,0.0,0.0,2.3670044273417994,0.0,0.0,0.0,0.0,0.0,0.0,0.0,0.0,0.0,0.0,0.0,0.0,0.0,0.0,
2.3111,2.3666110627485866,2.3666110627485866,2.37009349382963,0.0,0.0,0.0,2.3677718731089343,0.0,0.0,0.0,0.0,0.0,0.0,0.0,0.0,0.0,0.0,0.0,0.0,0.0,0.0,
2.3354,2.3673807924128294,2.3673807924128294,2.3708843600506877,0.0,0.0,0.0,2.3685486482921156,0.0,0.0,0.0,0.0,0.0,0.0,0.0,0.0,0.0,0.0,0.0,0.0,0.0,0.0,
2.3597,2.3681597864062605,2.3681597864062605,2.371684811924117,0.0,0.0,0.0,2.3693347949122128,0.0,0.0,0.0,0.0,0.0,0.0,0.0,0.0,0.0,0.0,0.0,0.0,0.0,0.0,
2.3841,2.368951349473218,2.368951349473218,2.372498248226451,0.0,0.0,0.0,2.370133649057629,0.0,0.0,0.0,0.0,0.0,0.0,0.0,0.0,0.0,0.0,0.0,0.0,0.0,0.0,
2.4084,2.3697490355942756,2.3697490355942756,2.3733180474493647,0.0,0.0,0.0,2.370938706212639,0.0,0.0,0.0,0.0,0.0,0.0,0.0,0.0,0.0,0.0,0.0,0.0,0.0,0.0,
2.4327,2.370556112399316,2.370556112399316,2.374147570057297,0.0,0.0,0.0,2.3717532649519764,0.0,0.0,0.0,0.0,0.0,0.0,0.0,0.0,0.0,0.0,0.0,0.0,0.0,0.0,
2.4571,2.3713760029062096,2.3713760029062096,2.374990337461451,0.0,0.0,0.0,2.37258078109129,0.0,0.0,0.0,0.0,0.0,0.0,0.0,0.0,0.0,0.0,0.0,0.0,0.0,0.0,
2.4814,2.372202030843788,2.372202030843788,2.375839489903783,0.0,0.0,0.0,2.3734145171971197,0.0,0.0,0.0,0.0,0.0,0.0,0.0,0.0,0.0,0.0,0.0,0.0,0.0,0.0,
2.5057,2.3730375816296476,2.3730375816296476,2.376698509958268,0.0,0.0,0.0,2.374257891072521,0.0,0.0,0.0,0.0,0.0,0.0,0.0,0.0,0.0,0.0,0.0,0.0,0.0,0.0,
2.53,2.373882700583492,2.373882700583492,2.3775674471190618,0.0,0.0,0.0,2.375110949428682,0.0,0.0,0.0,0.0,0.0,0.0,0.0,0.0,0.0,0.0,0.0,0.0,0.0,0.0,
2.5544,2.3747409710485545,2.3747409710485545,2.378449989192413,0.0,0.0,0.0,2.3759773104298407,0.0,0.0,0.0,0.0,0.0,0.0,0.0,0.0,0.0,0.0,0.0,0.0,0.0,0.0,
2.5787,2.375605404861693,2.375605404861693,2.3793389534229448,0.0,0.0,0.0,2.376849921048777,0.0,0.0,0.0,0.0,0.0,0.0,0.0,0.0,0.0,0.0,0.0,0.0,0.0,0.0,
2.603,2.376479547084803,2.376479547084803,2.3802379880426914,0.0,0.0,0.0,2.3777323607374323,0.0,0.0,0.0,0.0,0.0,0.0,0.0,0.0,0.0,0.0,0.0,0.0,0.0,0.0,
2.6273,2.377363445793269,2.377363445793269,2.3811471456402886,0.0,0.0,0.0,2.378624679075609,0.0,0.0,0.0,0.0,0.0,0.0,0.0,0.0,0.0,0.0,0.0,0.0,0.0,0.0,
2.6517,2.3782608478931735,2.3782608478931735,2.38207028397035,0.0,0.0,0.0,2.379530659918899,0.0,0.0,0.0,0.0,0.0,0.0,0.0,0.0,0.0,0.0,0.0,0.0,0.0,0.0,
2.676,2.3791644473054463,2.3791644473054463,2.38299989071037,0.0,0.0,0.0,2.380442928440421,0.0,0.0,0.0,0.0,0.0,0.0,0.0,0.0,0.0,0.0,0.0,0.0,0.0,0.0,
2.7003,2.380077951933842,2.380077951933842,2.3839397832597387,0.0,0.0,0.0,2.381365229042474,0.0,0.0,0.0,0.0,0.0,0.0,0.0,0.0,0.0,0.0,0.0,0.0,0.0,0.0,
2.7247,2.381005233643576,2.381005233643576,2.3848939493461234,0.0,0.0,0.0,2.382301472211092,0.0,0.0,0.0,0.0,0.0,0.0,0.0,0.0,0.0,0.0,0.0,0.0,0.0,0.0,
2.749,2.3819387436648443,2.3819387436648443,2.385854624830512,0.0,0.0,0.0,2.3832440373867336,0.0,0.0,0.0,0.0,0.0,0.0,0.0,0.0,0.0,0.0,0.0,0.0,0.0,0.0,
2.7733,2.382882314292276,2.382882314292276,2.386825756469078,0.0,0.0,0.0,2.3841967950178766,0.0,0.0,0.0,0.0,0.0,0.0,0.0,0.0,0.0,0.0,0.0,0.0,0.0,0.0,
2.7976,2.3838359987743494,2.3838359987743494,2.3878074026872884,0.0,0.0,0.0,2.3851598000786622,0.0,0.0,0.0,0.0,0.0,0.0,0.0,0.0,0.0,0.0,0.0,0.0,0.0,0.0,
2.822,2.3848038386907455,2.3848038386907455,2.388803727930546,0.0,0.0,0.0,2.3861371351040126,0.0,0.0,0.0,0.0,0.0,0.0,0.0,0.0,0.0,0.0,0.0,0.0,0.0,0.0,
2.8463,2.385777955931072,2.385777955931072,2.389806626005745,0.0,0.0,0.0,2.387120845955963,0.0,0.0,0.0,0.0,0.0,0.0,0.0,0.0,0.0,0.0,0.0,0.0,0.0,0.0,
2.8706,2.3867623517089447,2.3867623517089447,2.390820219523201,0.0,0.0,0.0,2.3881149743136967,0.0,0.0,0.0,0.0,0.0,0.0,0.0,0.0,0.0,0.0,0.0,0.0,0.0,0.0,
2.8949,2.387757082449649,2.387757082449649,2.391844570510474,0.0,0.0,0.0,2.389119578469924,0.0,0.0,0.0,0.0,0.0,0.0,0.0,0.0,0.0,0.0,0.0,0.0,0.0,0.0,
2.9193,2.388766363258452,2.388766363258452,2.392884024336127,0.0,0.0,0.0,2.39013891695101,0.0,0.0,0.0,0.0,0.0,0.0,0.0,0.0,0.0,0.0,0.0,0.0,0.0,0.0,
2.9436,2.3897819796206283,2.3897819796206283,2.3939301250146423,0.0,0.0,0.0,2.3911646947519665,0.0,0.0,0.0,0.0,0.0,0.0,0.0,0.0,0.0,0.0,0.0,0.0,0.0,0.0,
2.9679,2.390808105434597,2.390808105434597,2.3949871751654657,0.0,0.0,0.0,2.3922011286782197,0.0,0.0,0.0,0.0,0.0,0.0,0.0,0.0,0.0,0.0,0.0,0.0,0.0,0.0,
2.9923,2.391849088635337,2.391849088635337,2.396059658815943,0.0,0.0,0.0,2.3932526120288724,0.0,0.0,0.0,0.0,0.0,0.0,0.0,0.0,0.0,0.0,0.0,0.0,0.0,0.0,
3.0166,2.3928964574308758,2.3928964574308758,2.3971388521832413,0.0,0.0,0.0,2.3943105890149976,0.0,0.0,0.0,0.0,0.0,0.0,0.0,0.0,0.0,0.0,0.0,0.0,0.0,0.0,
3.0409,2.3939545178872876,2.3939545178872876,2.3982291958250332,0.0,0.0,0.0,2.3953794105332027,0.0,0.0,0.0,0.0,0.0,0.0,0.0,0.0,0.0,0.0,0.0,0.0,0.0,0.0,
3.0652,2.3950233324272863,2.3950233324272863,2.399330758605318,0.0,0.0,0.0,2.3964591411532967,0.0,0.0,0.0,0.0,0.0,0.0,0.0,0.0,0.0,0.0,0.0,0.0,0.0,0.0,
3.0896,2.3961074297464267,2.3961074297464267,2.4004482134824725,0.0,0.0,0.0,2.397554357658442,0.0,0.0,0.0,0.0,0.0,0.0,0.0,0.0,0.0,0.0,0.0,0.0,0.0,0.0,
3.1139,2.397197988269331,2.397197988269331,2.4015724721873313,0.0,0.0,0.0,2.398656149575331,0.0,0.0,0.0,0.0,0.0,0.0,0.0,0.0,0.0,0.0,0.0,0.0,0.0,0.0,
3.1382,2.3982994938967064,2.3982994938967064,2.4027081631996206,0.0,0.0,0.0,2.399769050331011,0.0,0.0,0.0,0.0,0.0,0.0,0.0,0.0,0.0,0.0,0.0,0.0,0.0,0.0,
3.1625,2.3994120127547633,2.3994120127547633,2.403855359628075,0.0,0.0,0.0,2.4008931283792005,0.0,0.0,0.0,0.0,0.0,0.0,0.0,0.0,0.0,0.0,0.0,0.0,0.0,0.0,
