energies(eV),real_xx,real_yy,real_zz,real_xy,real_yz,real_xz,real_ave,imag_xx,imag_yy,imag_zz,imag_xy,imag_yz,imag_xz,imag_ave,absorption_xx,absorption_yy,absorption_zz,absorption_xy,absorption_yz,absorption_xz,absorption_ave,band_gap
0.0,2.6486075425518987,2.5855255406683932,2.573032862165018,0.0,0.0,0.01090900640811541,2.60238864846177,0.0,0.0,0.0,0.0,0.0,0.0,0.0,0.0,0.0,0.0,0.0,0.0,0.0,0.0,4.974200000000001
0.0146,2.648610391809835,2.585528267986353,2.5730355071528903,0.0,0.0,0.0109089921395739,2.602391388983026,0.0,0.0,0.0,0.0,0.0,0.0,0.0,0.0,0.0,0.0,0.0,0.0,0.0,0.0,
0.0291,2.648618861743583,2.5855363754325946,2.57304336985603,0.0,0.0,0.01090894972155953,2.6023995356774026,0.0,0.0,0.0,0.0,0.0,0.0,0.0,0.0,0.0,0.0,0.0,0.0,0.0,0.0,
0.0437,2.6486330694463036,2.58554997509242,2.57305655897001,0.0,0.0,0.010908878561013666,2.6024132011695777,0.0,0.0,0.0,0.0,0.0,0.0,0.0,0.0,0.0,0.0,0.0,0.0,0.0,0.0,
0.0583,2.6486529764671647,2.58556903016623,2.573075038795757,0.0,0.0,0.01090877883935297,2.602432348476384,0.0,0.0,0.0,0.0,0.0,0.0,0.0,0.0,0.0,0.0,0.0,0.0,0.0,0.0,
0.0728,2.6486783886533223,2.5855933548179517,2.5730986290932005,0.0,0.0,0.01090865151386669,2.602456790854825,0.0,0.0,0.0,0.0,0.0,0.0,0.0,0.0,0.0,0.0,0.0,0.0,0.0,0.0,
0.0874,2.648709657317441,2.5856232853356387,2.573127655979466,0.0,0.0,0.010908494804377788,2.6024868662108482,0.0,0.0,0.0,0.0,0.0,0.0,0.0,0.0,0.0,0.0,0.0,0.0,0.0,0.0,
0.102,2.648746627707233,2.5856586736022287,2.5731619757862987,0.0,0.0,0.010908309461632125,2.6025224256985866,0.0,0.0,0.0,0.0,0.0,0.0,0.0,0.0,0.0,0.0,0.0,0.0,0.0,0.0,
0.1165,2.6487889893028296,2.5856992224005984,2.5732013002441985,0.0,0.0,0.010908097014205446,2.602563170649209,0.0,0.0,0.0,0.0,0.0,0.0,0.0,0.0,0.0,0.0,0.0,0.0,0.0,0.0,
0.1311,2.6488373277358432,2.5857454923180296,2.573246172983129,0.0,0.0,0.010907854491797979,2.6026096643456675,0.0,0.0,0.0,0.0,0.0,0.0,0.0,0.0,0.0,0.0,0.0,0.0,0.0,0.0,
0.1457,2.6488913719096496,2.585797223878393,2.5732963423262505,0.0,0.0,0.010907583215741092,2.6026616460380976,0.0,0.0,0.0,0.0,0.0,0.0,0.0,0.0,0.0,0.0,0.0,0.0,0.0,0.0,
0.1602,2.648950694850585,2.5858540083993944,2.573351411895115,0.0,0.0,0.010907285288463558,2.602718705048365,0.0,0.0,0.0,0.0,0.0,0.0,0.0,0.0,0.0,0.0,0.0,0.0,0.0,0.0,
0.1748,2.6490161166751545,2.585916630928447,2.573412142984698,0.0,0.0,0.010906956544528178,2.6027816301960995,0.0,0.0,0.0,0.0,0.0,0.0,0.0,0.0,0.0,0.0,0.0,0.0,0.0,0.0,
0.1894,2.649087249866972,2.5859847205572675,2.5734781758404153,0.0,0.0,0.01090659887806621,2.602850048754885,0.0,0.0,0.0,0.0,0.0,0.0,0.0,0.0,0.0,0.0,0.0,0.0,0.0,0.0,
0.2039,2.6491635508793916,2.586057757022709,2.573549005865486,0.0,0.0,0.010906214968889043,2.602923437922529,0.0,0.0,0.0,0.0,0.0,0.0,0.0,0.0,0.0,0.0,0.0,0.0,0.0,0.0,
0.2185,2.6492460745462116,2.5861367500578263,2.573625612233146,0.0,0.0,0.010905799449387799,2.6030028122790614,0.0,0.0,0.0,0.0,0.0,0.0,0.0,0.0,0.0,0.0,0.0,0.0,0.0,0.0,
0.2331,2.649334316823481,2.5862212172175525,2.5737075270121412,0.0,0.0,0.010905354789669232,2.603087687017725,0.0,0.0,0.0,0.0,0.0,0.0,0.0,0.0,0.0,0.0,0.0,0.0,0.0,0.0,
0.2476,2.6494276174395983,2.5863105265106143,2.5737941372479174,0.0,0.0,0.010904884251427157,2.6031774270660435,0.0,0.0,0.0,0.0,0.0,0.0,0.0,0.0,0.0,0.0,0.0,0.0,0.0,0.0,
0.2622,2.649527266244993,2.586405912645917,2.573886640266614,0.0,0.0,0.010904381255813693,2.603273273052508,0.0,0.0,0.0,0.0,0.0,0.0,0.0,0.0,0.0,0.0,0.0,0.0,0.0,0.0,
0.2768,2.6496326425276395,2.5865067815054292,2.5739844598313937,0.0,0.0,0.010903848853053606,2.6033746279548207,0.0,0.0,0.0,0.0,0.0,0.0,0.0,0.0,0.0,0.0,0.0,0.0,0.0,0.0,
0.2913,2.6497429691062893,2.5866123891905737,2.574086874460484,0.0,0.0,0.010903290892202041,2.603480744252449,0.0,0.0,0.0,0.0,0.0,0.0,0.0,0.0,0.0,0.0,0.0,0.0,0.0,0.0,
0.3059,2.6498597712143575,2.5867241957415072,2.5741952999690296,0.0,0.0,0.010902699572053259,2.6035930889749648,0.0,0.0,0.0,0.0,0.0,0.0,0.0,0.0,0.0,0.0,0.0,0.0,0.0,0.0,
0.3205,2.6499823112985297,2.5868414951992165,2.574309051655698,0.0,0.0,0.010902078528068022,2.603710952717815,0.0,0.0,0.0,0.0,0.0,0.0,0.0,0.0,0.0,0.0,0.0,0.0,0.0,0.0,
0.335,2.65010969505025,2.5869634315467294,2.5744272993118025,0.0,0.0,0.010901432203131042,2.603833475302927,0.0,0.0,0.0,0.0,0.0,0.0,0.0,0.0,0.0,0.0,0.0,0.0,0.0,0.0,
0.3496,2.6502436835197516,2.587091690576226,2.574551677639526,0.0,0.0,0.01090075156048626,2.603962350578501,0.0,0.0,0.0,0.0,0.0,0.0,0.0,0.0,0.0,0.0,0.0,0.0,0.0,0.0,
0.3642,2.6503834221063185,2.5872254542878386,2.5746813932838952,0.0,0.0,0.010900040826933785,2.604096756559351,0.0,0.0,0.0,0.0,0.0,0.0,0.0,0.0,0.0,0.0,0.0,0.0,0.0,0.0,
0.3787,2.6505278991232073,2.5873637543029018,2.5748155070792036,0.0,0.0,0.010899305046657426,2.6042357201684374,0.0,0.0,0.0,0.0,0.0,0.0,0.0,0.0,0.0,0.0,0.0,0.0,0.0,0.0,
0.3933,2.6506791119391773,2.5875085026522466,2.574955873074855,0.0,0.0,0.010898533932059726,2.6043811625554265,0.0,0.0,0.0,0.0,0.0,0.0,0.0,0.0,0.0,0.0,0.0,0.0,0.0,0.0,
0.4078,2.650834993868475,2.587657721062299,2.575100572781757,0.0,0.0,0.010897737903058336,2.604531095904177,0.0,0.0,0.0,0.0,0.0,0.0,0.0,0.0,0.0,0.0,0.0,0.0,0.0,0.0,
0.4224,2.650997699957216,2.5878134725195876,2.5752516065997133,0.0,0.0,0.010896905829585244,2.604687593025506,0.0,0.0,0.0,0.0,0.0,0.0,0.0,0.0,0.0,0.0,0.0,0.0,0.0,0.0,
0.437,2.6511661800674258,2.5879747518439027,2.575407999664993,0.0,0.0,0.010896042939816901,2.6048496438587736,0.0,0.0,0.0,0.0,0.0,0.0,0.0,0.0,0.0,0.0,0.0,0.0,0.0,0.0,
0.4515,2.651339226323757,2.5881404028446076,2.5755686307055417,0.0,0.0,0.010895155298996453,2.6050160866246355,0.0,0.0,0.0,0.0,0.0,0.0,0.0,0.0,0.0,0.0,0.0,0.0,0.0,0.0,
0.4661,2.6515192310786637,2.5883127157049515,2.5757357203746647,0.0,0.0,0.010894230495992965,2.6051892223860933,0.0,0.0,0.0,0.0,0.0,0.0,0.0,0.0,0.0,0.0,0.0,0.0,0.0,0.0,
0.4807,2.651705026434931,2.5884905725135514,2.5759081845020253,0.0,0.0,0.010893274371500283,2.6053679278168356,0.0,0.0,0.0,0.0,0.0,0.0,0.0,0.0,0.0,0.0,0.0,0.0,0.0,0.0,
0.4952,2.651895286306357,2.588672703910497,2.576084792094526,0.0,0.0,0.010892293616985127,2.6055509274371267,0.0,0.0,0.0,0.0,0.0,0.0,0.0,0.0,0.0,0.0,0.0,0.0,0.0,0.0,
0.5098,2.652092641036858,2.588861627940352,2.576267984687588,0.0,0.0,0.010891274519205381,2.605740751221599,0.0,0.0,0.0,0.0,0.0,0.0,0.0,0.0,0.0,0.0,0.0,0.0,0.0,0.0,
0.5244,2.6522958046414398,2.5890561136418757,2.5764565685027367,0.0,0.0,0.010890223541200462,2.6059361622620174,0.0,0.0,0.0,0.0,0.0,0.0,0.0,0.0,0.0,0.0,0.0,0.0,0.0,0.0,
0.5389,2.6525033324482674,2.589254778122446,2.5766492024820944,0.0,0.0,0.010889148011941827,2.6061357710176023,0.0,0.0,0.0,0.0,0.0,0.0,0.0,0.0,0.0,0.0,0.0,0.0,0.0,0.0,
0.5535,2.6527180935478776,2.5894603680204153,2.576848549735942,0.0,0.0,0.010888032892794162,2.606342337101412,0.0,0.0,0.0,0.0,0.0,0.0,0.0,0.0,0.0,0.0,0.0,0.0,0.0,0.0,
0.5681,2.652938683504818,2.5896715389729357,2.5770533065450056,0.0,0.0,0.010886885280027413,2.606554509674253,0.0,0.0,0.0,0.0,0.0,0.0,0.0,0.0,0.0,0.0,0.0,0.0,0.0,0.0,
0.5826,2.6531635386523904,2.5898867941577643,2.5772620214110806,0.0,0.0,0.010885713152485326,2.606770784740412,0.0,0.0,0.0,0.0,0.0,0.0,0.0,0.0,0.0,0.0,0.0,0.0,0.0,0.0,
0.5972,2.6533957676535986,2.5901091096080755,2.5774775797770344,0.0,0.0,0.010884500120577711,2.6069941523462363,0.0,0.0,0.0,0.0,0.0,0.0,0.0,0.0,0.0,0.0,0.0,0.0,0.0,0.0,
0.6118,2.653633847225424,2.590337027174327,2.5776985676184188,0.0,0.0,0.010883253925768154,2.6072231473393903,0.0,0.0,0.0,0.0,0.0,0.0,0.0,0.0,0.0,0.0,0.0,0.0,0.0,0.0,
0.6263,2.6538760942620767,2.590568935673779,2.5779234225892216,0.0,0.0,0.010881983210250213,2.6074561508416925,0.0,0.0,0.0,0.0,0.0,0.0,0.0,0.0,0.0,0.0,0.0,0.0,0.0,0.0,
0.6409,2.6541258578964637,2.590808041404954,2.57815525328815,0.0,0.0,0.010880670205586467,2.607696384196523,0.0,0.0,0.0,0.0,0.0,0.0,0.0,0.0,0.0,0.0,0.0,0.0,0.0,0.0,
0.6555,2.6543814955661076,2.5910527720126932,2.5783925349893817,0.0,0.0,0.010879323311497205,2.6079422675227275,0.0,0.0,0.0,0.0,0.0,0.0,0.0,0.0,0.0,0.0,0.0,0.0,0.0,0.0,
0.67,2.6546412042465493,2.591301401488594,2.578633594059127,0.0,0.0,0.010877951848141788,2.60819206659809,0.0,0.0,0.0,0.0,0.0,0.0,0.0,0.0,0.0,0.0,0.0,0.0,0.0,0.0,
0.6846,2.654908574510399,2.591557367337324,2.5788817631416245,0.0,0.0,0.0108765366379539,2.608449234996449,0.0,0.0,0.0,0.0,0.0,0.0,0.0,0.0,0.0,0.0,0.0,0.0,0.0,0.0,
0.6992,2.655181844048652,2.5918189825450484,2.579135406381166,0.0,0.0,0.010875086753101124,2.608712077658289,0.0,0.0,0.0,0.0,0.0,0.0,0.0,0.0,0.0,0.0,0.0,0.0,0.0,0.0,
0.7137,2.6554590894027417,2.5920844057777983,2.5793927383833273,0.0,0.0,0.010873612207490082,2.608978744521289,0.0,0.0,0.0,0.0,0.0,0.0,0.0,0.0,0.0,0.0,0.0,0.0,0.0,0.0,
0.7283,2.6557441436282296,2.5923573067583066,2.5796573167949184,0.0,0.0,0.010872092381693827,2.6092529223938183,0.0,0.0,0.0,0.0,0.0,0.0,0.0,0.0,0.0,0.0,0.0,0.0,0.0,0.0,
0.7429,2.656035124166789,2.592635883326441,2.5799273941691565,0.0,0.0,0.010870537035672095,2.609532800554129,0.0,0.0,0.0,0.0,0.0,0.0,0.0,0.0,0.0,0.0,0.0,0.0,0.0,0.0,
0.7574,2.6563299865740326,2.592918178287489,2.5802010728447238,0.0,0.0,0.010868956894058781,2.6098164125687484,0.0,0.0,0.0,0.0,0.0,0.0,0.0,0.0,0.0,0.0,0.0,0.0,0.0,0.0,
0.772,2.6566328075060808,2.5932080946664433,2.580482136496421,0.0,0.0,0.010867329860315725,2.610107679556315,0.0,0.0,0.0,0.0,0.0,0.0,0.0,0.0,0.0,0.0,0.0,0.0,0.0,0.0,
0.7866,2.656941583616433,2.593503714634188,2.5807687255919274,0.0,0.0,0.010865666398724768,2.6104046746141827,0.0,0.0,0.0,0.0,0.0,0.0,0.0,0.0,0.0,0.0,0.0,0.0,0.0,0.0,
0.8011,2.6572541488862162,2.5938029645642557,2.581058829663066,0.0,0.0,0.01086397796285914,2.610705314371179,0.0,0.0,0.0,0.0,0.0,0.0,0.0,0.0,0.0,0.0,0.0,0.0,0.0,0.0,
0.8157,2.6575748247653426,2.5941099819414744,2.5813564595072283,0.0,0.0,0.010862240941227213,2.6110137554046817,0.0,0.0,0.0,0.0,0.0,0.0,0.0,0.0,0.0,0.0,0.0,0.0,0.0,0.0,
0.8303,2.657901486543552,2.5944227327094094,2.581659642978541,0.0,0.0,0.010860466520181541,2.6113279540771672,0.0,0.0,0.0,0.0,0.0,0.0,0.0,0.0,0.0,0.0,0.0,0.0,0.0,0.0,
0.8448,2.6582318460014296,2.5947390262025465,2.5819662562276022,0.0,0.0,0.010858666901715759,2.6116457094771928,0.0,0.0,0.0,0.0,0.0,0.0,0.0,0.0,0.0,0.0,0.0,0.0,0.0,0.0,
0.8594,2.658570470652647,2.5950632355975696,2.5822805383394822,0.0,0.0,0.010856816918870808,2.6119714148632327,0.0,0.0,0.0,0.0,0.0,0.0,0.0,0.0,0.0,0.0,0.0,0.0,0.0,0.0,
0.874,2.6589151138103935,2.5953932100163284,2.582600403992572,0.0,0.0,0.010854928499072256,2.612302909273098,0.0,0.0,0.0,0.0,0.0,0.0,0.0,0.0,0.0,0.0,0.0,0.0,0.0,0.0,
0.8885,2.659263364390526,2.5957266411099464,2.582923615346896,0.0,0.0,0.010853014613523953,2.6126378736157894,0.0,0.0,0.0,0.0,0.0,0.0,0.0,0.0,0.0,0.0,0.0,0.0,0.0,0.0,
0.9031,2.6596200373185743,2.5960681390548213,2.583254641011957,0.0,0.0,0.010851048496529321,2.6129809391284504,0.0,0.0,0.0,0.0,0.0,0.0,0.0,0.0,0.0,0.0,0.0,0.0,0.0,0.0,
0.9177,2.659982763280528,2.5964154355199147,2.5835912818934728,0.0,0.0,0.010849042836881798,2.613329826897972,0.0,0.0,0.0,0.0,0.0,0.0,0.0,0.0,0.0,0.0,0.0,0.0,0.0,0.0,
0.9322,2.660349007624599,2.5967661037911185,2.5839311855160645,0.0,0.0,0.010847011397136596,2.6136820989772604,0.0,0.0,0.0,0.0,0.0,0.0,0.0,0.0,0.0,0.0,0.0,0.0,0.0,0.0,
0.9468,2.660723834115719,2.597124992429479,2.5842790513232674,0.0,0.0,0.010844925766739483,2.6140426259561553,0.0,0.0,0.0,0.0,0.0,0.0,0.0,0.0,0.0,0.0,0.0,0.0,0.0,0.0,
0.9614,2.661104750123544,2.5974897149825837,2.584632565815907,0.0,0.0,0.010842799417481327,2.614409010307345,0.0,0.0,0.0,0.0,0.0,0.0,0.0,0.0,0.0,0.0,0.0,0.0,0.0,0.0,
0.9759,2.6614890966862768,2.5978577256509,2.5849892612021903,0.0,0.0,0.010840646926807177,2.6147786945131224,0.0,0.0,0.0,0.0,0.0,0.0,0.0,0.0,0.0,0.0,0.0,0.0,0.0,0.0,
0.9905,2.6618821879167474,2.5982341128436937,2.585354069143519,0.0,0.0,0.010838438190236766,2.6151567899679864,0.0,0.0,0.0,0.0,0.0,0.0,0.0,0.0,0.0,0.0,0.0,0.0,0.0,0.0,
1.0051,2.662281407139965,2.5986163712806,2.585724561067722,0.0,0.0,0.010836187485566131,2.6155407798294292,0.0,0.0,0.0,0.0,0.0,0.0,0.0,0.0,0.0,0.0,0.0,0.0,0.0,0.0,
1.0196,2.662683970301587,2.5990018353175093,2.586098153148618,0.0,0.0,0.010833910230115486,2.615927986255905,0.0,0.0,0.0,0.0,0.0,0.0,0.0,0.0,0.0,0.0,0.0,0.0,0.0,0.0,
1.0342,2.663095443453337,2.599395834755514,2.586480010725097,0.0,0.0,0.010831574573355226,2.6163237629779825,0.0,0.0,0.0,0.0,0.0,0.0,0.0,0.0,0.0,0.0,0.0,0.0,0.0,0.0,
1.0488,2.663513085107362,2.5997957447410416,2.5868675894472037,0.0,0.0,0.010829195623520822,2.6167254730985356,0.0,0.0,0.0,0.0,0.0,0.0,0.0,0.0,0.0,0.0,0.0,0.0,0.0,0.0,
1.0633,2.6639339852932054,2.600198778986384,2.587258188698857,0.0,0.0,0.010826789664292501,2.617130317659482,0.0,0.0,0.0,0.0,0.0,0.0,0.0,0.0,0.0,0.0,0.0,0.0,0.0,0.0,
1.0779,2.6643639636767285,2.600610510309878,2.5876572090332584,0.0,0.0,0.010824323043797938,2.617543894339955,0.0,0.0,0.0,0.0,0.0,0.0,0.0,0.0,0.0,0.0,0.0,0.0,0.0,0.0,
1.0925,2.6648001531483025,2.601028193499943,2.5880619895805568,0.0,0.0,0.010821811726624346,2.617963445409601,0.0,0.0,0.0,0.0,0.0,0.0,0.0,0.0,0.0,0.0,0.0,0.0,0.0,0.0,
1.107,2.6652395169559036,2.6014489207856517,2.5884697121408533,0.0,0.0,0.01081927289085249,2.6183860499608027,0.0,0.0,0.0,0.0,0.0,0.0,0.0,0.0,0.0,0.0,0.0,0.0,0.0,0.0,
1.1216,2.665688130140823,2.601878509711468,2.588886014097392,0.0,0.0,0.01081667102468258,2.618817551316561,0.0,0.0,0.0,0.0,0.0,0.0,0.0,0.0,0.0,0.0,0.0,0.0,0.0,0.0,
1.1362,2.666142999121186,2.6023140938827267,2.589308117280262,0.0,0.0,0.010814022976498314,2.619255070094725,0.0,0.0,0.0,0.0,0.0,0.0,0.0,0.0,0.0,0.0,0.0,0.0,0.0,0.0,
1.1507,2.666600959455229,2.6027526431640844,2.589733085072565,0.0,0.0,0.010811346848437329,2.6196955625639595,0.0,0.0,0.0,0.0,0.0,0.0,0.0,0.0,0.0,0.0,0.0,0.0,0.0,0.0,
1.1653,2.6670683434088147,2.603200221620429,2.5901667933839683,0.0,0.0,0.010808605206764764,2.6201451194710708,0.0,0.0,0.0,0.0,0.0,0.0,0.0,0.0,0.0,0.0,0.0,0.0,0.0,0.0,
1.1798,2.667538764132986,2.6036507132459406,2.590603315380737,0.0,0.0,0.010805835081775314,2.6205975975865545,0.0,0.0,0.0,0.0,0.0,0.0,0.0,0.0,0.0,0.0,0.0,0.0,0.0,0.0,
1.1944,2.6680187262503043,2.6041103473025533,2.5910486867896596,0.0,0.0,0.010802997723765388,2.621059253447506,0.0,0.0,0.0,0.0,0.0,0.0,0.0,0.0,0.0,0.0,0.0,0.0,0.0,0.0,
1.209,2.6685050234842986,2.604576053571833,2.591499932191751,0.0,0.0,0.010800111518728471,2.6215270030826274,0.0,0.0,0.0,0.0,0.0,0.0,0.0,0.0,0.0,0.0,0.0,0.0,0.0,0.0,
1.2235,2.6689942765387142,2.60504459599886,2.5919539157396034,0.0,0.0,0.01079719617863779,2.6219975960923922,0.0,0.0,0.0,0.0,0.0,0.0,0.0,0.0,0.0,0.0,0.0,0.0,0.0,0.0,
1.2381,2.6694932505418585,2.6055224535498676,2.5924169146964333,0.0,0.0,0.010794210920568835,2.622477539596053,0.0,0.0,0.0,0.0,0.0,0.0,0.0,0.0,0.0,0.0,0.0,0.0,0.0,0.0,
1.2527,2.669998610268035,2.6060064324199903,2.5928858340708496,0.0,0.0,0.01079117509542469,2.6229636255862916,0.0,0.0,0.0,0.0,0.0,0.0,0.0,0.0,0.0,0.0,0.0,0.0,0.0,0.0,
1.2672,2.6705068460937698,2.6064931716307598,2.593357417178929,0.0,0.0,0.010788109426697967,2.623452478301153,0.0,0.0,0.0,0.0,0.0,0.0,0.0,0.0,0.0,0.0,0.0,0.0,0.0,0.0,
1.2818,2.6710249857468034,2.6069894018843653,2.593838184740991,0.0,0.0,0.010784971026397246,2.623950857457386,0.0,0.0,0.0,0.0,0.0,0.0,0.0,0.0,0.0,0.0,0.0,0.0,0.0,0.0,
1.2964,2.6715495640415674,2.6074918048088485,2.5943249212661073,0.0,0.0,0.010781780243931777,2.624455430038841,0.0,0.0,0.0,0.0,0.0,0.0,0.0,0.0,0.0,0.0,0.0,0.0,0.0,0.0,
1.3109,2.6720769399538318,2.607996893460469,2.594814248249021,0.0,0.0,0.010778558850479736,2.624962693887774,0.0,0.0,0.0,0.0,0.0,0.0,0.0,0.0,0.0,0.0,0.0,0.0,0.0,0.0,
1.3255,2.6726144060003705,2.608511652402175,2.5953129318757826,0.0,0.0,0.010775261777149447,2.6254796634261095,0.0,0.0,0.0,0.0,0.0,0.0,0.0,0.0,0.0,0.0,0.0,0.0,0.0,0.0,
1.3401,2.673158365978919,2.6090326376694617,2.5958176351864717,0.0,0.0,0.010771910407296156,2.6260028796116175,0.0,0.0,0.0,0.0,0.0,0.0,0.0,0.0,0.0,0.0,0.0,0.0,0.0,0.0,
1.3546,2.6737050463433256,2.6095562352653303,2.596324856825941,0.0,0.0,0.010768527597905904,2.6265287128115324,0.0,0.0,0.0,0.0,0.0,0.0,0.0,0.0,0.0,0.0,0.0,0.0,0.0,0.0,
1.3692,2.67426200668724,2.6100896858336924,2.5968416105447885,0.0,0.0,0.010765066019187855,2.62706443435524,0.0,0.0,0.0,0.0,0.0,0.0,0.0,0.0,0.0,0.0,0.0,0.0,0.0,0.0,
1.3838,2.674825518687787,2.6106294187462398,2.5973644369013362,0.0,0.0,0.010761548125804236,2.6276064581117877,0.0,0.0,0.0,0.0,0.0,0.0,0.0,0.0,0.0,0.0,0.0,0.0,0.0,0.0,
1.3983,2.675391675106633,2.611171691817078,2.5978897106170784,0.0,0.0,0.01075799790071535,2.62815102584693,0.0,0.0,0.0,0.0,0.0,0.0,0.0,0.0,0.0,0.0,0.0,0.0,0.0,0.0,
1.4129,2.6759683050032663,2.6117240040894876,2.5984246951986574,0.0,0.0,0.01075436566887439,2.6287056680971372,0.0,0.0,0.0,0.0,0.0,0.0,0.0,0.0,0.0,0.0,0.0,0.0,0.0,0.0,
1.4275,2.676551546781697,2.6122826571529156,2.598965807665394,0.0,0.0,0.0107506749956191,2.6292666705333354,0.0,0.0,0.0,0.0,0.0,0.0,0.0,0.0,0.0,0.0,0.0,0.0,0.0,0.0,
1.442,2.677137358290933,2.6128437794482107,2.59950929769579,0.0,0.0,0.010746951032187198,2.629830145144978,0.0,0.0,0.0,0.0,0.0,0.0,0.0,0.0,0.0,0.0,0.0,0.0,0.0,0.0,
1.4566,2.677733840549064,2.613415130837118,2.6000626808392457,0.0,0.0,0.010743141669356346,2.6304038840751427,0.0,0.0,0.0,0.0,0.0,0.0,0.0,0.0,0.0,0.0,0.0,0.0,0.0,0.0,
1.4712,2.678336997484673,2.613992883960184,2.6006222494732016,0.0,0.0,0.01073927162460631,2.630984043639353,0.0,0.0,0.0,0.0,0.0,0.0,0.0,0.0,0.0,0.0,0.0,0.0,0.0,0.0,
1.4857,2.6789426507620577,2.6145730366503495,2.6011841270662206,0.0,0.0,0.010735367261991313,2.6315666048262094,0.0,0.0,0.0,0.0,0.0,0.0,0.0,0.0,0.0,0.0,0.0,0.0,0.0,0.0,
1.5003,2.6795591759572908,2.615163612110653,2.6017560835950273,0.0,0.0,0.01073137394441281,2.6321596238876572,0.0,0.0,0.0,0.0,0.0,0.0,0.0,0.0,0.0,0.0,0.0,0.0,0.0,0.0,
1.5149,2.680182441270196,2.6157606528163253,2.6023342856454157,0.0,0.0,0.010727317585153339,2.6327591265773123,0.0,0.0,0.0,0.0,0.0,0.0,0.0,0.0,0.0,0.0,0.0,0.0,0.0,0.0,
1.5294,2.6808081308551452,2.6163600247062995,2.602914729260326,0.0,0.0,0.010723225807964682,2.633360961607257,0.0,0.0,0.0,0.0,0.0,0.0,0.0,0.0,0.0,0.0,0.0,0.0,0.0,0.0,
1.544,2.6814448975554317,2.6169700169542773,2.6035054413291054,0.0,0.0,0.010719041349156638,2.6339734519462716,0.0,0.0,0.0,0.0,0.0,0.0,0.0,0.0,0.0,0.0,0.0,0.0,0.0,0.0,
1.5586,2.6820884725362664,2.6175865406028116,2.604102461447971,0.0,0.0,0.01071479136377244,2.634592491529016,0.0,0.0,0.0,0.0,0.0,0.0,0.0,0.0,0.0,0.0,0.0,0.0,0.0,0.0,
1.5731,2.682734401062143,2.618205328357578,2.6047016569684303,0.0,0.0,0.010710504784598245,2.635213795462717,0.0,0.0,0.0,0.0,0.0,0.0,0.0,0.0,0.0,0.0,0.0,0.0,0.0,0.0,
1.5877,2.6833916160659657,2.6188349381021756,2.6053113142815083,0.0,0.0,0.010706121617370907,2.635845956149883,0.0,0.0,0.0,0.0,0.0,0.0,0.0,0.0,0.0,0.0,0.0,0.0,0.0,0.0,
1.6023,2.6840557103183946,2.6194711481265913,2.605927344746339,0.0,0.0,0.01070167030726005,2.6364847343971083,0.0,0.0,0.0,0.0,0.0,0.0,0.0,0.0,0.0,0.0,0.0,0.0,0.0,0.0,
1.6168,2.6847220887579004,2.6201095565093553,2.6065454857055057,0.0,0.0,0.010697181147998227,2.637125710324254,0.0,0.0,0.0,0.0,0.0,0.0,0.0,0.0,0.0,0.0,0.0,0.0,0.0,0.0,
1.6314,2.6853999673459175,2.6207589926963912,2.6071742857477664,0.0,0.0,0.01069259130523649,2.6377777485966916,0.0,0.0,0.0,0.0,0.0,0.0,0.0,0.0,0.0,0.0,0.0,0.0,0.0,0.0,
1.646,2.686084799042934,2.6214151008511806,2.607809526696557,0.0,0.0,0.010687930565160736,2.638436475530224,0.0,0.0,0.0,0.0,0.0,0.0,0.0,0.0,0.0,0.0,0.0,0.0,0.0,0.0,
1.6605,2.6867718469672797,2.622073342974889,2.6084468145149646,0.0,0.0,0.010683230637066582,2.6390973348190445,0.0,0.0,0.0,0.0,0.0,0.0,0.0,0.0,0.0,0.0,0.0,0.0,0.0,0.0,
1.6751,2.687470613168077,2.622742823044925,2.609094962795716,0.0,0.0,0.010678425731188068,2.639769466336239,0.0,0.0,0.0,0.0,0.0,0.0,0.0,0.0,0.0,0.0,0.0,0.0,0.0,0.0,
1.6897,2.688176409322745,2.6234190496686827,2.6097496224754035,0.0,0.0,0.01067354702826697,2.6404483604889437,0.0,0.0,0.0,0.0,0.0,0.0,0.0,0.0,0.0,0.0,0.0,0.0,0.0,0.0,
1.7042,2.6888843551754666,2.624097347261646,2.610406266712157,0.0,0.0,0.010668627710620738,2.6411293230497566,0.0,0.0,0.0,0.0,0.0,0.0,0.0,0.0,0.0,0.0,0.0,0.0,0.0,0.0,
