energies(eV),real_xx,real_yy,real_zz,real_xy,real_yz,real_xz,real_ave,imag_xx,imag_yy,imag_zz,imag_xy,imag_yz,imag_xz,imag_ave,absorption_xx,absorption_yy,absorption_zz,absorption_xy,absorption_yz,absorption_xz,absorption_ave,band_gap
0.0,3.3380667201544516,3.3380667201544516,3.24584843080456,0.0,0.0,0.0,3.307327290371154,0.0,0.0,0.0,0.0,0.0,0.0,0.0,0.0,0.0,0.0,0.0,0.0,0.0,0.0,3.6130999999999998
0.0142,3.3380725664791986,3.3380725664791986,3.2458546029295996,0.0,0.0,0.0,3.307333245295999,0.0,0.0,0.0,0.0,0.0,0.0,0.0,0.0,0.0,0.0,0.0,0.0,0.0,0.0,
0.0285,3.3380902707042495,3.3380902707042495,3.245873293824304,0.0,0.0,0.0,3.307351278410934,0.0,0.0,0.0,0.0,0.0,0.0,0.0,0.0,0.0,0.0,0.0,0.0,0.0,0.0,
0.0427,3.338119586038304,3.338119586038304,3.245904243121534,0.0,0.0,0.0,3.3073811383993807,0.0,0.0,0.0,0.0,0.0,0.0,0.0,0.0,0.0,0.0,0.0,0.0,0.0,0.0,
0.0569,3.3381605964741508,3.3381605964741508,3.2459475397899715,0.0,0.0,0.0,3.3074229109127575,0.0,0.0,0.0,0.0,0.0,0.0,0.0,0.0,0.0,0.0,0.0,0.0,0.0,0.0,
0.0712,3.3382137165757406,3.3382137165757406,3.246003621926157,0.0,0.0,0.0,3.307477018359213,0.0,0.0,0.0,0.0,0.0,0.0,0.0,0.0,0.0,0.0,0.0,0.0,0.0,0.0,
0.0854,3.338278205866481,3.338278205866481,3.2460717082982495,0.0,0.0,0.0,3.3075427066770704,0.0,0.0,0.0,0.0,0.0,0.0,0.0,0.0,0.0,0.0,0.0,0.0,0.0,0.0,
0.0996,3.338354397619207,3.338354397619207,3.2461521514103215,0.0,0.0,0.0,3.307620315549579,0.0,0.0,0.0,0.0,0.0,0.0,0.0,0.0,0.0,0.0,0.0,0.0,0.0,0.0,
0.1139,3.3384429558868036,3.3384429558868036,3.2462456531604755,0.0,0.0,0.0,3.3077105216446943,0.0,0.0,0.0,0.0,0.0,0.0,0.0,0.0,0.0,0.0,0.0,0.0,0.0,0.0,
0.1281,3.3385426461990004,3.3385426461990004,3.2463509110608055,0.0,0.0,0.0,3.307812067819602,0.0,0.0,0.0,0.0,0.0,0.0,0.0,0.0,0.0,0.0,0.0,0.0,0.0,0.0,
0.1423,3.3386540512513743,3.3386540512513743,3.246468541333708,0.0,0.0,0.0,3.3079255479454854,0.0,0.0,0.0,0.0,0.0,0.0,0.0,0.0,0.0,0.0,0.0,0.0,0.0,0.0,
0.1566,3.3387780848678306,3.3387780848678306,3.2465995100398417,0.0,0.0,0.0,3.308051893258501,0.0,0.0,0.0,0.0,0.0,0.0,0.0,0.0,0.0,0.0,0.0,0.0,0.0,0.0,
0.1708,3.338913018070024,3.338913018070024,3.246741992782139,0.0,0.0,0.0,3.308189342974062,0.0,0.0,0.0,0.0,0.0,0.0,0.0,0.0,0.0,0.0,0.0,0.0,0.0,0.0,
0.185,3.3390596832252992,3.3390596832252992,3.246896869820539,0.0,0.0,0.0,3.3083387454237125,0.0,0.0,0.0,0.0,0.0,0.0,0.0,0.0,0.0,0.0,0.0,0.0,0.0,0.0,
0.1993,3.3392192443176065,3.3392192443176065,3.2470653718761726,0.0,0.0,0.0,3.3085012868371284,0.0,0.0,0.0,0.0,0.0,0.0,0.0,0.0,0.0,0.0,0.0,0.0,0.0,0.0,
0.2135,3.3393894771393384,3.3393894771393384,3.2472451517269305,0.0,0.0,0.0,3.3086747020018694,0.0,0.0,0.0,0.0,0.0,0.0,0.0,0.0,0.0,0.0,0.0,0.0,0.0,0.0,
0.2277,3.3395714640852057,3.3395714640852057,3.2474373541263,0.0,0.0,0.0,3.308860094098904,0.0,0.0,0.0,0.0,0.0,0.0,0.0,0.0,0.0,0.0,0.0,0.0,0.0,0.0,
0.242,3.3397666197956806,3.3397666197956806,3.2476434750916225,0.0,0.0,0.0,3.309058904894328,0.0,0.0,0.0,0.0,0.0,0.0,0.0,0.0,0.0,0.0,0.0,0.0,0.0,0.0,
0.2562,3.3399722239049283,3.3399722239049283,3.2478606433956627,0.0,0.0,0.0,3.309268363735173,0.0,0.0,0.0,0.0,0.0,0.0,0.0,0.0,0.0,0.0,0.0,0.0,0.0,0.0,
0.2704,3.3401896092979437,3.3401896092979437,3.2480902688788866,0.0,0.0,0.0,3.309489829158258,0.0,0.0,0.0,0.0,0.0,0.0,0.0,0.0,0.0,0.0,0.0,0.0,0.0,0.0,
0.2847,3.3404204418761285,3.3404204418761285,3.248334113629778,0.0,0.0,0.0,3.309724999127345,0.0,0.0,0.0,0.0,0.0,0.0,0.0,0.0,0.0,0.0,0.0,0.0,0.0,0.0,
0.2989,3.3406615039775573,3.3406615039775573,3.248588780969289,0.0,0.0,0.0,3.3099705963081347,0.0,0.0,0.0,0.0,0.0,0.0,0.0,0.0,0.0,0.0,0.0,0.0,0.0,0.0,
0.3131,3.340914379548271,3.340914379548271,3.248855946557208,0.0,0.0,0.0,3.3102282352179166,0.0,0.0,0.0,0.0,0.0,0.0,0.0,0.0,0.0,0.0,0.0,0.0,0.0,0.0,
0.3274,3.3411809864638773,3.3411809864638773,3.249137639468292,0.0,0.0,0.0,3.3104998707986817,0.0,0.0,0.0,0.0,0.0,0.0,0.0,0.0,0.0,0.0,0.0,0.0,0.0,0.0,
0.3416,3.3414576084179863,3.3414576084179863,3.249429935856312,0.0,0.0,0.0,3.3107817175640952,0.0,0.0,0.0,0.0,0.0,0.0,0.0,0.0,0.0,0.0,0.0,0.0,0.0,0.0,
0.3558,3.3417460810970283,3.3417460810970283,3.249734778072558,0.0,0.0,0.0,3.3110756467555382,0.0,0.0,0.0,0.0,0.0,0.0,0.0,0.0,0.0,0.0,0.0,0.0,0.0,0.0,
0.3701,3.3420485751741325,3.3420485751741325,3.250054463235395,0.0,0.0,0.0,3.3113838711945536,0.0,0.0,0.0,0.0,0.0,0.0,0.0,0.0,0.0,0.0,0.0,0.0,0.0,0.0,
0.3843,3.342360874137679,3.342360874137679,3.250384538344121,0.0,0.0,0.0,3.3117020955398266,0.0,0.0,0.0,0.0,0.0,0.0,0.0,0.0,0.0,0.0,0.0,0.0,0.0,0.0,
0.3985,3.342685066203475,3.342685066203475,3.2507272134554004,0.0,0.0,0.0,3.3120324486207835,0.0,0.0,0.0,0.0,0.0,0.0,0.0,0.0,0.0,0.0,0.0,0.0,0.0,0.0,
0.4128,3.3430235757764692,3.3430235757764692,3.251085054932373,0.0,0.0,0.0,3.3123774021617707,0.0,0.0,0.0,0.0,0.0,0.0,0.0,0.0,0.0,0.0,0.0,0.0,0.0,0.0,
0.427,3.3433716843645946,3.3433716843645946,3.251453078357517,0.0,0.0,0.0,3.312732149028902,0.0,0.0,0.0,0.0,0.0,0.0,0.0,0.0,0.0,0.0,0.0,0.0,0.0,0.0,
0.4412,3.343731733612756,3.343731733612756,3.2518337626499445,0.0,0.0,0.0,3.3130990766251522,0.0,0.0,0.0,0.0,0.0,0.0,0.0,0.0,0.0,0.0,0.0,0.0,0.0,0.0,
0.4555,3.3441064027044316,3.3441064027044316,3.25222994476513,0.0,0.0,0.0,3.3134809167246644,0.0,0.0,0.0,0.0,0.0,0.0,0.0,0.0,0.0,0.0,0.0,0.0,0.0,0.0,
0.4697,3.3444904691750357,3.3444904691750357,3.252636106326979,0.0,0.0,0.0,3.3138723482256833,0.0,0.0,0.0,0.0,0.0,0.0,0.0,0.0,0.0,0.0,0.0,0.0,0.0,0.0,
0.4839,3.3448865291102625,3.3448865291102625,3.253054996419943,0.0,0.0,0.0,3.3142760182134894,0.0,0.0,0.0,0.0,0.0,0.0,0.0,0.0,0.0,0.0,0.0,0.0,0.0,0.0,
0.4982,3.3452975176327446,3.3452975176327446,3.2534897240878156,0.0,0.0,0.0,3.314694919784435,0.0,0.0,0.0,0.0,0.0,0.0,0.0,0.0,0.0,0.0,0.0,0.0,0.0,0.0,
0.5124,3.345717706093587,3.345717706093587,3.253934234170674,0.0,0.0,0.0,3.315123215452616,0.0,0.0,0.0,0.0,0.0,0.0,0.0,0.0,0.0,0.0,0.0,0.0,0.0,0.0,
0.5266,3.3461499461444264,3.3461499461444264,3.254391547369007,0.0,0.0,0.0,3.3155638132192866,0.0,0.0,0.0,0.0,0.0,0.0,0.0,0.0,0.0,0.0,0.0,0.0,0.0,0.0,
0.5409,3.3465974301232793,3.3465974301232793,3.254865046462504,0.0,0.0,0.0,3.3160199689030208,0.0,0.0,0.0,0.0,0.0,0.0,0.0,0.0,0.0,0.0,0.0,0.0,0.0,0.0,
0.5551,3.347053920762449,3.347053920762449,3.255348136393489,0.0,0.0,0.0,3.3164853259727956,0.0,0.0,0.0,0.0,0.0,0.0,0.0,0.0,0.0,0.0,0.0,0.0,0.0,0.0,
0.5693,3.347522526519764,3.347522526519764,3.2558441110798895,0.0,0.0,0.0,3.316963054706472,0.0,0.0,0.0,0.0,0.0,0.0,0.0,0.0,0.0,0.0,0.0,0.0,0.0,0.0,
0.5836,3.3480066983422443,3.3480066983422443,3.2563566288392685,0.0,0.0,0.0,3.317456675174586,0.0,0.0,0.0,0.0,0.0,0.0,0.0,0.0,0.0,0.0,0.0,0.0,0.0,0.0,
0.5978,3.348499687682818,3.348499687682818,3.2568785513081875,0.0,0.0,0.0,3.317959308891275,0.0,0.0,0.0,0.0,0.0,0.0,0.0,0.0,0.0,0.0,0.0,0.0,0.0,0.0,
0.612,3.3490048611626033,3.3490048611626033,3.257413447377003,0.0,0.0,0.0,3.3184743899007363,0.0,0.0,0.0,0.0,0.0,0.0,0.0,0.0,0.0,0.0,0.0,0.0,0.0,0.0,
0.6263,3.3495259298506577,3.3495259298506577,3.2579652528612018,0.0,0.0,0.0,3.319005704187506,0.0,0.0,0.0,0.0,0.0,0.0,0.0,0.0,0.0,0.0,0.0,0.0,0.0,0.0,
0.6405,3.350055631030145,3.350055631030145,3.2585262823831753,0.0,0.0,0.0,3.319545848147822,0.0,0.0,0.0,0.0,0.0,0.0,0.0,0.0,0.0,0.0,0.0,0.0,0.0,0.0,
0.6547,3.3505975909614167,3.3505975909614167,3.259100381717731,0.0,0.0,0.0,3.3200985212135214,0.0,0.0,0.0,0.0,0.0,0.0,0.0,0.0,0.0,0.0,0.0,0.0,0.0,0.0,
0.669,3.351155782470327,3.351155782470327,3.2596917662999276,0.0,0.0,0.0,3.320667777080194,0.0,0.0,0.0,0.0,0.0,0.0,0.0,0.0,0.0,0.0,0.0,0.0,0.0,0.0,
0.6832,3.351722425545958,3.351722425545958,3.2602921997227017,0.0,0.0,0.0,3.321245683604873,0.0,0.0,0.0,0.0,0.0,0.0,0.0,0.0,0.0,0.0,0.0,0.0,0.0,0.0,
0.6974,3.35230140768486,3.35230140768486,3.26090580671796,0.0,0.0,0.0,3.32183620736256,0.0,0.0,0.0,0.0,0.0,0.0,0.0,0.0,0.0,0.0,0.0,0.0,0.0,0.0,
0.7117,3.352896965228486,3.352896965228486,3.2615370846276757,0.0,0.0,0.0,3.3224436716948826,0.0,0.0,0.0,0.0,0.0,0.0,0.0,0.0,0.0,0.0,0.0,0.0,0.0,0.0,
0.7259,3.35350079750918,3.35350079750918,3.2621772416858077,0.0,0.0,0.0,3.3230596122347222,0.0,0.0,0.0,0.0,0.0,0.0,0.0,0.0,0.0,0.0,0.0,0.0,0.0,0.0,
0.7401,3.354117054980062,3.354117054980062,3.262830683818525,0.0,0.0,0.0,3.323688264592883,0.0,0.0,0.0,0.0,0.0,0.0,0.0,0.0,0.0,0.0,0.0,0.0,0.0,0.0,
0.7544,3.3547502393836437,3.3547502393836437,3.2635021927323895,0.0,0.0,0.0,3.3243342238332256,0.0,0.0,0.0,0.0,0.0,0.0,0.0,0.0,0.0,0.0,0.0,0.0,0.0,0.0,
0.7686,3.355391525789821,3.355391525789821,3.2641824166504705,0.0,0.0,0.0,3.3249884894100377,0.0,0.0,0.0,0.0,0.0,0.0,0.0,0.0,0.0,0.0,0.0,0.0,0.0,0.0,
0.7828,3.356045329454509,3.356045329454509,3.264876045099489,0.0,0.0,0.0,3.3256555680028357,0.0,0.0,0.0,0.0,0.0,0.0,0.0,0.0,0.0,0.0,0.0,0.0,0.0,0.0,
0.7971,3.356716419536326,3.356716419536326,3.2655881467832244,0.0,0.0,0.0,3.3263403286186257,0.0,0.0,0.0,0.0,0.0,0.0,0.0,0.0,0.0,0.0,0.0,0.0,0.0,0.0,
0.8113,3.3573954429886186,3.3573954429886186,3.266308804931102,0.0,0.0,0.0,3.3270332303027796,0.0,0.0,0.0,0.0,0.0,0.0,0.0,0.0,0.0,0.0,0.0,0.0,0.0,0.0,
0.8255,3.3580870818450492,3.3580870818450492,3.2670429952502826,0.0,0.0,0.0,3.3277390529801267,0.0,0.0,0.0,0.0,0.0,0.0,0.0,0.0,0.0,0.0,0.0,0.0,0.0,0.0,
0.8398,3.3587963748279925,3.3587963748279925,3.267796076254816,0.0,0.0,0.0,3.328462941970267,0.0,0.0,0.0,0.0,0.0,0.0,0.0,0.0,0.0,0.0,0.0,0.0,0.0,0.0,
0.854,3.359513436666152,3.359513436666152,3.2685575608573045,0.0,0.0,0.0,3.3291948113965364,0.0,0.0,0.0,0.0,0.0,0.0,0.0,0.0,0.0,0.0,0.0,0.0,0.0,0.0,
0.8682,3.360243218277662,3.360243218277662,3.2693327137042183,0.0,0.0,0.0,3.329939716753181,0.0,0.0,0.0,0.0,0.0,0.0,0.0,0.0,0.0,0.0,0.0,0.0,0.0,0.0,
0.8825,3.3609910302321264,3.3609910302321264,3.270127186118853,0.0,0.0,0.0,3.3307030821943684,0.0,0.0,0.0,0.0,0.0,0.0,0.0,0.0,0.0,0.0,0.0,0.0,0.0,0.0,
0.8967,3.3617464506656445,3.3617464506656445,3.2709299150234217,0.0,0.0,0.0,3.331474272118237,0.0,0.0,0.0,0.0,0.0,0.0,0.0,0.0,0.0,0.0,0.0,0.0,0.0,0.0,
0.9109,3.3625147016223575,3.3625147016223575,3.2717464569469485,0.0,0.0,0.0,3.3322586200638877,0.0,0.0,0.0,0.0,0.0,0.0,0.0,0.0,0.0,0.0,0.0,0.0,0.0,0.0,
0.9252,3.3633013679420927,3.3633013679420927,3.272582759213199,0.0,0.0,0.0,3.333061831699128,0.0,0.0,0.0,0.0,0.0,0.0,0.0,0.0,0.0,0.0,0.0,0.0,0.0,0.0,
0.9394,3.3640954865337713,3.3640954865337713,3.2734271767188954,0.0,0.0,0.0,3.3338727165954793,0.0,0.0,0.0,0.0,0.0,0.0,0.0,0.0,0.0,0.0,0.0,0.0,0.0,0.0,
0.9536,3.3649025529476186,3.3649025529476186,3.2742855610094312,0.0,0.0,0.0,3.3346968889682227,0.0,0.0,0.0,0.0,0.0,0.0,0.0,0.0,0.0,0.0,0.0,0.0,0.0,0.0,
0.9679,3.365728428859794,3.365728428859794,3.2751641587990865,0.0,0.0,0.0,3.3355403388395586,0.0,0.0,0.0,0.0,0.0,0.0,0.0,0.0,0.0,0.0,0.0,0.0,0.0,0.0,
0.9821,3.366561605044236,3.366561605044236,3.276050736550709,0.0,0.0,0.0,3.3363913155463933,0.0,0.0,0.0,0.0,0.0,0.0,0.0,0.0,0.0,0.0,0.0,0.0,0.0,0.0,
0.9963,3.3674078530793334,3.3674078530793334,3.2769514441568734,0.0,0.0,0.0,3.3372557167718466,0.0,0.0,0.0,0.0,0.0,0.0,0.0,0.0,0.0,0.0,0.0,0.0,0.0,0.0,
1.0106,3.3682733141909784,3.3682733141909784,3.27787283131847,0.0,0.0,0.0,3.3381398199001424,0.0,0.0,0.0,0.0,0.0,0.0,0.0,0.0,0.0,0.0,0.0,0.0,0.0,0.0,
1.0248,3.369145927829448,3.369145927829448,3.278802069270071,0.0,0.0,0.0,3.3390313083096554,0.0,0.0,0.0,0.0,0.0,0.0,0.0,0.0,0.0,0.0,0.0,0.0,0.0,0.0,
1.039,3.3700317442695407,3.3700317442695407,3.279745609786305,0.0,0.0,0.0,3.339936366108462,0.0,0.0,0.0,0.0,0.0,0.0,0.0,0.0,0.0,0.0,0.0,0.0,0.0,0.0,
1.0533,3.370937187151986,3.370937187151986,3.280710309364564,0.0,0.0,0.0,3.340861561222846,0.0,0.0,0.0,0.0,0.0,0.0,0.0,0.0,0.0,0.0,0.0,0.0,0.0,0.0,
1.0675,3.3718496391258643,3.3718496391258643,3.281682736816953,0.0,0.0,0.0,3.3417940050228943,0.0,0.0,0.0,0.0,0.0,0.0,0.0,0.0,0.0,0.0,0.0,0.0,0.0,0.0,
1.0817,3.3727754319810224,3.3727754319810224,3.282669649546798,0.0,0.0,0.0,3.342740171169614,0.0,0.0,0.0,0.0,0.0,0.0,0.0,0.0,0.0,0.0,0.0,0.0,0.0,0.0,
1.096,3.373721274794422,3.373721274794422,3.283678214879877,0.0,0.0,0.0,3.3437069214895736,0.0,0.0,0.0,0.0,0.0,0.0,0.0,0.0,0.0,0.0,0.0,0.0,0.0,0.0,
1.1102,3.374673987639168,3.374673987639168,3.2846943915972564,0.0,0.0,0.0,3.344680788958531,0.0,0.0,0.0,0.0,0.0,0.0,0.0,0.0,0.0,0.0,0.0,0.0,0.0,0.0,
1.1244,3.3756401867937527,3.3756401867937527,3.285725246697443,0.0,0.0,0.0,3.3456685400949824,0.0,0.0,0.0,0.0,0.0,0.0,0.0,0.0,0.0,0.0,0.0,0.0,0.0,0.0,
1.1387,3.376626869953983,3.376626869953983,3.286778262597654,0.0,0.0,0.0,3.3466773341685396,0.0,0.0,0.0,0.0,0.0,0.0,0.0,0.0,0.0,0.0,0.0,0.0,0.0,0.0,
1.1529,3.3776202885360003,3.3776202885360003,3.2878387800089373,0.0,0.0,0.0,3.3476931190269794,0.0,0.0,0.0,0.0,0.0,0.0,0.0,0.0,0.0,0.0,0.0,0.0,0.0,0.0,
1.1671,3.3786273464403194,3.3786273464403194,3.2889141797201735,0.0,0.0,0.0,3.3487229575336044,0.0,0.0,0.0,0.0,0.0,0.0,0.0,0.0,0.0,0.0,0.0,0.0,0.0,0.0,
1.1814,3.379655333330804,3.379655333330804,3.2900122637439146,0.0,0.0,0.0,3.3497743101351745,0.0,0.0,0.0,0.0,0.0,0.0,0.0,0.0,0.0,0.0,0.0,0.0,0.0,0.0,
1.1956,3.380689925569528,3.380689925569528,3.291117746234841,0.0,0.0,0.0,3.3508325324579658,0.0,0.0,0.0,0.0,0.0,0.0,0.0,0.0,0.0,0.0,0.0,0.0,0.0,0.0,
1.2098,3.381738317977623,3.381738317977623,3.2922383262056933,0.0,0.0,0.0,3.35190498738698,0.0,0.0,0.0,0.0,0.0,0.0,0.0,0.0,0.0,0.0,0.0,0.0,0.0,0.0,
1.2241,3.382808095708403,3.382808095708403,3.293382130019378,0.0,0.0,0.0,3.3529994404787278,0.0,0.0,0.0,0.0,0.0,0.0,0.0,0.0,0.0,0.0,0.0,0.0,0.0,0.0,
1.2383,3.383884353346659,3.383884353346659,3.2945332363222812,0.0,0.0,0.0,3.3541006476718667,0.0,0.0,0.0,0.0,0.0,0.0,0.0,0.0,0.0,0.0,0.0,0.0,0.0,0.0,
1.2525,3.3849745801031554,3.3849745801031554,3.295699667032878,0.0,0.0,0.0,3.3552162757463964,0.0,0.0,0.0,0.0,0.0,0.0,0.0,0.0,0.0,0.0,0.0,0.0,0.0,0.0,
1.2668,3.386086660320469,3.386086660320469,3.2968898778821,0.0,0.0,0.0,3.3563543995076794,0.0,0.0,0.0,0.0,0.0,0.0,0.0,0.0,0.0,0.0,0.0,0.0,0.0,0.0,
1.281,3.387205099745421,3.387205099745421,3.298087302570611,0.0,0.0,0.0,3.3574991673538173,0.0,0.0,0.0,0.0,0.0,0.0,0.0,0.0,0.0,0.0,0.0,0.0,0.0,0.0,
1.2952,3.3883376856242697,3.3883376856242697,3.2993002908642115,0.0,0.0,0.0,3.3586585540375835,0.0,0.0,0.0,0.0,0.0,0.0,0.0,0.0,0.0,0.0,0.0,0.0,0.0,0.0,
1.3095,3.389492605373353,3.389492605373353,3.3005376331539718,0.0,0.0,0.0,3.3598409479668927,0.0,0.0,0.0,0.0,0.0,0.0,0.0,0.0,0.0,0.0,0.0,0.0,0.0,0.0,
1.3237,3.390653768491929,3.390653768491929,3.301782108251121,0.0,0.0,0.0,3.3610298817449933,0.0,0.0,0.0,0.0,0.0,0.0,0.0,0.0,0.0,0.0,0.0,0.0,0.0,0.0,
1.3379,3.3918292640904357,3.3918292640904357,3.3030423989816704,0.0,0.0,0.0,3.362233642387514,0.0,0.0,0.0,0.0,0.0,0.0,0.0,0.0,0.0,0.0,0.0,0.0,0.0,0.0,
1.3522,3.3930275867351694,3.3930275867351694,3.3043276359767364,0.0,0.0,0.0,3.363460936482358,0.0,0.0,0.0,0.0,0.0,0.0,0.0,0.0,0.0,0.0,0.0,0.0,0.0,0.0,
1.3664,3.394232041906863,3.394232041906863,3.30561993268514,0.0,0.0,0.0,3.3646946721662885,0.0,0.0,0.0,0.0,0.0,0.0,0.0,0.0,0.0,0.0,0.0,0.0,0.0,0.0,
1.3806,3.395451024598518,3.395451024598518,3.3069283104904117,0.0,0.0,0.0,3.3659434532291495,0.0,0.0,0.0,0.0,0.0,0.0,0.0,0.0,0.0,0.0,0.0,0.0,0.0,0.0,
1.3949,3.3966933408015505,3.3966933408015505,3.308262246145364,0.0,0.0,0.0,3.3672163092494887,0.0,0.0,0.0,0.0,0.0,0.0,0.0,0.0,0.0,0.0,0.0,0.0,0.0,0.0,
1.4091,3.397941683832474,3.397941683832474,3.3096031767097958,0.0,0.0,0.0,3.368495514791581,0.0,0.0,0.0,0.0,0.0,0.0,0.0,0.0,0.0,0.0,0.0,0.0,0.0,0.0,
1.4233,3.399204758782335,3.399204758782335,3.3109604679202937,0.0,0.0,0.0,3.369789995161655,0.0,0.0,0.0,0.0,0.0,0.0,0.0,0.0,0.0,0.0,0.0,0.0,0.0,0.0,
1.4376,3.400491687549609,3.400491687549609,3.3123439488499575,0.0,0.0,0.0,3.371109107983058,0.0,0.0,0.0,0.0,0.0,0.0,0.0,0.0,0.0,0.0,0.0,0.0,0.0,0.0,
1.4518,3.4017845427521594,3.4017845427521594,3.313734368563189,0.0,0.0,0.0,3.372434484689169,0.0,0.0,0.0,0.0,0.0,0.0,0.0,0.0,0.0,0.0,0.0,0.0,0.0,0.0,
1.466,3.4030923439990515,3.4030923439990515,3.315141443258252,0.0,0.0,0.0,3.3737753770854515,0.0,0.0,0.0,0.0,0.0,0.0,0.0,0.0,0.0,0.0,0.0,0.0,0.0,0.0,
1.4803,3.404424533793101,3.404424533793101,3.3165753608605426,0.0,0.0,0.0,3.375141476148915,0.0,0.0,0.0,0.0,0.0,0.0,0.0,0.0,0.0,0.0,0.0,0.0,0.0,0.0,
1.4945,3.4057625551152144,3.4057625551152144,3.31801617022464,0.0,0.0,0.0,3.3765137601516897,0.0,0.0,0.0,0.0,0.0,0.0,0.0,0.0,0.0,0.0,0.0,0.0,0.0,0.0,
1.5087,3.4071157467253395,3.4071157467253395,3.319473944448393,0.0,0.0,0.0,3.377901812633024,0.0,0.0,0.0,0.0,0.0,0.0,0.0,0.0,0.0,0.0,0.0,0.0,0.0,0.0,
1.523,3.408493876652113,3.408493876652113,3.3209592371926426,0.0,0.0,0.0,3.379315663498956,0.0,0.0,0.0,0.0,0.0,0.0,0.0,0.0,0.0,0.0,0.0,0.0,0.0,0.0,
1.5372,3.4098777488811485,3.4098777488811485,3.3224513842492325,0.0,0.0,0.0,3.380735627337176,0.0,0.0,0.0,0.0,0.0,0.0,0.0,0.0,0.0,0.0,0.0,0.0,0.0,0.0,
1.5514,3.411277026178048,3.411277026178048,3.3239608224002803,0.0,0.0,0.0,3.382171624918792,0.0,0.0,0.0,0.0,0.0,0.0,0.0,0.0,0.0,0.0,0.0,0.0,0.0,0.0,
1.5657,3.4127018072523096,3.4127018072523096,3.3254984782955925,0.0,0.0,0.0,3.383634030933404,0.0,0.0,0.0,0.0,0.0,0.0,0.0,0.0,0.0,0.0,0.0,0.0,0.0,0.0,
1.5799,3.414132247299017,3.414132247299017,3.3270429611401786,0.0,0.0,0.0,3.385102485246071,0.0,0.0,0.0,0.0,0.0,0.0,0.0,0.0,0.0,0.0,0.0,0.0,0.0,0.0,
1.5941,3.4155783381751617,3.4155783381751617,3.328605078550678,0.0,0.0,0.0,3.3865872516336673,0.0,0.0,0.0,0.0,0.0,0.0,0.0,0.0,0.0,0.0,0.0,0.0,0.0,0.0,
1.6084,3.4170505146700965,3.4170505146700965,3.330196137810521,0.0,0.0,0.0,3.388099055716905,0.0,0.0,0.0,0.0,0.0,0.0,0.0,0.0,0.0,0.0,0.0,0.0,0.0,0.0,
1.6226,3.418528272937983,3.418528272937983,3.3317940073073036,0.0,0.0,0.0,3.38961685106109,0.0,0.0,0.0,0.0,0.0,0.0,0.0,0.0,0.0,0.0,0.0,0.0,0.0,0.0,
1.6368,3.420021939254048,3.420021939254048,3.333409873028543,0.0,0.0,0.0,3.391151250512213,0.0,0.0,0.0,0.0,0.0,0.0,0.0,0.0,0.0,0.0,0.0,0.0,0.0,0.0,
1.6511,3.4215422901412924,3.4215422901412924,3.3350554309496436,0.0,0.0,0.0,3.3927133370774096,0.0,0.0,0.0,0.0,0.0,0.0,0.0,0.0,0.0,0.0,0.0,0.0,0.0,0.0,
1.6653,3.4230681519879536,3.4230681519879536,3.3367077936655596,0.0,0.0,0.0,3.3942813658804893,0.0,0.0,0.0,0.0,0.0,0.0,0.0,0.0,0.0,0.0,0.0,0.0,0.0,0.0,
1.6795,3.4246101910661957,3.4246101910661957,3.3383785334793687,0.0,0.0,0.0,3.39586630520392,0.0,0.0,0.0,0.0,0.0,0.0,0.0,0.0,0.0,0.0,0.0,0.0,0.0,0.0,
1.6938,3.426179531552821,3.426179531552821,3.3400797435546776,0.0,0.0,0.0,3.397479602220107,0.0,0.0,0.0,0.0,0.0,0.0,0.0,0.0,0.0,0.0,0.0,0.0,0.0,0.0,
1.708,3.4277543188499,3.4277543188499,3.3417877649331564,0.0,0.0,0.0,3.399098800877652,0.0,0.0,0.0,0.0,0.0,0.0,0.0,0.0,0.0,0.0,0.0,0.0,0.0,0.0,
1.7222,3.429345565068499,3.429345565068499,3.3435145646102815,0.0,0.0,0.0,3.4007352315824266,0.0,0.0,0.0,0.0,0.0,0.0,0.0,0.0,0.0,0.0,0.0,0.0,0.0,0.0,
1.7365,3.430964748238277,3.430964748238277,3.3452726418987995,0.0,0.0,0.0,3.402400712791785,0.0,0.0,0.0,0.0,0.0,0.0,0.0,0.0,0.0,0.0,0.0,0.0,0.0,0.0,
1.7507,3.432589321037593,3.432589321037593,3.3470375496963074,0.0,0.0,0.0,3.404072063923831,0.0,0.0,0.0,0.0,0.0,0.0,0.0,0.0,0.0,0.0,0.0,0.0,0.0,0.0,
1.7649,3.4342306475339117,3.4342306475339117,3.3488216585259,0.0,0.0,0.0,3.4057609845312413,0.0,0.0,0.0,0.0,0.0,0.0,0.0,0.0,0.0,0.0,0.0,0.0,0.0,0.0,
1.7792,3.4359005661009916,3.4359005661009916,3.3506378833037997,0.0,0.0,0.0,3.407479671835261,0.0,0.0,0.0,0.0,0.0,0.0,0.0,0.0,0.0,0.0,0.0,0.0,0.0,0.0,
1.7934,3.437575824414939,3.437575824414939,3.352460971314874,0.0,0.0,0.0,3.4092042067149175,0.0,0.0,0.0,0.0,0.0,0.0,0.0,0.0,0.0,0.0,0.0,0.0,0.0,0.0,
1.8076,3.4392681449058142,3.4392681449058142,3.354303705931722,0.0,0.0,0.0,3.4109466652477836,0.0,0.0,0.0,0.0,0.0,0.0,0.0,0.0,0.0,0.0,0.0,0.0,0.0,0.0,
1.8219,3.440989733089268,3.440989733089268,3.3561794276531414,0.0,0.0,0.0,3.4127196312772257,0.0,0.0,0.0,0.0,0.0,0.0,0.0,0.0,0.0,0.0,0.0,0.0,0.0,0.0,
1.8361,3.442716618794495,3.442716618794495,3.358062059752653,0.0,0.0,0.0,3.414498432447214,0.0,0.0,0.0,0.0,0.0,0.0,0.0,0.0,0.0,0.0,0.0,0.0,0.0,0.0,
1.8503,3.4444608895230973,3.4444608895230973,3.3599648082919535,0.0,0.0,0.0,3.416295529112716,0.0,0.0,0.0,0.0,0.0,0.0,0.0,0.0,0.0,0.0,0.0,0.0,0.0,0.0,
