energies(eV),real_xx,real_yy,real_zz,real_xy,real_yz,real_xz,real_ave,imag_xx,imag_yy,imag_zz,imag_xy,imag_yz,imag_xz,imag_ave,absorption_xx,absorption_yy,absorption_zz,absorption_xy,absorption_yz,absorption_xz,absorption_ave,band_gap
0.0,4.1212280296124595,3.834791447885577,4.265653418526355,0.0,0.0,0.0,4.073890965341464,0.0,0.0,0.0,0.0,0.0,0.0,0.0,0.0,0.0,0.0,0.0,0.0,0.0,0.0,3.3569999999999993
0.0144,4.1212388391823005,3.834800024016287,4.265664441059196,0.0,0.0,0.0,4.073901101419261,0.0,0.0,0.0,0.0,0.0,0.0,0.0,0.0,0.0,0.0,0.0,0.0,0.0,0.0,
0.0288,4.121271268600629,3.834825752918949,4.265697509355418,0.0,0.0,0.0,4.073931510291665,0.0,0.0,0.0,0.0,0.0,0.0,0.0,0.0,0.0,0.0,0.0,0.0,0.0,0.0,
0.0432,4.121325319994082,3.8348686361252367,4.265752625508286,0.0,0.0,0.0,4.073982193875868,0.0,0.0,0.0,0.0,0.0,0.0,0.0,0.0,0.0,0.0,0.0,0.0,0.0,0.0,
0.0576,4.121400996907589,3.83492867618838,4.265829793007134,0.0,0.0,0.0,4.074053155367701,0.0,0.0,0.0,0.0,0.0,0.0,0.0,0.0,0.0,0.0,0.0,0.0,0.0,0.0,
0.0719,4.121497553961182,3.835005281388038,4.265928251618385,0.0,0.0,0.0,4.074143695655868,0.0,0.0,0.0,0.0,0.0,0.0,0.0,0.0,0.0,0.0,0.0,0.0,0.0,0.0,
0.0863,4.121616347945222,3.835099527693466,4.266049384628159,0.0,0.0,0.0,4.074255086755616,0.0,0.0,0.0,0.0,0.0,0.0,0.0,0.0,0.0,0.0,0.0,0.0,0.0,0.0,
0.1007,4.121756786543267,3.8352109446079847,4.266192587778243,0.0,0.0,0.0,4.074386772976498,0.0,0.0,0.0,0.0,0.0,0.0,0.0,0.0,0.0,0.0,0.0,0.0,0.0,0.0,
0.1151,4.1219188789737,3.83533953877101,4.26635787014229,0.0,0.0,0.0,4.0745387626289995,0.0,0.0,0.0,0.0,0.0,0.0,0.0,0.0,0.0,0.0,0.0,0.0,0.0,0.0,
0.1295,4.122102635879648,3.8354853178481503,4.266545242196441,0.0,0.0,0.0,4.0747110653080805,0.0,0.0,0.0,0.0,0.0,0.0,0.0,0.0,0.0,0.0,0.0,0.0,0.0,0.0,
0.1439,4.1223080693313925,3.8356482905328244,4.266754715821396,0.0,0.0,0.0,4.074903691895204,0.0,0.0,0.0,0.0,0.0,0.0,0.0,0.0,0.0,0.0,0.0,0.0,0.0,0.0,
0.1583,4.122535192828764,3.8358284665480387,4.266986304305043,0.0,0.0,0.0,4.075116654560615,0.0,0.0,0.0,0.0,0.0,0.0,0.0,0.0,0.0,0.0,0.0,0.0,0.0,0.0,
0.1727,4.122784021303957,3.8360258566484378,4.267240022344959,0.0,0.0,0.0,4.075349966765785,0.0,0.0,0.0,0.0,0.0,0.0,0.0,0.0,0.0,0.0,0.0,0.0,0.0,0.0,
0.187,4.123052617368897,3.8362389228082647,4.26751389393153,0.0,0.0,0.0,4.075601811369563,0.0,0.0,0.0,0.0,0.0,0.0,0.0,0.0,0.0,0.0,0.0,0.0,0.0,0.0,
0.2014,4.123344755310624,3.8364706577209176,4.267811766857131,0.0,0.0,0.0,4.075875726629557,0.0,0.0,0.0,0.0,0.0,0.0,0.0,0.0,0.0,0.0,0.0,0.0,0.0,0.0,
0.2158,4.123658651514933,3.836719645095771,4.268131821786396,0.0,0.0,0.0,4.0761700394657,0.0,0.0,0.0,0.0,0.0,0.0,0.0,0.0,0.0,0.0,0.0,0.0,0.0,0.0,
0.2302,4.123994326667573,3.83698589983107,4.268474079079724,0.0,0.0,0.0,4.0764847685261225,0.0,0.0,0.0,0.0,0.0,0.0,0.0,0.0,0.0,0.0,0.0,0.0,0.0,0.0,
0.2446,4.124351802905062,3.837269437869969,4.268838560525538,0.0,0.0,0.0,4.076819933766856,0.0,0.0,0.0,0.0,0.0,0.0,0.0,0.0,0.0,0.0,0.0,0.0,0.0,0.0,
0.259,4.124731103819606,3.8375702762038655,4.269225289344735,0.0,0.0,0.0,4.077175556456069,0.0,0.0,0.0,0.0,0.0,0.0,0.0,0.0,0.0,0.0,0.0,0.0,0.0,0.0,
0.2734,4.125132254463775,3.8378884328758534,4.269634290195482,0.0,0.0,0.0,4.07755165917837,0.0,0.0,0.0,0.0,0.0,0.0,0.0,0.0,0.0,0.0,0.0,0.0,0.0,0.0,
0.2878,4.125555281355855,3.838223926984625,4.2700655891785,0.0,0.0,0.0,4.07794826583966,0.0,0.0,0.0,0.0,0.0,0.0,0.0,0.0,0.0,0.0,0.0,0.0,0.0,0.0,
0.3021,4.125997047091081,3.838574268430402,4.270515986624113,0.0,0.0,0.0,4.078362434048532,0.0,0.0,0.0,0.0,0.0,0.0,0.0,0.0,0.0,0.0,0.0,0.0,0.0,0.0,
0.3165,4.1264637595024904,3.838944378189165,4.27099181062693,0.0,0.0,0.0,4.078799982772861,0.0,0.0,0.0,0.0,0.0,0.0,0.0,0.0,0.0,0.0,0.0,0.0,0.0,0.0,
0.3309,4.126952436348062,3.839331888896463,4.271490019558301,0.0,0.0,0.0,4.079258114934276,0.0,0.0,0.0,0.0,0.0,0.0,0.0,0.0,0.0,0.0,0.0,0.0,0.0,0.0,
0.3453,4.127463110057457,3.839736823907933,4.272010645336225,0.0,0.0,0.0,4.079736859767205,0.0,0.0,0.0,0.0,0.0,0.0,0.0,0.0,0.0,0.0,0.0,0.0,0.0,0.0,
0.3597,4.1279958145568685,3.840159207656857,4.272553721351421,0.0,0.0,0.0,4.080236247855049,0.0,0.0,0.0,0.0,0.0,0.0,0.0,0.0,0.0,0.0,0.0,0.0,0.0,0.0,
0.3741,4.128550585276397,3.8405990656596005,4.273119282474548,0.0,0.0,0.0,4.080756311136849,0.0,0.0,0.0,0.0,0.0,0.0,0.0,0.0,0.0,0.0,0.0,0.0,0.0,0.0,
0.3885,4.129127459157516,3.8410564245208243,4.2737073650633,0.0,0.0,0.0,4.08129708291388,0.0,0.0,0.0,0.0,0.0,0.0,0.0,0.0,0.0,0.0,0.0,0.0,0.0,0.0,
0.4029,4.129726474660853,3.841531311939197,4.274318006970388,0.0,0.0,0.0,4.0818585978568125,0.0,0.0,0.0,0.0,0.0,0.0,0.0,0.0,0.0,0.0,0.0,0.0,0.0,0.0,
0.4172,4.130343281326775,3.842020276350347,4.274946772031848,0.0,0.0,0.0,4.082436776569657,0.0,0.0,0.0,0.0,0.0,0.0,0.0,0.0,0.0,0.0,0.0,0.0,0.0,0.0,
0.4316,4.130986547100608,3.842530186145328,4.275602494790051,0.0,0.0,0.0,4.083039742678662,0.0,0.0,0.0,0.0,0.0,0.0,0.0,0.0,0.0,0.0,0.0,0.0,0.0,0.0,
0.446,4.1316520787729765,3.8430577139984434,4.27628089917598,0.0,0.0,0.0,4.0836635639824665,0.0,0.0,0.0,0.0,0.0,0.0,0.0,0.0,0.0,0.0,0.0,0.0,0.0,0.0,
0.4604,4.132339920955779,3.843602892037987,4.276982029094729,0.0,0.0,0.0,4.084308280696165,0.0,0.0,0.0,0.0,0.0,0.0,0.0,0.0,0.0,0.0,0.0,0.0,0.0,0.0,
0.4748,4.1330501198244765,3.844165753518214,4.277705929989615,0.0,0.0,0.0,4.084973934444101,0.0,0.0,0.0,0.0,0.0,0.0,0.0,0.0,0.0,0.0,0.0,0.0,0.0,0.0,
0.4892,4.133782723127931,3.844746332826545,4.27845264885207,0.0,0.0,0.0,4.085660568268849,0.0,0.0,0.0,0.0,0.0,0.0,0.0,0.0,0.0,0.0,0.0,0.0,0.0,0.0,
0.5036,4.134537780198803,3.845344665490909,4.279222234231559,0.0,0.0,0.0,4.086368226640424,0.0,0.0,0.0,0.0,0.0,0.0,0.0,0.0,0.0,0.0,0.0,0.0,0.0,0.0,
0.518,4.135315341964099,3.8459607881874764,4.280014736246214,0.0,0.0,0.0,4.08709695546593,0.0,0.0,0.0,0.0,0.0,0.0,0.0,0.0,0.0,0.0,0.0,0.0,0.0,0.0,
0.5323,4.1361098266716425,3.8465902747532055,4.280824464286571,0.0,0.0,0.0,4.0878415219038065,0.0,0.0,0.0,0.0,0.0,0.0,0.0,0.0,0.0,0.0,0.0,0.0,0.0,0.0,
0.5467,4.136932399826447,3.8472419679635177,4.28166279619498,0.0,0.0,0.0,4.088612387994981,0.0,0.0,0.0,0.0,0.0,0.0,0.0,0.0,0.0,0.0,0.0,0.0,0.0,0.0,
0.5611,4.137777639742772,3.84791156792244,4.2825242042278,0.0,0.0,0.0,4.0894044706310035,0.0,0.0,0.0,0.0,0.0,0.0,0.0,0.0,0.0,0.0,0.0,0.0,0.0,0.0,
0.5755,4.13864560382817,3.8485991159736197,4.283408744878303,0.0,0.0,0.0,4.090217821560031,0.0,0.0,0.0,0.0,0.0,0.0,0.0,0.0,0.0,0.0,0.0,0.0,0.0,0.0,
0.5899,4.13953635114357,3.849304654651645,4.284316476266113,0.0,0.0,0.0,4.091052494020443,0.0,0.0,0.0,0.0,0.0,0.0,0.0,0.0,0.0,0.0,0.0,0.0,0.0,0.0,
0.6043,4.140449942416325,3.8500282276914746,4.285247458150042,0.0,0.0,0.0,4.091908542752614,0.0,0.0,0.0,0.0,0.0,0.0,0.0,0.0,0.0,0.0,0.0,0.0,0.0,0.0,
0.6187,4.141386440053575,3.8507698800381456,4.2862017519412365,0.0,0.0,0.0,4.0927860240109855,0.0,0.0,0.0,0.0,0.0,0.0,0.0,0.0,0.0,0.0,0.0,0.0,0.0,0.0,
0.6331,4.142345908156068,3.851529657856806,4.287179420716663,0.0,0.0,0.0,4.093684995576512,0.0,0.0,0.0,0.0,0.0,0.0,0.0,0.0,0.0,0.0,0.0,0.0,0.0,0.0,
0.6475,4.143328412532298,3.8523076085430454,4.288180529233115,0.0,0.0,0.0,4.094605516769486,0.0,0.0,0.0,0.0,0.0,0.0,0.0,0.0,0.0,0.0,0.0,0.0,0.0,0.0,
0.6618,4.144326957501169,3.853098188816732,4.289197947354616,0.0,0.0,0.0,4.0955410312241725,0.0,0.0,0.0,0.0,0.0,0.0,0.0,0.0,0.0,0.0,0.0,0.0,0.0,0.0,
0.6762,4.145355577588941,3.8539125053408116,4.290245972465495,0.0,0.0,0.0,4.096504685131749,0.0,0.0,0.0,0.0,0.0,0.0,0.0,0.0,0.0,0.0,0.0,0.0,0.0,0.0,
0.6906,4.1464074412728555,3.8547451440506295,4.291317641321538,0.0,0.0,0.0,4.0974900755483405,0.0,0.0,0.0,0.0,0.0,0.0,0.0,0.0,0.0,0.0,0.0,0.0,0.0,0.0,
0.705,4.147482621331571,3.855596157364628,4.292413025534914,0.0,0.0,0.0,4.098497268077038,0.0,0.0,0.0,0.0,0.0,0.0,0.0,0.0,0.0,0.0,0.0,0.0,0.0,0.0,
0.7194,4.148581192329298,3.8564655989881387,4.293532198473888,0.0,0.0,0.0,4.099526329930441,0.0,0.0,0.0,0.0,0.0,0.0,0.0,0.0,0.0,0.0,0.0,0.0,0.0,0.0,
0.7338,4.149703230632571,3.8573535239259544,4.294675235279315,0.0,0.0,0.0,4.1005773299459465,0.0,0.0,0.0,0.0,0.0,0.0,0.0,0.0,0.0,0.0,0.0,0.0,0.0,0.0,
0.7482,4.1508488144277464,3.8582599884947473,4.295842212881741,0.0,0.0,0.0,4.101650338601412,0.0,0.0,0.0,0.0,0.0,0.0,0.0,0.0,0.0,0.0,0.0,0.0,0.0,0.0,
0.7626,4.152018023738927,3.859185050336432,4.297033210018973,0.0,0.0,0.0,4.102745428031444,0.0,0.0,0.0,0.0,0.0,0.0,0.0,0.0,0.0,0.0,0.0,0.0,0.0,0.0,
0.7769,4.153202574365893,3.8601221503672463,4.29823978579145,0.0,0.0,0.0,4.1038548368415295,0.0,0.0,0.0,0.0,0.0,0.0,0.0,0.0,0.0,0.0,0.0,0.0,0.0,0.0,
0.7913,4.154419116714827,3.8610844548606997,4.299478897309127,0.0,0.0,0.0,4.104994156294885,0.0,0.0,0.0,0.0,0.0,0.0,0.0,0.0,0.0,0.0,0.0,0.0,0.0,0.0,
0.8057,4.155659535262856,3.8620655372062185,4.300742275009941,0.0,0.0,0.0,4.106155782493005,0.0,0.0,0.0,0.0,0.0,0.0,0.0,0.0,0.0,0.0,0.0,0.0,0.0,0.0,
0.8201,4.156923917560191,3.863065460474643,4.302030005033036,0.0,0.0,0.0,4.107339794355957,0.0,0.0,0.0,0.0,0.0,0.0,0.0,0.0,0.0,0.0,0.0,0.0,0.0,0.0,
0.8345,4.158212353091579,3.864084289132854,4.303342175419954,0.0,0.0,0.0,4.1085462725481285,0.0,0.0,0.0,0.0,0.0,0.0,0.0,0.0,0.0,0.0,0.0,0.0,0.0,0.0,
0.8489,4.159524933297259,3.8651220890592923,4.3046788761351955,0.0,0.0,0.0,4.109775299497249,0.0,0.0,0.0,0.0,0.0,0.0,0.0,0.0,0.0,0.0,0.0,0.0,0.0,0.0,
0.8633,4.160861751594499,3.8661789275596683,4.306040199087514,0.0,0.0,0.0,4.111026959413894,0.0,0.0,0.0,0.0,0.0,0.0,0.0,0.0,0.0,0.0,0.0,0.0,0.0,0.0,
0.8777,4.162222903399714,3.867254873383366,4.307426238151434,0.0,0.0,0.0,4.112301338311505,0.0,0.0,0.0,0.0,0.0,0.0,0.0,0.0,0.0,0.0,0.0,0.0,0.0,0.0,
0.892,4.163598779581433,3.868342325427177,4.308827205835627,0.0,0.0,0.0,4.113589436948079,0.0,0.0,0.0,0.0,0.0,0.0,0.0,0.0,0.0,0.0,0.0,0.0,0.0,0.0,
0.9064,4.165008722064432,3.8694565640783978,4.310262793394875,0.0,0.0,0.0,4.1149093598459014,0.0,0.0,0.0,0.0,0.0,0.0,0.0,0.0,0.0,0.0,0.0,0.0,0.0,0.0,
0.9208,4.166443295816846,3.8705901246188796,4.311723390009732,0.0,0.0,0.0,4.116252270148486,0.0,0.0,0.0,0.0,0.0,0.0,0.0,0.0,0.0,0.0,0.0,0.0,0.0,0.0,
0.9352,4.167902604469786,3.871743081733717,4.313209097632677,0.0,0.0,0.0,4.117618261278726,0.0,0.0,0.0,0.0,0.0,0.0,0.0,0.0,0.0,0.0,0.0,0.0,0.0,0.0,
0.9496,4.169386753772763,3.8729155116397482,4.31472002029936,0.0,0.0,0.0,4.119007428570623,0.0,0.0,0.0,0.0,0.0,0.0,0.0,0.0,0.0,0.0,0.0,0.0,0.0,0.0,
0.964,4.1708958516193935,3.874107492104733,4.316256264153894,0.0,0.0,0.0,4.1204198692926735,0.0,0.0,0.0,0.0,0.0,0.0,0.0,0.0,0.0,0.0,0.0,0.0,0.0,0.0,
0.9784,4.17243000807384,3.875319102466873,4.31781793747475,0.0,0.0,0.0,4.1218556826718205,0.0,0.0,0.0,0.0,0.0,0.0,0.0,0.0,0.0,0.0,0.0,0.0,0.0,0.0,
0.9928,4.173989335397984,3.876550423654938,4.319405150701543,0.0,0.0,0.0,4.123314969918155,0.0,0.0,0.0,0.0,0.0,0.0,0.0,0.0,0.0,0.0,0.0,0.0,0.0,0.0,
1.0071,4.175562856371487,3.877792781471966,4.321006727290998,0.0,0.0,0.0,4.1247874550448165,0.0,0.0,0.0,0.0,0.0,0.0,0.0,0.0,0.0,0.0,0.0,0.0,0.0,0.0,
1.0215,4.17717269433925,3.879063635232238,4.322645181088714,0.0,0.0,0.0,4.126293836886734,0.0,0.0,0.0,0.0,0.0,0.0,0.0,0.0,0.0,0.0,0.0,0.0,0.0,0.0,
1.0359,4.178808052594683,3.8803544517563044,4.324309518533296,0.0,0.0,0.0,4.127824007628095,0.0,0.0,0.0,0.0,0.0,0.0,0.0,0.0,0.0,0.0,0.0,0.0,0.0,0.0,
1.0503,4.180469052458683,3.8816653185360135,4.325999858972947,0.0,0.0,0.0,4.129378076655882,0.0,0.0,0.0,0.0,0.0,0.0,0.0,0.0,0.0,0.0,0.0,0.0,0.0,0.0,
1.0647,4.182155817595655,3.8829963247627473,4.327716324060458,0.0,0.0,0.0,4.130956155472954,0.0,0.0,0.0,0.0,0.0,0.0,0.0,0.0,0.0,0.0,0.0,0.0,0.0,0.0,
1.0791,4.183868474044928,3.8843475613509577,4.329459037784139,0.0,0.0,0.0,4.132558357726675,0.0,0.0,0.0,0.0,0.0,0.0,0.0,0.0,0.0,0.0,0.0,0.0,0.0,0.0,
1.0935,4.18560715025291,3.885719120962348,4.331228126499586,0.0,0.0,0.0,4.134184799238281,0.0,0.0,0.0,0.0,0.0,0.0,0.0,0.0,0.0,0.0,0.0,0.0,0.0,0.0,
1.1079,4.187371977106116,3.8871110980307795,4.333023718962189,0.0,0.0,0.0,4.135835598033029,0.0,0.0,0.0,0.0,0.0,0.0,0.0,0.0,0.0,0.0,0.0,0.0,0.0,0.0,
1.1222,4.189150558755376,3.888513708867175,4.334833199858711,0.0,0.0,0.0,4.137499155827087,0.0,0.0,0.0,0.0,0.0,0.0,0.0,0.0,0.0,0.0,0.0,0.0,0.0,0.0,
1.1366,4.190967905543907,3.8899466678886583,4.336682009489181,0.0,0.0,0.0,4.139198860973916,0.0,0.0,0.0,0.0,0.0,0.0,0.0,0.0,0.0,0.0,0.0,0.0,0.0,0.0,
1.151,4.19281180965115,3.8914003378599484,4.338557722915491,0.0,0.0,0.0,4.140923290142196,0.0,0.0,0.0,0.0,0.0,0.0,0.0,0.0,0.0,0.0,0.0,0.0,0.0,0.0,
1.1654,4.194682412053478,3.8928748205523958,4.34046047881653,0.0,0.0,0.0,4.142672570474135,0.0,0.0,0.0,0.0,0.0,0.0,0.0,0.0,0.0,0.0,0.0,0.0,0.0,0.0,
1.1798,4.196579856345181,3.894370219643918,4.34239041844633,0.0,0.0,0.0,4.144446831478477,0.0,0.0,0.0,0.0,0.0,0.0,0.0,0.0,0.0,0.0,0.0,0.0,0.0,0.0,
1.1942,4.198504288776748,3.8958866407480754,4.344347685671465,0.0,0.0,0.0,4.14624620506543,0.0,0.0,0.0,0.0,0.0,0.0,0.0,0.0,0.0,0.0,0.0,0.0,0.0,0.0,
1.2086,4.200455858294237,3.897424191444027,4.346332427010111,0.0,0.0,0.0,4.148070825582792,0.0,0.0,0.0,0.0,0.0,0.0,0.0,0.0,0.0,0.0,0.0,0.0,0.0,0.0,
1.223,4.202434716579396,3.898982981307198,4.34834479167145,0.0,0.0,0.0,4.1499208298526815,0.0,0.0,0.0,0.0,0.0,0.0,0.0,0.0,0.0,0.0,0.0,0.0,0.0,0.0,
1.2374,4.204441018091115,3.9005631219408725,4.350384931596558,0.0,0.0,0.0,4.151796357209515,0.0,0.0,0.0,0.0,0.0,0.0,0.0,0.0,0.0,0.0,0.0,0.0,0.0,0.0,
1.2517,4.206460700253251,3.9021535304755166,4.352438543238659,0.0,0.0,0.0,4.153684257989142,0.0,0.0,0.0,0.0,0.0,0.0,0.0,0.0,0.0,0.0,0.0,0.0,0.0,0.0,
1.2661,4.208522169574238,3.903776565467943,4.354534505049697,0.0,0.0,0.0,4.155611080030626,0.0,0.0,0.0,0.0,0.0,0.0,0.0,0.0,0.0,0.0,0.0,0.0,0.0,0.0,
1.2805,4.210611561446566,3.9054212977102454,4.3566587136374935,0.0,0.0,0.0,4.1575638575981015,0.0,0.0,0.0,0.0,0.0,0.0,0.0,0.0,0.0,0.0,0.0,0.0,0.0,0.0,
1.2949,4.212729041850441,3.907087847235008,4.358811332278051,0.0,0.0,0.0,4.1595427404545005,0.0,0.0,0.0,0.0,0.0,0.0,0.0,0.0,0.0,0.0,0.0,0.0,0.0,0.0,
1.3093,4.214874779765305,3.9087763362735433,4.360992527198394,0.0,0.0,0.0,4.1615478810790805,0.0,0.0,0.0,0.0,0.0,0.0,0.0,0.0,0.0,0.0,0.0,0.0,0.0,0.0,
1.3237,4.217048947217694,3.910486889292985,4.363202467623809,0.0,0.0,0.0,4.1635794347114965,0.0,0.0,0.0,0.0,0.0,0.0,0.0,0.0,0.0,0.0,0.0,0.0,0.0,0.0,
1.3381,4.21925171933039,3.912219633034423,4.365441325826331,0.0,0.0,0.0,4.165637559397048,0.0,0.0,0.0,0.0,0.0,0.0,0.0,0.0,0.0,0.0,0.0,0.0,0.0,0.0,
1.3525,4.221483274372895,3.9139746965521898,4.367709277174458,0.0,0.0,0.0,4.167722416033182,0.0,0.0,0.0,0.0,0.0,0.0,0.0,0.0,0.0,0.0,0.0,0.0,0.0,0.0,
1.3668,4.2237279954675575,3.9157397896826045,4.369990445900377,0.0,0.0,0.0,4.169819410350179,0.0,0.0,0.0,0.0,0.0,0.0,0.0,0.0,0.0,0.0,0.0,0.0,0.0,0.0,
1.3812,4.2260174609552354,3.917539732063858,4.372316917116296,0.0,0.0,0.0,4.171958036711796,0.0,0.0,0.0,0.0,0.0,0.0,0.0,0.0,0.0,0.0,0.0,0.0,0.0,0.0,
1.3956,4.228336262266929,3.9193623947171727,4.374673025383183,0.0,0.0,0.0,4.174123894122428,0.0,0.0,0.0,0.0,0.0,0.0,0.0,0.0,0.0,0.0,0.0,0.0,0.0,0.0,
1.41,4.230684590765225,3.9212079163464706,4.377058958955726,0.0,0.0,0.0,4.176317155355807,0.0,0.0,0.0,0.0,0.0,0.0,0.0,0.0,0.0,0.0,0.0,0.0,0.0,0.0,
1.4244,4.233062641230882,3.923076438181642,4.37947490945322,0.0,0.0,0.0,4.178537996288582,0.0,0.0,0.0,0.0,0.0,0.0,0.0,0.0,0.0,0.0,0.0,0.0,0.0,0.0,
1.4388,4.23547061192148,3.9249681040249027,4.381921071917482,0.0,0.0,0.0,4.180786595954621,0.0,0.0,0.0,0.0,0.0,0.0,0.0,0.0,0.0,0.0,0.0,0.0,0.0,0.0,
1.4532,4.237908704631692,3.926883060298529,4.38439764487233,0.0,0.0,0.0,4.18306313660085,0.0,0.0,0.0,0.0,0.0,0.0,0.0,0.0,0.0,0.0,0.0,0.0,0.0,0.0,
1.4676,4.240377124754875,3.9288214560936345,4.3869048303845695,0.0,0.0,0.0,4.18536780374436,0.0,0.0,0.0,0.0,0.0,0.0,0.0,0.0,0.0,0.0,0.0,0.0,0.0,0.0,
1.4819,4.242858621702992,3.930769736612376,4.389425102358478,0.0,0.0,0.0,4.187684486891283,0.0,0.0,0.0,0.0,0.0,0.0,0.0,0.0,0.0,0.0,0.0,0.0,0.0,0.0,
1.4963,4.245388113266988,3.9327553042124377,4.391993917472648,0.0,0.0,0.0,4.190045778317358,0.0,0.0,0.0,0.0,0.0,0.0,0.0,0.0,0.0,0.0,0.0,0.0,0.0,0.0,
1.5107,4.2479485691414105,3.934764774030921,4.394593971743794,0.0,0.0,0.0,4.192435771638709,0.0,0.0,0.0,0.0,0.0,0.0,0.0,0.0,0.0,0.0,0.0,0.0,0.0,0.0,
1.5251,4.25054020973811,3.9367983063346297,4.397225482026489,0.0,0.0,0.0,4.194854666033076,0.0,0.0,0.0,0.0,0.0,0.0,0.0,0.0,0.0,0.0,0.0,0.0,0.0,0.0,
1.5395,4.253163259401029,3.938856064326629,4.399888669047727,0.0,0.0,0.0,4.197302664258462,0.0,0.0,0.0,0.0,0.0,0.0,0.0,0.0,0.0,0.0,0.0,0.0,0.0,0.0,
1.5539,4.25581794647853,3.9409382142046208,4.4025837574781495,0.0,0.0,0.0,4.1997799727204335,0.0,0.0,0.0,0.0,0.0,0.0,0.0,0.0,0.0,0.0,0.0,0.0,0.0,0.0,
1.5683,4.258504503397407,3.943044925221136,4.40531097600535,0.0,0.0,0.0,4.202286801541298,0.0,0.0,0.0,0.0,0.0,0.0,0.0,0.0,0.0,0.0,0.0,0.0,0.0,0.0,
1.5827,4.261223166738944,3.94517636974539,4.4080705574090535,0.0,0.0,0.0,4.204823364631129,0.0,0.0,0.0,0.0,0.0,0.0,0.0,0.0,0.0,0.0,0.0,0.0,0.0,0.0,
1.597,4.263954960981151,3.947317662352807,4.410843235532984,0.0,0.0,0.0,4.207371952955647,0.0,0.0,0.0,0.0,0.0,0.0,0.0,0.0,0.0,0.0,0.0,0.0,0.0,0.0,
1.6114,4.266738336731731,3.9494989289434117,4.41366802888108,0.0,0.0,0.0,4.209968431518741,0.0,0.0,0.0,0.0,0.0,0.0,0.0,0.0,0.0,0.0,0.0,0.0,0.0,0.0,
1.6258,4.269554552619938,3.9517054642224245,4.416525907059858,0.0,0.0,0.0,4.2125953079674066,0.0,0.0,0.0,0.0,0.0,0.0,0.0,0.0,0.0,0.0,0.0,0.0,0.0,0.0,
1.6402,4.272403862616642,3.9539374536610543,4.419417119979917,0.0,0.0,0.0,4.215252812085871,0.0,0.0,0.0,0.0,0.0,0.0,0.0,0.0,0.0,0.0,0.0,0.0,0.0,0.0,
1.6546,4.2752865252591965,3.95619508618648,4.422341922050986,0.0,0.0,0.0,4.217941177832221,0.0,0.0,0.0,0.0,0.0,0.0,0.0,0.0,0.0,0.0,0.0,0.0,0.0,0.0,
1.669,4.278202803740799,3.9584785542563026,4.425300572270377,0.0,0.0,0.0,4.220660643422493,0.0,0.0,0.0,0.0,0.0,0.0,0.0,0.0,0.0,0.0,0.0,0.0,0.0,0.0,
1.6834,4.281152966002432,3.960788053935392,4.4282933343136985,0.0,0.0,0.0,4.223411451417174,0.0,0.0,0.0,0.0,0.0,0.0,0.0,0.0,0.0,0.0,0.0,0.0,0.0,0.0,
1.6978,4.284137284827237,3.963123784975095,4.4313204766280965,0.0,0.0,0.0,4.2261938488101425,0.0,0.0,0.0,0.0,0.0,0.0,0.0,0.0,0.0,0.0,0.0,0.0,0.0,0.0,
1.7121,4.287134954996411,3.9654694553420287,4.434360889932938,0.0,0.0,0.0,4.228988433423792,0.0,0.0,0.0,0.0,0.0,0.0,0.0,0.0,0.0,0.0,0.0,0.0,0.0,0.0,
1.7265,4.290188183076738,3.967858077775493,4.437457374146579,0.0,0.0,0.0,4.231834544999603,0.0,0.0,0.0,0.0,0.0,0.0,0.0,0.0,0.0,0.0,0.0,0.0,0.0,0.0,
1.7409,4.29327641409037,3.9702735522935724,4.440589071590123,0.0,0.0,0.0,4.2347130126580215,0.0,0.0,0.0,0.0,0.0,0.0,0.0,0.0,0.0,0.0,0.0,0.0,0.0,0.0,
1.7553,4.296399941151257,3.972716094211164,4.4437562707477,0.0,0.0,0.0,4.237624102036707,0.0,0.0,0.0,0.0,0.0,0.0,0.0,0.0,0.0,0.0,0.0,0.0,0.0,0.0,
1.7697,4.2995590627285925,3.9751859229661126,4.446959265381708,0.0,0.0,0.0,4.240568083692138,0.0,0.0,0.0,0.0,0.0,0.0,0.0,0.0,0.0,0.0,0.0,0.0,0.0,0.0,
1.7841,4.302754082758509,3.9776832622154257,4.450198354643177,0.0,0.0,0.0,4.243545233205704,0.0,0.0,0.0,0.0,0.0,0.0,0.0,0.0,0.0,0.0,0.0,0.0,0.0,0.0,
1.7985,4.305985310759091,3.980208339934921,4.4534738431853444,0.0,0.0,0.0,4.246555831293119,0.0,0.0,0.0,0.0,0.0,0.0,0.0,0.0,0.0,0.0,0.0,0.0,0.0,0.0,
1.8129,4.309253061948642,3.9827613885221944,4.456786041280214,0.0,0.0,0.0,4.249600163917017,0.0,0.0,0.0,0.0,0.0,0.0,0.0,0.0,0.0,0.0,0.0,0.0,0.0,0.0,
1.8272,4.312534580999649,3.9853246216975227,4.460111878039162,0.0,0.0,0.0,4.252657026912111,0.0,0.0,0.0,0.0,0.0,0.0,0.0,0.0,0.0,0.0,0.0,0.0,0.0,0.0,
1.8416,4.315876088360698,3.9879341290281083,4.4634981886547855,0.0,0.0,0.0,4.255769468681197,0.0,0.0,0.0,0.0,0.0,0.0,0.0,0.0,0.0,0.0,0.0,0.0,0.0,0.0,
1.856,4.319255097668772,3.9905723303070193,4.4669221722740655,0.0,0.0,0.0,4.258916533416619,0.0,0.0,0.0,0.0,0.0,0.0,0.0,0.0,0.0,0.0,0.0,0.0,0.0,0.0,
1.8704,4.3226719481540155,3.9932394766881583,4.470384162838975,0.0,0.0,0.0,4.26209852922705,0.0,0.0,0.0,0.0,0.0,0.0,0.0,0.0,0.0,0.0,0.0,0.0,0.0,0.0,
1.8848,4.326126985392053,3.9959358243178356,4.4738845005466565,0.0,0.0,0.0,4.265315770085515,0.0,0.0,0.0,0.0,0.0,0.0,0.0,0.0,0.0,0.0,0.0,0.0,0.0,0.0,
1.8992,4.329620561445061,3.998661634461546,4.477423531988274,0.0,0.0,0.0,4.26856857596496,0.0,0.0,0.0,0.0,0.0,0.0,0.0,0.0,0.0,0.0,0.0,0.0,0.0,0.0,
