energies(eV),real_xx,real_yy,real_zz,real_xy,real_yz,real_xz,real_ave,imag_xx,imag_yy,imag_zz,imag_xy,imag_yz,imag_xz,imag_ave,absorption_xx,absorption_yy,absorption_zz,absorption_xy,absorption_yz,absorption_xz,absorption_ave,band_gap
0.0,3.0144457871464425,3.0144457871464425,2.939206915980715,0.0,0.0,0.0,2.9893661634245334,0.0,0.0,0.0,0.0,0.0,0.0,0.0,0.0,0.0,0.0,0.0,0.0,0.0,0.0,5.6726
0.0183,3.014451285135262,3.014451285135262,2.93921171487617,0.0,0.0,0.0,2.9893714283822312,0.0,0.0,0.0,0.0,0.0,0.0,0.0,0.0,0.0,0.0,0.0,0.0,0.0,0.0,
0.0366,3.014467779369578,3.014467779369578,2.939226111779581,0.0,0.0,0.0,2.9893872235062453,0.0,0.0,0.0,0.0,0.0,0.0,0.0,0.0,0.0,0.0,0.0,0.0,0.0,0.0,
0.0548,3.014495090542881,3.014495090542881,2.9392499501343154,0.0,0.0,0.0,2.9894133770733595,0.0,0.0,0.0,0.0,0.0,0.0,0.0,0.0,0.0,0.0,0.0,0.0,0.0,0.0,
0.0731,3.014533520109928,3.014533520109928,2.9392834929793983,0.0,0.0,0.0,2.989450177733085,0.0,0.0,0.0,0.0,0.0,0.0,0.0,0.0,0.0,0.0,0.0,0.0,0.0,0.0,
0.0914,3.0145829499295838,3.0145829499295838,2.939326637078511,0.0,0.0,0.0,2.989497512312559,0.0,0.0,0.0,0.0,0.0,0.0,0.0,0.0,0.0,0.0,0.0,0.0,0.0,0.0,
0.1097,3.0146433824109287,3.0146433824109287,2.939379384383194,0.0,0.0,0.0,2.98955538306835,0.0,0.0,0.0,0.0,0.0,0.0,0.0,0.0,0.0,0.0,0.0,0.0,0.0,0.0,
0.1279,3.0147144002160315,3.0147144002160315,2.939441370447292,0.0,0.0,0.0,2.9896233902931186,0.0,0.0,0.0,0.0,0.0,0.0,0.0,0.0,0.0,0.0,0.0,0.0,0.0,0.0,
0.1462,3.014796787226049,3.014796787226049,2.939513279243733,0.0,0.0,0.0,2.989702284565277,0.0,0.0,0.0,0.0,0.0,0.0,0.0,0.0,0.0,0.0,0.0,0.0,0.0,0.0,
0.1645,3.014890187323896,3.014890187323896,2.9395947996914913,0.0,0.0,0.0,2.9897917247797614,0.0,0.0,0.0,0.0,0.0,0.0,0.0,0.0,0.0,0.0,0.0,0.0,0.0,0.0,
0.1828,3.0149946050657146,3.0149946050657146,2.939685935481098,0.0,0.0,0.0,2.9898917152041755,0.0,0.0,0.0,0.0,0.0,0.0,0.0,0.0,0.0,0.0,0.0,0.0,0.0,0.0,
0.201,3.0151093847622095,3.0151093847622095,2.939786114017365,0.0,0.0,0.0,2.990001627847261,0.0,0.0,0.0,0.0,0.0,0.0,0.0,0.0,0.0,0.0,0.0,0.0,0.0,0.0,
0.2193,3.015235793336521,3.015235793336521,2.939896440705568,0.0,0.0,0.0,2.99012267579287,0.0,0.0,0.0,0.0,0.0,0.0,0.0,0.0,0.0,0.0,0.0,0.0,0.0,0.0,
0.2376,3.0153732364252006,3.0153732364252006,2.940016396400428,0.0,0.0,0.0,2.990254289750277,0.0,0.0,0.0,0.0,0.0,0.0,0.0,0.0,0.0,0.0,0.0,0.0,0.0,0.0,
0.2559,3.015521720742427,3.015521720742427,2.9401459865400152,0.0,0.0,0.0,2.9903964760082897,0.0,0.0,0.0,0.0,0.0,0.0,0.0,0.0,0.0,0.0,0.0,0.0,0.0,0.0,
0.2742,3.0156812535449706,3.0156812535449706,2.9402852170017226,0.0,0.0,0.0,2.990549241363888,0.0,0.0,0.0,0.0,0.0,0.0,0.0,0.0,0.0,0.0,0.0,0.0,0.0,0.0,
0.2924,3.0158508803942907,3.0158508803942907,2.9404332543420444,0.0,0.0,0.0,2.9907116717102085,0.0,0.0,0.0,0.0,0.0,0.0,0.0,0.0,0.0,0.0,0.0,0.0,0.0,0.0,
0.3107,3.0160324736276145,3.0160324736276145,2.9405917320715647,0.0,0.0,0.0,2.9908855597755974,0.0,0.0,0.0,0.0,0.0,0.0,0.0,0.0,0.0,0.0,0.0,0.0,0.0,0.0,
0.329,3.016225140333494,3.016225140333494,2.9407598703592948,0.0,0.0,0.0,2.991070050342094,0.0,0.0,0.0,0.0,0.0,0.0,0.0,0.0,0.0,0.0,0.0,0.0,0.0,0.0,
0.3473,3.016428889947948,3.016428889947948,2.94093767684648,0.0,0.0,0.0,2.991265152247459,0.0,0.0,0.0,0.0,0.0,0.0,0.0,0.0,0.0,0.0,0.0,0.0,0.0,0.0,
0.3655,3.0166425282915337,3.0166425282915337,2.94112410881381,0.0,0.0,0.0,2.991469721798959,0.0,0.0,0.0,0.0,0.0,0.0,0.0,0.0,0.0,0.0,0.0,0.0,0.0,0.0,
0.3838,3.0168684135243535,3.0168684135243535,2.9413212234549575,0.0,0.0,0.0,2.9916860168345547,0.0,0.0,0.0,0.0,0.0,0.0,0.0,0.0,0.0,0.0,0.0,0.0,0.0,0.0,
0.4021,3.017105413211525,3.017105413211525,2.941528031838782,0.0,0.0,0.0,2.991912952753944,0.0,0.0,0.0,0.0,0.0,0.0,0.0,0.0,0.0,0.0,0.0,0.0,0.0,0.0,
0.4204,3.0173535389912933,3.0173535389912933,2.941744543388076,0.0,0.0,0.0,2.9921505404568873,0.0,0.0,0.0,0.0,0.0,0.0,0.0,0.0,0.0,0.0,0.0,0.0,0.0,0.0,
0.4386,3.0176113560249376,3.0176113560249376,2.9419695053631862,0.0,0.0,0.0,2.992397405804354,0.0,0.0,0.0,0.0,0.0,0.0,0.0,0.0,0.0,0.0,0.0,0.0,0.0,0.0,
0.4569,3.0178817101583513,3.0178817101583513,2.9422054001483007,0.0,0.0,0.0,2.9926562734883344,0.0,0.0,0.0,0.0,0.0,0.0,0.0,0.0,0.0,0.0,0.0,0.0,0.0,0.0,
0.4752,3.018163228565657,3.018163228565657,2.9424510290085637,0.0,0.0,0.0,2.9929258287132927,0.0,0.0,0.0,0.0,0.0,0.0,0.0,0.0,0.0,0.0,0.0,0.0,0.0,0.0,
0.4935,3.018455925115778,3.018455925115778,2.942706403170269,0.0,0.0,0.0,2.9932060844672748,0.0,0.0,0.0,0.0,0.0,0.0,0.0,0.0,0.0,0.0,0.0,0.0,0.0,0.0,
0.5118,3.018759814241199,3.018759814241199,2.9429715343151184,0.0,0.0,0.0,2.993497054265839,0.0,0.0,0.0,0.0,0.0,0.0,0.0,0.0,0.0,0.0,0.0,0.0,0.0,0.0,
0.53,3.0190731586179576,3.0190731586179576,2.9432449058264294,0.0,0.0,0.0,2.9937970743541147,0.0,0.0,0.0,0.0,0.0,0.0,0.0,0.0,0.0,0.0,0.0,0.0,0.0,0.0,
0.5483,3.0193994170848573,3.0193994170848573,2.9435295343259855,0.0,0.0,0.0,2.9941094561652335,0.0,0.0,0.0,0.0,0.0,0.0,0.0,0.0,0.0,0.0,0.0,0.0,0.0,0.0,
0.5666,3.019736914738765,3.019736914738765,2.9438239575312766,0.0,0.0,0.0,2.9944325956696023,0.0,0.0,0.0,0.0,0.0,0.0,0.0,0.0,0.0,0.0,0.0,0.0,0.0,0.0,
0.5849,3.0200856682864092,3.0200856682864092,2.9441281889610584,0.0,0.0,0.0,2.9947665085112924,0.0,0.0,0.0,0.0,0.0,0.0,0.0,0.0,0.0,0.0,0.0,0.0,0.0,0.0,
0.6031,3.0204436969862214,3.0204436969862214,2.9444404997427807,0.0,0.0,0.0,2.995109297905074,0.0,0.0,0.0,0.0,0.0,0.0,0.0,0.0,0.0,0.0,0.0,0.0,0.0,0.0,
0.6214,3.020814952997287,3.020814952997287,2.944764336246275,0.0,0.0,0.0,2.995464747413616,0.0,0.0,0.0,0.0,0.0,0.0,0.0,0.0,0.0,0.0,0.0,0.0,0.0,0.0,
0.6397,3.0211975183842386,3.0211975183842386,2.9450980242441984,0.0,0.0,0.0,2.995831020337558,0.0,0.0,0.0,0.0,0.0,0.0,0.0,0.0,0.0,0.0,0.0,0.0,0.0,0.0,
0.658,3.02159141216947,3.02159141216947,2.9454415791242146,0.0,0.0,0.0,2.996208134487718,0.0,0.0,0.0,0.0,0.0,0.0,0.0,0.0,0.0,0.0,0.0,0.0,0.0,0.0,
0.6762,3.021994408653953,3.021994408653953,2.9457930585104997,0.0,0.0,0.0,2.996593958606135,0.0,0.0,0.0,0.0,0.0,0.0,0.0,0.0,0.0,0.0,0.0,0.0,0.0,0.0,
0.6945,3.0224109564762736,3.0224109564762736,2.946156341075076,0.0,0.0,0.0,2.996992751342541,0.0,0.0,0.0,0.0,0.0,0.0,0.0,0.0,0.0,0.0,0.0,0.0,0.0,0.0,
0.7128,3.0228388931825587,3.0228388931825587,2.9465295394415048,0.0,0.0,0.0,2.9974024419355403,0.0,0.0,0.0,0.0,0.0,0.0,0.0,0.0,0.0,0.0,0.0,0.0,0.0,0.0,
0.7311,3.0232782401583833,3.0232782401583833,2.9469126709028837,0.0,0.0,0.0,2.99782305040655,0.0,0.0,0.0,0.0,0.0,0.0,0.0,0.0,0.0,0.0,0.0,0.0,0.0,0.0,
0.7494,3.0237290193891035,3.0237290193891035,2.9473057532356886,0.0,0.0,0.0,2.998254597337965,0.0,0.0,0.0,0.0,0.0,0.0,0.0,0.0,0.0,0.0,0.0,0.0,0.0,0.0,
0.7676,3.024188696426028,3.024188696426028,2.947706575112418,0.0,0.0,0.0,2.998694655988158,0.0,0.0,0.0,0.0,0.0,0.0,0.0,0.0,0.0,0.0,0.0,0.0,0.0,0.0,
0.7859,3.0246623457534563,3.0246623457534563,2.9481195598336103,0.0,0.0,0.0,2.9991480837801743,0.0,0.0,0.0,0.0,0.0,0.0,0.0,0.0,0.0,0.0,0.0,0.0,0.0,0.0,
0.8042,3.0251474967939864,3.0251474967939864,2.948542551576045,0.0,0.0,0.0,2.999612515054673,0.0,0.0,0.0,0.0,0.0,0.0,0.0,0.0,0.0,0.0,0.0,0.0,0.0,0.0,
0.8225,3.025644173964508,3.025644173964508,2.9489755700742357,0.0,0.0,0.0,3.000087972667751,0.0,0.0,0.0,0.0,0.0,0.0,0.0,0.0,0.0,0.0,0.0,0.0,0.0,0.0,
0.8407,3.0261495936619456,3.0261495936619456,2.9494161870992555,0.0,0.0,0.0,3.000571791474382,0.0,0.0,0.0,0.0,0.0,0.0,0.0,0.0,0.0,0.0,0.0,0.0,0.0,0.0,
0.859,3.0266693354877687,3.0266693354877687,2.9498692652332683,0.0,0.0,0.0,3.001069312069602,0.0,0.0,0.0,0.0,0.0,0.0,0.0,0.0,0.0,0.0,0.0,0.0,0.0,0.0,
0.8773,3.027200680274254,3.027200680274254,2.9503324322063245,0.0,0.0,0.0,3.0015779309182773,0.0,0.0,0.0,0.0,0.0,0.0,0.0,0.0,0.0,0.0,0.0,0.0,0.0,0.0,
0.8956,3.0277436549320975,3.0277436549320975,2.950805709758808,0.0,0.0,0.0,3.002097673207668,0.0,0.0,0.0,0.0,0.0,0.0,0.0,0.0,0.0,0.0,0.0,0.0,0.0,0.0,
0.9138,3.028295224503034,3.028295224503034,2.9512864509796795,0.0,0.0,0.0,3.0026256333285826,0.0,0.0,0.0,0.0,0.0,0.0,0.0,0.0,0.0,0.0,0.0,0.0,0.0,0.0,
0.9321,3.0288614782460854,3.0288614782460854,2.9517799613988966,0.0,0.0,0.0,3.0031676392970224,0.0,0.0,0.0,0.0,0.0,0.0,0.0,0.0,0.0,0.0,0.0,0.0,0.0,0.0,
0.9504,3.0294394462604166,3.0294394462604166,2.952283650565528,0.0,0.0,0.0,3.0037208476954533,0.0,0.0,0.0,0.0,0.0,0.0,0.0,0.0,0.0,0.0,0.0,0.0,0.0,0.0,
0.9687,3.0300291580198433,3.0300291580198433,2.9527975422791193,0.0,0.0,0.0,3.0042852861062688,0.0,0.0,0.0,0.0,0.0,0.0,0.0,0.0,0.0,0.0,0.0,0.0,0.0,0.0,
0.987,3.0306306436515413,3.0306306436515413,2.953321660863679,0.0,0.0,0.0,3.004860982722254,0.0,0.0,0.0,0.0,0.0,0.0,0.0,0.0,0.0,0.0,0.0,0.0,0.0,0.0,
1.0052,3.0312405504945112,3.0312405504945112,2.9538530832124215,0.0,0.0,0.0,3.005444728067148,0.0,0.0,0.0,0.0,0.0,0.0,0.0,0.0,0.0,0.0,0.0,0.0,0.0,0.0,
1.0235,3.0318656121257312,3.0318656121257312,2.9543976743988876,0.0,0.0,0.0,3.0060429662167834,0.0,0.0,0.0,0.0,0.0,0.0,0.0,0.0,0.0,0.0,0.0,0.0,0.0,0.0,
1.0418,3.032502541803589,3.032502541803589,2.954952568470477,0.0,0.0,0.0,3.006652550692552,0.0,0.0,0.0,0.0,0.0,0.0,0.0,0.0,0.0,0.0,0.0,0.0,0.0,0.0,
1.0601,3.0331513723156256,3.0331513723156256,2.9555177918849393,0.0,0.0,0.0,3.007273512172064,0.0,0.0,0.0,0.0,0.0,0.0,0.0,0.0,0.0,0.0,0.0,0.0,0.0,0.0,
1.0783,3.03380849390133,3.03380849390133,2.956090198208898,0.0,0.0,0.0,3.007902395337186,0.0,0.0,0.0,0.0,0.0,0.0,0.0,0.0,0.0,0.0,0.0,0.0,0.0,0.0,
1.0966,3.0344811616714265,3.0344811616714265,2.9566761050455965,0.0,0.0,0.0,3.0085461427961495,0.0,0.0,0.0,0.0,0.0,0.0,0.0,0.0,0.0,0.0,0.0,0.0,0.0,0.0,
1.1149,3.035165832543864,3.035165832543864,2.9572724237265926,0.0,0.0,0.0,3.009201362938107,0.0,0.0,0.0,0.0,0.0,0.0,0.0,0.0,0.0,0.0,0.0,0.0,0.0,0.0,
1.1332,3.0358625420533123,3.0358625420533123,2.957879182909962,0.0,0.0,0.0,3.009868089005529,0.0,0.0,0.0,0.0,0.0,0.0,0.0,0.0,0.0,0.0,0.0,0.0,0.0,0.0,
1.1514,3.0365674204203446,3.0365674204203446,2.9584930104771674,0.0,0.0,0.0,3.0105426171059526,0.0,0.0,0.0,0.0,0.0,0.0,0.0,0.0,0.0,0.0,0.0,0.0,0.0,0.0,
1.1697,3.0372882503364274,3.0372882503364274,2.9591206814357918,0.0,0.0,0.0,3.0112323940362153,0.0,0.0,0.0,0.0,0.0,0.0,0.0,0.0,0.0,0.0,0.0,0.0,0.0,0.0,
1.188,3.0380212295239475,3.0380212295239475,2.9597588820943352,0.0,0.0,0.0,3.0119337803807436,0.0,0.0,0.0,0.0,0.0,0.0,0.0,0.0,0.0,0.0,0.0,0.0,0.0,0.0,
1.2063,3.0387663963599714,3.0387663963599714,2.960407643384171,0.0,0.0,0.0,3.0126468120347045,0.0,0.0,0.0,0.0,0.0,0.0,0.0,0.0,0.0,0.0,0.0,0.0,0.0,0.0,
1.2246,3.039523789949056,3.039523789949056,2.9610669968180483,0.0,0.0,0.0,3.0133715255720532,0.0,0.0,0.0,0.0,0.0,0.0,0.0,0.0,0.0,0.0,0.0,0.0,0.0,0.0,
1.2428,3.0402892109316335,3.0402892109316335,2.961733284486826,0.0,0.0,0.0,3.0141039021166978,0.0,0.0,0.0,0.0,0.0,0.0,0.0,0.0,0.0,0.0,0.0,0.0,0.0,0.0,
1.2611,3.0410711109205746,3.0410711109205746,2.9624138607735864,0.0,0.0,0.0,3.0148520275382453,0.0,0.0,0.0,0.0,0.0,0.0,0.0,0.0,0.0,0.0,0.0,0.0,0.0,0.0,
1.2794,3.0418653591814655,3.0418653591814655,2.9631051270989346,0.0,0.0,0.0,3.0156119484872885,0.0,0.0,0.0,0.0,0.0,0.0,0.0,0.0,0.0,0.0,0.0,0.0,0.0,0.0,
1.2977,3.042671997793404,3.042671997793404,2.9638071173500458,0.0,0.0,0.0,3.0163837043122843,0.0,0.0,0.0,0.0,0.0,0.0,0.0,0.0,0.0,0.0,0.0,0.0,0.0,0.0,
1.3159,3.0434865599325085,3.0434865599325085,2.9645159419235947,0.0,0.0,0.0,3.017163020596204,0.0,0.0,0.0,0.0,0.0,0.0,0.0,0.0,0.0,0.0,0.0,0.0,0.0,0.0,
1.3342,3.044318040242122,3.044318040242122,2.96523942504831,0.0,0.0,0.0,3.0179585018441846,0.0,0.0,0.0,0.0,0.0,0.0,0.0,0.0,0.0,0.0,0.0,0.0,0.0,0.0,
1.3525,3.0451620415004435,3.0451620415004435,2.965973737234912,0.0,0.0,0.0,3.0187659400785996,0.0,0.0,0.0,0.0,0.0,0.0,0.0,0.0,0.0,0.0,0.0,0.0,0.0,0.0,
1.3708,3.0460186088778043,3.0460186088778043,2.9667189148343525,0.0,0.0,0.0,3.019585377529987,0.0,0.0,0.0,0.0,0.0,0.0,0.0,0.0,0.0,0.0,0.0,0.0,0.0,0.0,
1.389,3.0468830043682784,3.0468830043682784,2.9674708335516495,0.0,0.0,0.0,3.0204122807627356,0.0,0.0,0.0,0.0,0.0,0.0,0.0,0.0,0.0,0.0,0.0,0.0,0.0,0.0,
1.4073,3.0477647733737174,3.0477647733737174,2.96823779367751,0.0,0.0,0.0,3.0212557801416486,0.0,0.0,0.0,0.0,0.0,0.0,0.0,0.0,0.0,0.0,0.0,0.0,0.0,0.0,
1.4256,3.0486592485399555,3.0486592485399555,2.969015731873222,0.0,0.0,0.0,3.0221114096510444,0.0,0.0,0.0,0.0,0.0,0.0,0.0,0.0,0.0,0.0,0.0,0.0,0.0,0.0,
1.4439,3.049566478255953,3.049566478255953,2.9698046870507517,0.0,0.0,0.0,3.022979214520886,0.0,0.0,0.0,0.0,0.0,0.0,0.0,0.0,0.0,0.0,0.0,0.0,0.0,0.0,
1.4622,3.0504865117376943,3.0504865117376943,2.9706046987795167,0.0,0.0,0.0,3.023859240751635,0.0,0.0,0.0,0.0,0.0,0.0,0.0,0.0,0.0,0.0,0.0,0.0,0.0,0.0,
1.4804,3.051414266272894,3.051414266272894,2.9714113447790695,0.0,0.0,0.0,3.0247466257749522,0.0,0.0,0.0,0.0,0.0,0.0,0.0,0.0,0.0,0.0,0.0,0.0,0.0,0.0,
1.4987,3.052359987629418,3.052359987629418,2.972233530007937,0.0,0.0,0.0,3.0256511684222573,0.0,0.0,0.0,0.0,0.0,0.0,0.0,0.0,0.0,0.0,0.0,0.0,0.0,0.0,
1.517,3.053318665166519,3.053318665166519,2.9730668942799525,0.0,0.0,0.0,3.026568074870997,0.0,0.0,0.0,0.0,0.0,0.0,0.0,0.0,0.0,0.0,0.0,0.0,0.0,0.0,
1.5353,3.054290351494392,3.054290351494392,2.9739114798596002,0.0,0.0,0.0,3.0274973942827947,0.0,0.0,0.0,0.0,0.0,0.0,0.0,0.0,0.0,0.0,0.0,0.0,0.0,0.0,
1.5535,3.0552696833646564,3.0552696833646564,2.974762622241893,0.0,0.0,0.0,3.0284339963237357,0.0,0.0,0.0,0.0,0.0,0.0,0.0,0.0,0.0,0.0,0.0,0.0,0.0,0.0,
1.5718,3.056267476783093,3.056267476783093,2.975629718096861,0.0,0.0,0.0,3.0293882238876826,0.0,0.0,0.0,0.0,0.0,0.0,0.0,0.0,0.0,0.0,0.0,0.0,0.0,0.0,
1.5901,3.0572784417985273,3.0572784417985273,2.9765081659952313,0.0,0.0,0.0,3.0303550165307622,0.0,0.0,0.0,0.0,0.0,0.0,0.0,0.0,0.0,0.0,0.0,0.0,0.0,0.0,
1.6084,3.0583026345698907,3.0583026345698907,2.977398011014399,0.0,0.0,0.0,3.0313344267180597,0.0,0.0,0.0,0.0,0.0,0.0,0.0,0.0,0.0,0.0,0.0,0.0,0.0,0.0,
1.6266,3.059334406690464,3.059334406690464,2.9782943427071475,0.0,0.0,0.0,3.0323210520293586,0.0,0.0,0.0,0.0,0.0,0.0,0.0,0.0,0.0,0.0,0.0,0.0,0.0,0.0,
1.6449,3.0603851540471383,3.0603851540471383,2.979207057191836,0.0,0.0,0.0,3.0333257884287037,0.0,0.0,0.0,0.0,0.0,0.0,0.0,0.0,0.0,0.0,0.0,0.0,0.0,0.0,
1.6632,3.0614493028403236,3.0614493028403236,2.980131308144994,0.0,0.0,0.0,3.0343433046085466,0.0,0.0,0.0,0.0,0.0,0.0,0.0,0.0,0.0,0.0,0.0,0.0,0.0,0.0,
1.6815,3.062526912945988,3.062526912945988,2.9810671435850304,0.0,0.0,0.0,3.0353736564923355,0.0,0.0,0.0,0.0,0.0,0.0,0.0,0.0,0.0,0.0,0.0,0.0,0.0,0.0,
1.6998,3.0636180451986847,3.0636180451986847,2.9820146122880047,0.0,0.0,0.0,3.0364169008951247,0.0,0.0,0.0,0.0,0.0,0.0,0.0,0.0,0.0,0.0,0.0,0.0,0.0,0.0,
1.718,3.0647166876778607,3.0647166876778607,2.9829684906950114,0.0,0.0,0.0,3.0374672886835774,0.0,0.0,0.0,0.0,0.0,0.0,0.0,0.0,0.0,0.0,0.0,0.0,0.0,0.0,
1.7363,3.065834975876582,3.065834975876582,2.9839393110734846,0.0,0.0,0.0,3.0385364209422163,0.0,0.0,0.0,0.0,0.0,0.0,0.0,0.0,0.0,0.0,0.0,0.0,0.0,0.0,
1.7546,3.0669669742445564,3.0669669742445564,2.9849219153972677,0.0,0.0,0.0,3.0396186212954603,0.0,0.0,0.0,0.0,0.0,0.0,0.0,0.0,0.0,0.0,0.0,0.0,0.0,0.0,
1.7729,3.0681127475647445,3.0681127475647445,2.985916355559441,0.0,0.0,0.0,3.040713950229643,0.0,0.0,0.0,0.0,0.0,0.0,0.0,0.0,0.0,0.0,0.0,0.0,0.0,0.0,
1.7911,3.0692659872210117,3.0692659872210117,2.986917152792077,0.0,0.0,0.0,3.0418163757447,0.0,0.0,0.0,0.0,0.0,0.0,0.0,0.0,0.0,0.0,0.0,0.0,0.0,0.0,
1.8094,3.0704394327050264,3.0704394327050264,2.9879353581323422,0.0,0.0,0.0,3.0429380745141317,0.0,0.0,0.0,0.0,0.0,0.0,0.0,0.0,0.0,0.0,0.0,0.0,0.0,0.0,
1.8277,3.07162685328671,3.07162685328671,2.988965559555006,0.0,0.0,0.0,3.044073088709476,0.0,0.0,0.0,0.0,0.0,0.0,0.0,0.0,0.0,0.0,0.0,0.0,0.0,0.0,
1.846,3.072828317901144,3.072828317901144,2.9900078122248703,0.0,0.0,0.0,3.0452214826757196,0.0,0.0,0.0,0.0,0.0,0.0,0.0,0.0,0.0,0.0,0.0,0.0,0.0,0.0,
1.8642,3.074037215570207,3.074037215570207,2.991056377620329,0.0,0.0,0.0,3.0463769362535813,0.0,0.0,0.0,0.0,0.0,0.0,0.0,0.0,0.0,0.0,0.0,0.0,0.0,0.0,
1.8825,3.0752669016532437,3.0752669016532437,2.992122835042176,0.0,0.0,0.0,3.047552212782888,0.0,0.0,0.0,0.0,0.0,0.0,0.0,0.0,0.0,0.0,0.0,0.0,0.0,0.0,
1.9008,3.0765108446738427,3.0765108446738427,2.9932015139997104,0.0,0.0,0.0,3.0487410677824656,0.0,0.0,0.0,0.0,0.0,0.0,0.0,0.0,0.0,0.0,0.0,0.0,0.0,0.0,
1.9191,3.0777691179406794,3.0777691179406794,2.9942924730975253,0.0,0.0,0.0,3.049943569659628,0.0,0.0,0.0,0.0,0.0,0.0,0.0,0.0,0.0,0.0,0.0,0.0,0.0,0.0,
1.9374,3.0790417958943324,3.0790417958943324,2.9953957718293216,0.0,0.0,0.0,3.051159787872662,0.0,0.0,0.0,0.0,0.0,0.0,0.0,0.0,0.0,0.0,0.0,0.0,0.0,0.0,
1.9556,3.080321880985668,3.080321880985668,2.996505340070055,0.0,0.0,0.0,3.052383034013797,0.0,0.0,0.0,0.0,0.0,0.0,0.0,0.0,0.0,0.0,0.0,0.0,0.0,0.0,
1.9739,3.0816235164824786,3.0816235164824786,2.9976334319032807,0.0,0.0,0.0,3.0536268216227462,0.0,0.0,0.0,0.0,0.0,0.0,0.0,0.0,0.0,0.0,0.0,0.0,0.0,0.0,
1.9922,3.082939786506138,3.082939786506138,2.998774046962051,0.0,0.0,0.0,3.0548845399914426,0.0,0.0,0.0,0.0,0.0,0.0,0.0,0.0,0.0,0.0,0.0,0.0,0.0,0.0,
2.0105,3.084270770176004,3.084270770176004,2.9999272484109856,0.0,0.0,0.0,3.056156262920998,0.0,0.0,0.0,0.0,0.0,0.0,0.0,0.0,0.0,0.0,0.0,0.0,0.0,0.0,
2.0287,3.085609153501019,3.085609153501019,3.001086695096596,0.0,0.0,0.0,3.0574350006995448,0.0,0.0,0.0,0.0,0.0,0.0,0.0,0.0,0.0,0.0,0.0,0.0,0.0,0.0,
2.047,3.086969725177273,3.086969725177273,3.0022651929703947,0.0,0.0,0.0,3.0587348811083133,0.0,0.0,0.0,0.0,0.0,0.0,0.0,0.0,0.0,0.0,0.0,0.0,0.0,0.0,
2.0653,3.088345254745654,3.088345254745654,3.0034564721174233,0.0,0.0,0.0,3.060048993869577,0.0,0.0,0.0,0.0,0.0,0.0,0.0,0.0,0.0,0.0,0.0,0.0,0.0,0.0,
2.0836,3.089735826273006,3.089735826273006,3.0046605995764075,0.0,0.0,0.0,3.0613774173741404,0.0,0.0,0.0,0.0,0.0,0.0,0.0,0.0,0.0,0.0,0.0,0.0,0.0,0.0,
2.1018,3.0911338024336916,3.0911338024336916,3.005870957655121,0.0,0.0,0.0,3.0627128541741677,0.0,0.0,0.0,0.0,0.0,0.0,0.0,0.0,0.0,0.0,0.0,0.0,0.0,0.0,
2.1201,3.0925546318578636,3.0925546318578636,3.00710091573524,0.0,0.0,0.0,3.064070059816989,0.0,0.0,0.0,0.0,0.0,0.0,0.0,0.0,0.0,0.0,0.0,0.0,0.0,0.0,
2.1384,3.0939907627333616,3.0939907627333616,3.008343928937065,0.0,0.0,0.0,3.065441818134596,0.0,0.0,0.0,0.0,0.0,0.0,0.0,0.0,0.0,0.0,0.0,0.0,0.0,0.0,
2.1567,3.0954422843676728,3.0954422843676728,3.009600068394773,0.0,0.0,0.0,3.066828212376706,0.0,0.0,0.0,0.0,0.0,0.0,0.0,0.0,0.0,0.0,0.0,0.0,0.0,0.0,
2.175,3.0969092874292277,3.0969092874292277,3.010869406304727,0.0,0.0,0.0,3.0682293270543943,0.0,0.0,0.0,0.0,0.0,0.0,0.0,0.0,0.0,0.0,0.0,0.0,0.0,0.0,
2.1932,3.0983837199705397,3.0983837199705397,3.0121449709479053,0.0,0.0,0.0,3.0696374702963283,0.0,0.0,0.0,0.0,0.0,0.0,0.0,0.0,0.0,0.0,0.0,0.0,0.0,0.0,
2.2115,3.0998818775702213,3.0998818775702213,3.0134408535443145,0.0,0.0,0.0,3.071068202894919,0.0,0.0,0.0,0.0,0.0,0.0,0.0,0.0,0.0,0.0,0.0,0.0,0.0,0.0,
2.2298,3.1013957964527066,3.1013957964527066,3.0147501572959503,0.0,0.0,0.0,3.072513916733788,0.0,0.0,0.0,0.0,0.0,0.0,0.0,0.0,0.0,0.0,0.0,0.0,0.0,0.0,
2.2481,3.1029255729316194,3.1029255729316194,3.0160729587996284,0.0,0.0,0.0,3.0739747015542895,0.0,0.0,0.0,0.0,0.0,0.0,0.0,0.0,0.0,0.0,0.0,0.0,0.0,0.0,
2.2663,3.104462814631975,3.104462814631975,3.017401996157644,0.0,0.0,0.0,3.0754425418071976,0.0,0.0,0.0,0.0,0.0,0.0,0.0,0.0,0.0,0.0,0.0,0.0,0.0,0.0,
2.2846,3.1060245131364432,3.1060245131364432,3.0187519527136515,0.0,0.0,0.0,3.0769336596621795,0.0,0.0,0.0,0.0,0.0,0.0,0.0,0.0,0.0,0.0,0.0,0.0,0.0,0.0,
2.3029,3.1076023665230235,3.1076023665230235,3.0201156432974394,0.0,0.0,0.0,3.0784401254478286,0.0,0.0,0.0,0.0,0.0,0.0,0.0,0.0,0.0,0.0,0.0,0.0,0.0,0.0,
2.3212,3.1091964771080747,3.1091964771080747,3.0214931491753223,0.0,0.0,0.0,3.079962034463824,0.0,0.0,0.0,0.0,0.0,0.0,0.0,0.0,0.0,0.0,0.0,0.0,0.0,0.0,
2.3394,3.1107981037309993,3.1107981037309993,3.0228769116136673,0.0,0.0,0.0,3.0814910396918886,0.0,0.0,0.0,0.0,0.0,0.0,0.0,0.0,0.0,0.0,0.0,0.0,0.0,0.0,
2.3577,3.1124249516668216,3.1124249516668216,3.0242822201219397,0.0,0.0,0.0,3.083044041151861,0.0,0.0,0.0,0.0,0.0,0.0,0.0,0.0,0.0,0.0,0.0,0.0,0.0,0.0,
2.376,3.1140683726368454,3.1140683726368454,3.0257015946148624,0.0,0.0,0.0,3.084612779962851,0.0,0.0,0.0,0.0,0.0,0.0,0.0,0.0,0.0,0.0,0.0,0.0,0.0,0.0,
