energies(eV),real_xx,real_yy,real_zz,real_xy,real_yz,real_xz,real_ave,imag_xx,imag_yy,imag_zz,imag_xy,imag_yz,imag_xz,imag_ave,absorption_xx,absorption_yy,absorption_zz,absorption_xy,absorption_yz,absorption_xz,absorption_ave,band_gap
0.0,4.62929145281757,4.62929145281757,5.51673926624152,0.0,0.0,0.0,4.925107390625553,0.0,0.0,0.0,0.0,0.0,0.0,0.0,0.0,0.0,0.0,0.0,0.0,0.0,0.0,3.1323
0.0188,4.629318905200866,4.629318905200866,5.516779248639116,0.0,0.0,0.0,4.925139019680283,0.0,0.0,0.0,0.0,0.0,0.0,0.0,0.0,0.0,0.0,0.0,0.0,0.0,0.0,
0.0376,4.629401266371129,4.629401266371129,5.516899201895455,0.0,0.0,0.0,4.925233911545905,0.0,0.0,0.0,0.0,0.0,0.0,0.0,0.0,0.0,0.0,0.0,0.0,0.0,0.0,
0.0564,4.629538548391393,4.629538548391393,5.517099144204129,0.0,0.0,0.0,4.9253920803289715,0.0,0.0,0.0,0.0,0.0,0.0,0.0,0.0,0.0,0.0,0.0,0.0,0.0,0.0,
0.0752,4.629730771372547,4.629730771372547,5.51737910589647,0.0,0.0,0.0,4.9256135495471876,0.0,0.0,0.0,0.0,0.0,0.0,0.0,0.0,0.0,0.0,0.0,0.0,0.0,0.0,
0.094,4.629977963482389,4.629977963482389,5.5177391294549905,0.0,0.0,0.0,4.9258983521399236,0.0,0.0,0.0,0.0,0.0,0.0,0.0,0.0,0.0,0.0,0.0,0.0,0.0,0.0,
0.1128,4.630280160957947,4.630280160957947,5.518179269531787,0.0,0.0,0.0,4.926246530482561,0.0,0.0,0.0,0.0,0.0,0.0,0.0,0.0,0.0,0.0,0.0,0.0,0.0,0.0,
0.1316,4.630637408121629,4.630637408121629,5.518699592972383,0.0,0.0,0.0,4.926658136405213,0.0,0.0,0.0,0.0,0.0,0.0,0.0,0.0,0.0,0.0,0.0,0.0,0.0,0.0,
0.1504,4.63104975740092,4.63104975740092,5.519300178845101,0.0,0.0,0.0,4.927133231215646,0.0,0.0,0.0,0.0,0.0,0.0,0.0,0.0,0.0,0.0,0.0,0.0,0.0,0.0,
0.1692,4.6315172693515265,4.6315172693515265,5.5199811184755205,0.0,0.0,0.0,4.927671885726191,0.0,0.0,0.0,0.0,0.0,0.0,0.0,0.0,0.0,0.0,0.0,0.0,0.0,0.0,
0.1881,4.632042941041078,4.632042941041078,5.520746780792921,0.0,0.0,0.0,4.928277554291692,0.0,0.0,0.0,0.0,0.0,0.0,0.0,0.0,0.0,0.0,0.0,0.0,0.0,0.0,
0.2069,4.632621287066067,4.632621287066067,5.521589180063793,0.0,0.0,0.0,4.9289439180653085,0.0,0.0,0.0,0.0,0.0,0.0,0.0,0.0,0.0,0.0,0.0,0.0,0.0,0.0,
0.2257,4.633255026961544,4.633255026961544,5.5225122817559695,0.0,0.0,0.0,4.929674111893019,0.0,0.0,0.0,0.0,0.0,0.0,0.0,0.0,0.0,0.0,0.0,0.0,0.0,0.0,
0.2445,4.633944254146224,4.633944254146224,5.523516226745183,0.0,0.0,0.0,4.930468245012544,0.0,0.0,0.0,0.0,0.0,0.0,0.0,0.0,0.0,0.0,0.0,0.0,0.0,0.0,
0.2633,4.634689070338939,4.634689070338939,5.524601168419545,0.0,0.0,0.0,4.931326436365808,0.0,0.0,0.0,0.0,0.0,0.0,0.0,0.0,0.0,0.0,0.0,0.0,0.0,0.0,
0.2821,4.635489585604072,4.635489585604072,5.525767272747387,0.0,0.0,0.0,4.932248814651843,0.0,0.0,0.0,0.0,0.0,0.0,0.0,0.0,0.0,0.0,0.0,0.0,0.0,0.0,
0.3009,4.636345918400905,4.636345918400905,5.527014718350524,0.0,0.0,0.0,4.9332355183841115,0.0,0.0,0.0,0.0,0.0,0.0,0.0,0.0,0.0,0.0,0.0,0.0,0.0,0.0,
0.3197,4.637258195637028,4.637258195637028,5.5283436965834865,0.0,0.0,0.0,4.9342866959525145,0.0,0.0,0.0,0.0,0.0,0.0,0.0,0.0,0.0,0.0,0.0,0.0,0.0,0.0,
0.3385,4.638226552725511,4.638226552725511,5.529754411618449,0.0,0.0,0.0,4.935402505689823,0.0,0.0,0.0,0.0,0.0,0.0,0.0,0.0,0.0,0.0,0.0,0.0,0.0,0.0,
0.3573,4.639251133646144,4.639251133646144,5.5312470805362235,0.0,0.0,0.0,4.936583115942837,0.0,0.0,0.0,0.0,0.0,0.0,0.0,0.0,0.0,0.0,0.0,0.0,0.0,0.0,
0.3761,4.640332091010684,4.640332091010684,5.532821933423125,0.0,0.0,0.0,4.937828705148164,0.0,0.0,0.0,0.0,0.0,0.0,0.0,0.0,0.0,0.0,0.0,0.0,0.0,0.0,
0.3949,4.641469586132258,4.641469586132258,5.534479213473905,0.0,0.0,0.0,4.939139461912807,0.0,0.0,0.0,0.0,0.0,0.0,0.0,0.0,0.0,0.0,0.0,0.0,0.0,0.0,
0.4137,4.64266378909889,4.64266378909889,5.536219177101035,0.0,0.0,0.0,4.940515585099605,0.0,0.0,0.0,0.0,0.0,0.0,0.0,0.0,0.0,0.0,0.0,0.0,0.0,0.0,
0.4325,4.643914878851308,4.643914878851308,5.538042094050122,0.0,0.0,0.0,4.941957283917579,0.0,0.0,0.0,0.0,0.0,0.0,0.0,0.0,0.0,0.0,0.0,0.0,0.0,0.0,
0.4513,4.645223043265137,4.645223043265137,5.539948247521791,0.0,0.0,0.0,4.943464778017355,0.0,0.0,0.0,0.0,0.0,0.0,0.0,0.0,0.0,0.0,0.0,0.0,0.0,0.0,
0.4701,4.646588479237284,4.646588479237284,5.541937934300004,0.0,0.0,0.0,4.945038297591524,0.0,0.0,0.0,0.0,0.0,0.0,0.0,0.0,0.0,0.0,0.0,0.0,0.0,0.0,
0.4889,4.648011392777242,4.648011392777242,5.544011464887189,0.0,0.0,0.0,4.946678083480558,0.0,0.0,0.0,0.0,0.0,0.0,0.0,0.0,0.0,0.0,0.0,0.0,0.0,0.0,
0.5077,4.649491999102347,4.649491999102347,5.546169163645882,0.0,0.0,0.0,4.948384387283525,0.0,0.0,0.0,0.0,0.0,0.0,0.0,0.0,0.0,0.0,0.0,0.0,0.0,0.0,
0.5266,4.651038861643209,4.651038861643209,5.548423522142051,0.0,0.0,0.0,4.950167081809489,0.0,0.0,0.0,0.0,0.0,0.0,0.0,0.0,0.0,0.0,0.0,0.0,0.0,0.0,
0.5454,4.652635846486484,4.652635846486484,5.55075103886864,0.0,0.0,0.0,4.952007577280535,0.0,0.0,0.0,0.0,0.0,0.0,0.0,0.0,0.0,0.0,0.0,0.0,0.0,0.0,
0.5642,4.65429122736236,4.65429122736236,5.553163783527371,0.0,0.0,0.0,4.953915412750697,0.0,0.0,0.0,0.0,0.0,0.0,0.0,0.0,0.0,0.0,0.0,0.0,0.0,0.0,
0.583,4.656005257422688,4.656005257422688,5.5556621375568955,0.0,0.0,0.0,4.9558908841340905,0.0,0.0,0.0,0.0,0.0,0.0,0.0,0.0,0.0,0.0,0.0,0.0,0.0,0.0,
0.6018,4.657778199578115,4.657778199578115,5.558246497072183,0.0,0.0,0.0,4.957934298742805,0.0,0.0,0.0,0.0,0.0,0.0,0.0,0.0,0.0,0.0,0.0,0.0,0.0,0.0,
0.6206,4.65961032662331,4.65961032662331,5.560917273050168,0.0,0.0,0.0,4.960045975432263,0.0,0.0,0.0,0.0,0.0,0.0,0.0,0.0,0.0,0.0,0.0,0.0,0.0,0.0,
0.6394,4.661501921367517,4.661501921367517,5.563674891522951,0.0,0.0,0.0,4.962226244752661,0.0,0.0,0.0,0.0,0.0,0.0,0.0,0.0,0.0,0.0,0.0,0.0,0.0,0.0,
0.6582,4.663453276770717,4.663453276770717,5.566519793779481,0.0,0.0,0.0,4.964475449106971,0.0,0.0,0.0,0.0,0.0,0.0,0.0,0.0,0.0,0.0,0.0,0.0,0.0,0.0,
0.677,4.66546469608518,4.66546469608518,5.569452436574987,0.0,0.0,0.0,4.966793942915115,0.0,0.0,0.0,0.0,0.0,0.0,0.0,0.0,0.0,0.0,0.0,0.0,0.0,0.0,
0.6958,4.66753649300326,4.66753649300326,5.572473292349395,0.0,0.0,0.0,4.969182092785305,0.0,0.0,0.0,0.0,0.0,0.0,0.0,0.0,0.0,0.0,0.0,0.0,0.0,0.0,
0.7146,4.66966899181043,4.66966899181043,5.575582849454071,0.0,0.0,0.0,4.971640277691644,0.0,0.0,0.0,0.0,0.0,0.0,0.0,0.0,0.0,0.0,0.0,0.0,0.0,0.0,
0.7334,4.671862527545109,4.671862527545109,5.578781612387809,0.0,0.0,0.0,4.974168889159342,0.0,0.0,0.0,0.0,0.0,0.0,0.0,0.0,0.0,0.0,0.0,0.0,0.0,0.0,
0.7522,4.6741174461641855,4.6741174461641855,5.5820701020417,0.0,0.0,0.0,4.97676833145669,0.0,0.0,0.0,0.0,0.0,0.0,0.0,0.0,0.0,0.0,0.0,0.0,0.0,0.0,
0.771,4.676434104715388,4.676434104715388,5.585448855953795,0.0,0.0,0.0,4.979439021794857,0.0,0.0,0.0,0.0,0.0,0.0,0.0,0.0,0.0,0.0,0.0,0.0,0.0,0.0,
0.7898,4.678812871516021,4.678812871516021,5.588918428573063,0.0,0.0,0.0,4.982181390535035,0.0,0.0,0.0,0.0,0.0,0.0,0.0,0.0,0.0,0.0,0.0,0.0,0.0,0.0,
0.8086,4.681254126338757,4.681254126338757,5.592479391533663,0.0,0.0,0.0,4.984995881403726,0.0,0.0,0.0,0.0,0.0,0.0,0.0,0.0,0.0,0.0,0.0,0.0,0.0,0.0,
0.8274,4.68375826060412,4.68375826060412,5.596132333939511,0.0,0.0,0.0,4.987882951715917,0.0,0.0,0.0,0.0,0.0,0.0,0.0,0.0,0.0,0.0,0.0,0.0,0.0,0.0,
0.8462,4.6863256775805295,4.6863256775805295,5.599877862658995,0.0,0.0,0.0,4.990843072606684,0.0,0.0,0.0,0.0,0.0,0.0,0.0,0.0,0.0,0.0,0.0,0.0,0.0,0.0,
0.8651,4.688970958953851,4.688970958953851,5.603737271823323,0.0,0.0,0.0,4.993893063243675,0.0,0.0,0.0,0.0,0.0,0.0,0.0,0.0,0.0,0.0,0.0,0.0,0.0,0.0,
0.8839,4.691666541853302,4.691666541853302,5.607670367355178,0.0,0.0,0.0,4.997001150353928,0.0,0.0,0.0,0.0,0.0,0.0,0.0,0.0,0.0,0.0,0.0,0.0,0.0,0.0,
0.9027,4.694426692843904,4.694426692843904,5.611697983082406,0.0,0.0,0.0,5.000183789590071,0.0,0.0,0.0,0.0,0.0,0.0,0.0,0.0,0.0,0.0,0.0,0.0,0.0,0.0,
0.9215,4.69725186480618,4.69725186480618,5.615820800208147,0.0,0.0,0.0,5.00344150994017,0.0,0.0,0.0,0.0,0.0,0.0,0.0,0.0,0.0,0.0,0.0,0.0,0.0,0.0,
0.9403,4.7001425235864085,4.7001425235864085,5.620039519347992,0.0,0.0,0.0,5.0067748555069365,0.0,0.0,0.0,0.0,0.0,0.0,0.0,0.0,0.0,0.0,0.0,0.0,0.0,0.0,
0.9591,4.703099148245104,4.703099148245104,5.6243548608957905,0.0,0.0,0.0,5.010184385795333,0.0,0.0,0.0,0.0,0.0,0.0,0.0,0.0,0.0,0.0,0.0,0.0,0.0,0.0,
0.9779,4.706122231314509,4.706122231314509,5.628767565402871,0.0,0.0,0.0,5.013670676010629,0.0,0.0,0.0,0.0,0.0,0.0,0.0,0.0,0.0,0.0,0.0,0.0,0.0,0.0,
0.9967,4.709212279065872,4.709212279065872,5.633278393970677,0.0,0.0,0.0,5.017234317367474,0.0,0.0,0.0,0.0,0.0,0.0,0.0,0.0,0.0,0.0,0.0,0.0,0.0,0.0,
1.0155,4.712369811785722,4.712369811785722,5.637888128657671,0.0,0.0,0.0,5.020875917409705,0.0,0.0,0.0,0.0,0.0,0.0,0.0,0.0,0.0,0.0,0.0,0.0,0.0,0.0,
1.0343,4.7155953640628,4.7155953640628,5.642597572900795,0.0,0.0,0.0,5.024596100342131,0.0,0.0,0.0,0.0,0.0,0.0,0.0,0.0,0.0,0.0,0.0,0.0,0.0,0.0,
1.0531,4.718889485085152,4.718889485085152,5.647407551951749,0.0,0.0,0.0,5.028395507374018,0.0,0.0,0.0,0.0,0.0,0.0,0.0,0.0,0.0,0.0,0.0,0.0,0.0,0.0,
1.0719,4.722252738947855,4.722252738947855,5.652318913329197,0.0,0.0,0.0,5.032274797074969,0.0,0.0,0.0,0.0,0.0,0.0,0.0,0.0,0.0,0.0,0.0,0.0,0.0,0.0,
1.0907,4.7256857049720375,4.7256857049720375,5.657332527286956,0.0,0.0,0.0,5.036234645743677,0.0,0.0,0.0,0.0,0.0,0.0,0.0,0.0,0.0,0.0,0.0,0.0,0.0,0.0,
1.1095,4.729188978035514,4.729188978035514,5.662449287299042,0.0,0.0,0.0,5.040275747790023,0.0,0.0,0.0,0.0,0.0,0.0,0.0,0.0,0.0,0.0,0.0,0.0,0.0,0.0,
1.1283,4.732763168915316,4.732763168915316,5.667670110561986,0.0,0.0,0.0,5.044398816130872,0.0,0.0,0.0,0.0,0.0,0.0,0.0,0.0,0.0,0.0,0.0,0.0,0.0,0.0,
1.1471,4.736408904642757,4.736408904642757,5.672995938515116,0.0,0.0,0.0,5.04860458260021,0.0,0.0,0.0,0.0,0.0,0.0,0.0,0.0,0.0,0.0,0.0,0.0,0.0,0.0,
1.1659,4.740126828871301,4.740126828871301,5.678427737379636,0.0,0.0,0.0,5.05289379837408,0.0,0.0,0.0,0.0,0.0,0.0,0.0,0.0,0.0,0.0,0.0,0.0,0.0,0.0,
1.1847,4.7439176022579606,4.7439176022579606,5.683966498716966,0.0,0.0,0.0,5.057267234410962,0.0,0.0,0.0,0.0,0.0,0.0,0.0,0.0,0.0,0.0,0.0,0.0,0.0,0.0,
1.2035,4.7477819028586525,4.7477819028586525,5.689613240007204,0.0,0.0,0.0,5.061725681908169,0.0,0.0,0.0,0.0,0.0,0.0,0.0,0.0,0.0,0.0,0.0,0.0,0.0,0.0,
1.2224,4.751741575851864,4.751741575851864,5.695399914422882,0.0,0.0,0.0,5.066294355375537,0.0,0.0,0.0,0.0,0.0,0.0,0.0,0.0,0.0,0.0,0.0,0.0,0.0,0.0,
1.2412,4.755755437252391,4.755755437252391,5.701266363278178,0.0,0.0,0.0,5.070925745927654,0.0,0.0,0.0,0.0,0.0,0.0,0.0,0.0,0.0,0.0,0.0,0.0,0.0,0.0,
1.26,4.759844972550351,4.759844972550351,5.70724401206274,0.0,0.0,0.0,5.0756446523878145,0.0,0.0,0.0,0.0,0.0,0.0,0.0,0.0,0.0,0.0,0.0,0.0,0.0,0.0,
1.2788,4.764010933751986,4.764010933751986,5.713333988299612,0.0,0.0,0.0,5.080451951934528,0.0,0.0,0.0,0.0,0.0,0.0,0.0,0.0,0.0,0.0,0.0,0.0,0.0,0.0,
1.2976,4.76825409247088,4.76825409247088,5.7195374486567605,0.0,0.0,0.0,5.08534854453284,0.0,0.0,0.0,0.0,0.0,0.0,0.0,0.0,0.0,0.0,0.0,0.0,0.0,0.0,
1.3164,4.772575240419622,4.772575240419622,5.7258555796640875,0.0,0.0,0.0,5.090335353501111,0.0,0.0,0.0,0.0,0.0,0.0,0.0,0.0,0.0,0.0,0.0,0.0,0.0,0.0,
1.3352,4.776975189919909,4.776975189919909,5.732289598456714,0.0,0.0,0.0,5.095413326098844,0.0,0.0,0.0,0.0,0.0,0.0,0.0,0.0,0.0,0.0,0.0,0.0,0.0,0.0,
1.354,4.7814547744316975,4.7814547744316975,5.738840753545871,0.0,0.0,0.0,5.100583434136422,0.0,0.0,0.0,0.0,0.0,0.0,0.0,0.0,0.0,0.0,0.0,0.0,0.0,0.0,
1.3728,4.786014849102584,4.786014849102584,5.74551032561848,0.0,0.0,0.0,5.105846674607882,0.0,0.0,0.0,0.0,0.0,0.0,0.0,0.0,0.0,0.0,0.0,0.0,0.0,0.0,
1.3916,4.790656291338008,4.790656291338008,5.752299628366444,0.0,0.0,0.0,5.111204070347487,0.0,0.0,0.0,0.0,0.0,0.0,0.0,0.0,0.0,0.0,0.0,0.0,0.0,0.0,
1.4104,4.795380001393063,4.795380001393063,5.759210009347161,0.0,0.0,0.0,5.116656670711095,0.0,0.0,0.0,0.0,0.0,0.0,0.0,0.0,0.0,0.0,0.0,0.0,0.0,0.0,
1.4292,4.800186902987581,4.800186902987581,5.766242850876591,0.0,0.0,0.0,5.122205552283917,0.0,0.0,0.0,0.0,0.0,0.0,0.0,0.0,0.0,0.0,0.0,0.0,0.0,0.0,
1.448,4.805077943944223,4.805077943944223,5.773399570956081,0.0,0.0,0.0,5.127851819614842,0.0,0.0,0.0,0.0,0.0,0.0,0.0,0.0,0.0,0.0,0.0,0.0,0.0,0.0,
1.4668,4.810054096852301,4.810054096852301,5.78068162423458,0.0,0.0,0.0,5.133596605979728,0.0,0.0,0.0,0.0,0.0,0.0,0.0,0.0,0.0,0.0,0.0,0.0,0.0,0.0,
1.4856,4.815116359756807,4.815116359756807,5.788090503007943,0.0,0.0,0.0,5.1394410741738525,0.0,0.0,0.0,0.0,0.0,0.0,0.0,0.0,0.0,0.0,0.0,0.0,0.0,0.0,
1.5044,4.820265756875087,4.820265756875087,5.795627738256764,0.0,0.0,0.0,5.145386417335646,0.0,0.0,0.0,0.0,0.0,0.0,0.0,0.0,0.0,0.0,0.0,0.0,0.0,0.0,
1.5232,4.8255033393417275,4.8255033393417275,5.803294900724166,0.0,0.0,0.0,5.15143385980254,0.0,0.0,0.0,0.0,0.0,0.0,0.0,0.0,0.0,0.0,0.0,0.0,0.0,0.0,
1.542,4.83083018598334,4.83083018598334,5.811093602036652,0.0,0.0,0.0,5.15758465800111,0.0,0.0,0.0,0.0,0.0,0.0,0.0,0.0,0.0,0.0,0.0,0.0,0.0,0.0,
1.5609,4.836276462760737,4.836276462760737,5.819068045925718,0.0,0.0,0.0,5.163873657149064,0.0,0.0,0.0,0.0,0.0,0.0,0.0,0.0,0.0,0.0,0.0,0.0,0.0,0.0,
1.5797,4.841785678899951,4.841785678899951,5.827135551321653,0.0,0.0,0.0,5.170235636373852,0.0,0.0,0.0,0.0,0.0,0.0,0.0,0.0,0.0,0.0,0.0,0.0,0.0,0.0,
1.5985,4.847387576358177,4.847387576358177,5.835339697002786,0.0,0.0,0.0,5.17670494990638,0.0,0.0,0.0,0.0,0.0,0.0,0.0,0.0,0.0,0.0,0.0,0.0,0.0,0.0,
1.6173,4.85308335329111,4.85308335329111,5.843682270492921,0.0,0.0,0.0,5.18328299235838,0.0,0.0,0.0,0.0,0.0,0.0,0.0,0.0,0.0,0.0,0.0,0.0,0.0,0.0,
1.6361,4.858874239923692,4.858874239923692,5.852165106513163,0.0,0.0,0.0,5.1899711954535155,0.0,0.0,0.0,0.0,0.0,0.0,0.0,0.0,0.0,0.0,0.0,0.0,0.0,0.0,
1.6549,4.8647614995361605,4.8647614995361605,5.860790088400465,0.0,0.0,0.0,5.1967710291575955,0.0,0.0,0.0,0.0,0.0,0.0,0.0,0.0,0.0,0.0,0.0,0.0,0.0,0.0,
1.6737,4.870746429491996,4.870746429491996,5.869559149585336,0.0,0.0,0.0,5.203684002856442,0.0,0.0,0.0,0.0,0.0,0.0,0.0,0.0,0.0,0.0,0.0,0.0,0.0,0.0,
1.6925,4.876830362309066,4.876830362309066,5.878474275129969,0.0,0.0,0.0,5.210711666582701,0.0,0.0,0.0,0.0,0.0,0.0,0.0,0.0,0.0,0.0,0.0,0.0,0.0,0.0,
1.7113,4.883014666777097,4.883014666777097,5.887537503331572,0.0,0.0,0.0,5.2178556122952555,0.0,0.0,0.0,0.0,0.0,0.0,0.0,0.0,0.0,0.0,0.0,0.0,0.0,0.0,
1.7301,4.889300749123342,4.889300749123342,5.896750927393027,0.0,0.0,0.0,5.225117475213237,0.0,0.0,0.0,0.0,0.0,0.0,0.0,0.0,0.0,0.0,0.0,0.0,0.0,0.0,
1.7489,4.895690054229118,4.895690054229118,5.906116697164787,0.0,0.0,0.0,5.2324989352076745,0.0,0.0,0.0,0.0,0.0,0.0,0.0,0.0,0.0,0.0,0.0,0.0,0.0,0.0,
1.7677,4.902184066900093,4.902184066900093,5.915637020961649,0.0,0.0,0.0,5.240001718253945,0.0,0.0,0.0,0.0,0.0,0.0,0.0,0.0,0.0,0.0,0.0,0.0,0.0,0.0,
1.7865,4.908784313192953,4.908784313192953,5.925314167458339,0.0,0.0,0.0,5.247627597948082,0.0,0.0,0.0,0.0,0.0,0.0,0.0,0.0,0.0,0.0,0.0,0.0,0.0,0.0,
1.8053,4.915492361801707,4.915492361801707,5.935150467668079,0.0,0.0,0.0,5.255378397090498,0.0,0.0,0.0,0.0,0.0,0.0,0.0,0.0,0.0,0.0,0.0,0.0,0.0,0.0,
1.8241,4.92230982550703,4.92230982550703,5.945148317008409,0.0,0.0,0.0,5.2632559893408235,0.0,0.0,0.0,0.0,0.0,0.0,0.0,0.0,0.0,0.0,0.0,0.0,0.0,0.0,
1.8429,4.929238362691915,4.929238362691915,5.955310177459533,0.0,0.0,0.0,5.271262300947789,0.0,0.0,0.0,0.0,0.0,0.0,0.0,0.0,0.0,0.0,0.0,0.0,0.0,0.0,
1.8617,4.936279678927425,4.936279678927425,5.965638579819508,0.0,0.0,0.0,5.27939931255812,0.0,0.0,0.0,0.0,0.0,0.0,0.0,0.0,0.0,0.0,0.0,0.0,0.0,0.0,
1.8805,4.943435528633073,4.943435528633073,5.976136126062367,0.0,0.0,0.0,5.287669061109504,0.0,0.0,0.0,0.0,0.0,0.0,0.0,0.0,0.0,0.0,0.0,0.0,0.0,0.0,
1.8994,4.950746713019861,4.950746713019861,5.986862708030924,0.0,0.0,0.0,5.296118711356882,0.0,0.0,0.0,0.0,0.0,0.0,0.0,0.0,0.0,0.0,0.0,0.0,0.0,0.0,
1.9182,4.95813773085816,4.95813773085816,5.997707581180699,0.0,0.0,0.0,5.304661014299007,0.0,0.0,0.0,0.0,0.0,0.0,0.0,0.0,0.0,0.0,0.0,0.0,0.0,0.0,
1.937,4.965648866640605,4.965648866640605,6.008729871708576,0.0,0.0,0.0,5.313342534996596,0.0,0.0,0.0,0.0,0.0,0.0,0.0,0.0,0.0,0.0,0.0,0.0,0.0,0.0,
1.9558,4.973282088729367,4.973282088729367,6.01993249257914,0.0,0.0,0.0,5.322165556679291,0.0,0.0,0.0,0.0,0.0,0.0,0.0,0.0,0.0,0.0,0.0,0.0,0.0,0.0,
1.9746,4.981039423923731,4.981039423923731,6.031318441495948,0.0,0.0,0.0,5.331132429781136,0.0,0.0,0.0,0.0,0.0,0.0,0.0,0.0,0.0,0.0,0.0,0.0,0.0,0.0,
1.9934,4.988922959668841,4.988922959668841,6.042890804012731,0.0,0.0,0.0,5.340245574450138,0.0,0.0,0.0,0.0,0.0,0.0,0.0,0.0,0.0,0.0,0.0,0.0,0.0,0.0,
2.0122,4.996934846376764,4.996934846376764,6.054652756797728,0.0,0.0,0.0,5.349507483183753,0.0,0.0,0.0,0.0,0.0,0.0,0.0,0.0,0.0,0.0,0.0,0.0,0.0,0.0,
2.031,5.00507729986711,5.00507729986711,6.066607571059936,0.0,0.0,0.0,5.358920723598051,0.0,0.0,0.0,0.0,0.0,0.0,0.0,0.0,0.0,0.0,0.0,0.0,0.0,0.0,
2.0498,5.013352603934402,5.013352603934402,6.078758616148067,0.0,0.0,0.0,5.368487941338958,0.0,0.0,0.0,0.0,0.0,0.0,0.0,0.0,0.0,0.0,0.0,0.0,0.0,0.0,
2.0686,5.021763113051241,5.021763113051241,6.091109363332619,0.0,0.0,0.0,5.378211863145034,0.0,0.0,0.0,0.0,0.0,0.0,0.0,0.0,0.0,0.0,0.0,0.0,0.0,0.0,
2.0874,5.030311255216103,5.030311255216103,6.1036633897832715,0.0,0.0,0.0,5.388095300071825,0.0,0.0,0.0,0.0,0.0,0.0,0.0,0.0,0.0,0.0,0.0,0.0,0.0,0.0,
2.1062,5.038999534955413,5.038999534955413,6.116424382753876,0.0,0.0,0.0,5.398141150888233,0.0,0.0,0.0,0.0,0.0,0.0,0.0,0.0,0.0,0.0,0.0,0.0,0.0,0.0,
2.125,5.04783053649109,5.04783053649109,6.1293961439891484,0.0,0.0,0.0,5.4083524056571095,0.0,0.0,0.0,0.0,0.0,0.0,0.0,0.0,0.0,0.0,0.0,0.0,0.0,0.0,
2.1438,5.056806927084912,5.056806927084912,6.142582594367842,0.0,0.0,0.0,5.418732149512555,0.0,0.0,0.0,0.0,0.0,0.0,0.0,0.0,0.0,0.0,0.0,0.0,0.0,0.0,
2.1626,5.065931460572141,5.065931460572141,6.155987778798336,0.0,0.0,0.0,5.4292835666475385,0.0,0.0,0.0,0.0,0.0,0.0,0.0,0.0,0.0,0.0,0.0,0.0,0.0,0.0,
2.1814,5.075206981098949,5.075206981098949,6.16961587138462,0.0,0.0,0.0,5.440009944527506,0.0,0.0,0.0,0.0,0.0,0.0,0.0,0.0,0.0,0.0,0.0,0.0,0.0,0.0,
2.2002,5.084636427078023,5.084636427078023,6.183471180881047,0.0,0.0,0.0,5.450914678345698,0.0,0.0,0.0,0.0,0.0,0.0,0.0,0.0,0.0,0.0,0.0,0.0,0.0,0.0,
2.219,5.094222835379077,5.094222835379077,6.197558156457069,0.0,0.0,0.0,5.462001275738408,0.0,0.0,0.0,0.0,0.0,0.0,0.0,0.0,0.0,0.0,0.0,0.0,0.0,0.0,
2.2378,5.103969345772824,5.103969345772824,6.211881393794253,0.0,0.0,0.0,5.473273361779967,0.0,0.0,0.0,0.0,0.0,0.0,0.0,0.0,0.0,0.0,0.0,0.0,0.0,0.0,
2.2567,5.11393236037278,5.11393236037278,6.226523764037341,0.0,0.0,0.0,5.4847961615943,0.0,0.0,0.0,0.0,0.0,0.0,0.0,0.0,0.0,0.0,0.0,0.0,0.0,0.0,
2.2755,5.124009825690679,5.124009825690679,6.241335252141635,0.0,0.0,0.0,5.496451634507665,0.0,0.0,0.0,0.0,0.0,0.0,0.0,0.0,0.0,0.0,0.0,0.0,0.0,0.0,
2.2943,5.1342574973093145,5.1342574973093145,6.256397762069974,0.0,0.0,0.0,5.508304252229535,0.0,0.0,0.0,0.0,0.0,0.0,0.0,0.0,0.0,0.0,0.0,0.0,0.0,0.0,
2.3131,5.144678977514726,5.144678977514726,6.27171654503085,0.0,0.0,0.0,5.5203581666867665,0.0,0.0,0.0,0.0,0.0,0.0,0.0,0.0,0.0,0.0,0.0,0.0,0.0,0.0,
2.3319,5.155277998312697,5.155277998312697,6.28729703520636,0.0,0.0,0.0,5.532617677277251,0.0,0.0,0.0,0.0,0.0,0.0,0.0,0.0,0.0,0.0,0.0,0.0,0.0,0.0,
2.3507,5.1660584278894985,5.1660584278894985,6.303144858452511,0.0,0.0,0.0,5.545087238077169,0.0,0.0,0.0,0.0,0.0,0.0,0.0,0.0,0.0,0.0,0.0,0.0,0.0,0.0,
2.3695,5.177024277516726,5.177024277516726,6.319265841562639,0.0,0.0,0.0,5.5577714655320305,0.0,0.0,0.0,0.0,0.0,0.0,0.0,0.0,0.0,0.0,0.0,0.0,0.0,0.0,
2.3883,5.188179708940658,5.188179708940658,6.3356660221417505,0.0,0.0,0.0,5.570675146674355,0.0,0.0,0.0,0.0,0.0,0.0,0.0,0.0,0.0,0.0,0.0,0.0,0.0,0.0,
2.4071,5.19952904230159,5.19952904230159,6.3523516591439355,0.0,0.0,0.0,5.5838032479157045,0.0,0.0,0.0,0.0,0.0,0.0,0.0,0.0,0.0,0.0,0.0,0.0,0.0,0.0,
2.4259,5.211076764633284,5.211076764633284,6.369329244131821,0.0,0.0,0.0,5.59716092446613,0.0,0.0,0.0,0.0,0.0,0.0,0.0,0.0,0.0,0.0,0.0,0.0,0.0,0.0,
2.4447,5.22282753900014,5.22282753900014,6.3866055133225945,0.0,0.0,0.0,5.610753530440959,0.0,0.0,0.0,0.0,0.0,0.0,0.0,0.0,0.0,0.0,0.0,0.0,0.0,0.0,
2.4635,5.2347862143354265,5.2347862143354265,6.404187460492929,0.0,0.0,0.0,5.624586629721261,0.0,0.0,0.0,0.0,0.0,0.0,0.0,0.0,0.0,0.0,0.0,0.0,0.0,0.0,
2.4823,5.246957836053867,5.246957836053867,6.422082350824112,0.0,0.0,0.0,5.638666007643948,0.0,0.0,0.0,0.0,0.0,0.0,0.0,0.0,0.0,0.0,0.0,0.0,0.0,0.0,
