energies(eV),real_xx,real_yy,real_zz,real_xy,real_yz,real_xz,real_ave,imag_xx,imag_yy,imag_zz,imag_xy,imag_yz,imag_xz,imag_ave,absorption_xx,absorption_yy,absorption_zz,absorption_xy,absorption_yz,absorption_xz,absorption_ave,band_gap
0.0,3.9358439623280184,4.054479668762401,4.131665687797939,0.0,0.0,0.0,4.04066310629612,0.0,0.0,0.0,0.0,0.0,0.0,0.0,0.0,0.0,0.0,0.0,0.0,0.0,0.0,3.6216000000000004
0.0139,3.9358533973794954,4.054490163604289,4.131677351935917,0.0,0.0,0.0,4.040673637639901,0.0,0.0,0.0,0.0,0.0,0.0,0.0,0.0,0.0,0.0,0.0,0.0,0.0,0.0,
0.0278,3.9358817030745503,4.0545216487809554,4.131712345148559,0.0,0.0,0.0,4.040705232334688,0.0,0.0,0.0,0.0,0.0,0.0,0.0,0.0,0.0,0.0,0.0,0.0,0.0,0.0,
0.0416,3.9359284742222154,4.054573673734282,4.131770166899102,0.0,0.0,0.0,4.0407574382852,0.0,0.0,0.0,0.0,0.0,0.0,0.0,0.0,0.0,0.0,0.0,0.0,0.0,0.0,
0.0555,3.935994391348885,4.054646995680551,4.131851659148533,0.0,0.0,0.0,4.040831015392656,0.0,0.0,0.0,0.0,0.0,0.0,0.0,0.0,0.0,0.0,0.0,0.0,0.0,0.0,
0.0694,3.936079187199718,4.054741317691695,4.131956492410253,0.0,0.0,0.0,4.040925665767222,0.0,0.0,0.0,0.0,0.0,0.0,0.0,0.0,0.0,0.0,0.0,0.0,0.0,0.0,
0.0833,3.9361828666357606,4.054856645621138,4.132084673866027,0.0,0.0,0.0,4.041041395374308,0.0,0.0,0.0,0.0,0.0,0.0,0.0,0.0,0.0,0.0,0.0,0.0,0.0,0.0,
0.0971,3.936304486335454,4.054991930694917,4.1322350386577025,0.0,0.0,0.0,4.041177151896025,0.0,0.0,0.0,0.0,0.0,0.0,0.0,0.0,0.0,0.0,0.0,0.0,0.0,0.0,
0.111,3.9364458158868545,4.055149141976338,4.132409776304355,0.0,0.0,0.0,4.041334911389183,0.0,0.0,0.0,0.0,0.0,0.0,0.0,0.0,0.0,0.0,0.0,0.0,0.0,0.0,
0.1249,3.936606050051333,4.055327384498844,4.132607893216881,0.0,0.0,0.0,4.041513775922353,0.0,0.0,0.0,0.0,0.0,0.0,0.0,0.0,0.0,0.0,0.0,0.0,0.0,0.0,
0.1388,3.9367851980244897,4.0555266693370235,4.132829402985356,0.0,0.0,0.0,4.04171375678229,0.0,0.0,0.0,0.0,0.0,0.0,0.0,0.0,0.0,0.0,0.0,0.0,0.0,0.0,
0.1526,3.936981777503418,4.0557453484782435,4.133072475177892,0.0,0.0,0.0,4.041933200386517,0.0,0.0,0.0,0.0,0.0,0.0,0.0,0.0,0.0,0.0,0.0,0.0,0.0,0.0,
0.1665,3.9371986487701736,4.055986604800728,4.133340649290034,0.0,0.0,0.0,4.042175300953645,0.0,0.0,0.0,0.0,0.0,0.0,0.0,0.0,0.0,0.0,0.0,0.0,0.0,0.0,
0.1804,3.937434467882402,4.056248944435097,4.133632266573175,0.0,0.0,0.0,4.042438559630225,0.0,0.0,0.0,0.0,0.0,0.0,0.0,0.0,0.0,0.0,0.0,0.0,0.0,0.0,
0.1943,3.9376892483972106,4.0565323837123834,4.133947347073542,0.0,0.0,0.0,4.042722993061045,0.0,0.0,0.0,0.0,0.0,0.0,0.0,0.0,0.0,0.0,0.0,0.0,0.0,0.0,
0.2081,3.9379609676931855,4.056834673773844,4.134283392817656,0.0,0.0,0.0,4.043026344761562,0.0,0.0,0.0,0.0,0.0,0.0,0.0,0.0,0.0,0.0,0.0,0.0,0.0,0.0,
0.222,3.9382535793888573,4.057160214499042,4.134645297193539,0.0,0.0,0.0,4.043353030360479,0.0,0.0,0.0,0.0,0.0,0.0,0.0,0.0,0.0,0.0,0.0,0.0,0.0,0.0,
0.2359,3.938565199632705,4.057506911667769,4.13503073452225,0.0,0.0,0.0,4.043700948607575,0.0,0.0,0.0,0.0,0.0,0.0,0.0,0.0,0.0,0.0,0.0,0.0,0.0,0.0,
0.2498,3.938895846383218,4.057874786919785,4.135439731376848,0.0,0.0,0.0,4.04407012155995,0.0,0.0,0.0,0.0,0.0,0.0,0.0,0.0,0.0,0.0,0.0,0.0,0.0,0.0,
0.2636,3.9392429548733143,4.0582609883534015,4.135869119551998,0.0,0.0,0.0,4.044457687592905,0.0,0.0,0.0,0.0,0.0,0.0,0.0,0.0,0.0,0.0,0.0,0.0,0.0,0.0,
0.2775,3.9396115757182413,4.058671137264346,4.136325151756273,0.0,0.0,0.0,4.044869288246287,0.0,0.0,0.0,0.0,0.0,0.0,0.0,0.0,0.0,0.0,0.0,0.0,0.0,0.0,
0.2914,3.939999283463136,4.059102537045915,4.136804832889246,0.0,0.0,0.0,4.045302217799432,0.0,0.0,0.0,0.0,0.0,0.0,0.0,0.0,0.0,0.0,0.0,0.0,0.0,0.0,
0.3053,3.9404061005209616,4.0595552147161635,4.137308196145202,0.0,0.0,0.0,4.0457565037941094,0.0,0.0,0.0,0.0,0.0,0.0,0.0,0.0,0.0,0.0,0.0,0.0,0.0,0.0,
0.3191,3.9408289176563565,4.060025712537185,4.137831399665057,0.0,0.0,0.0,4.046228676619533,0.0,0.0,0.0,0.0,0.0,0.0,0.0,0.0,0.0,0.0,0.0,0.0,0.0,0.0,
0.333,3.9412738871705115,4.060520878878894,4.138382062437405,0.0,0.0,0.0,4.046725609495604,0.0,0.0,0.0,0.0,0.0,0.0,0.0,0.0,0.0,0.0,0.0,0.0,0.0,0.0,
0.3469,3.94173803981739,4.06103741211803,4.138956516720954,0.0,0.0,0.0,4.047243989552125,0.0,0.0,0.0,0.0,0.0,0.0,0.0,0.0,0.0,0.0,0.0,0.0,0.0,0.0,
0.3608,3.9422214025309468,4.061575344738553,4.139554802449505,0.0,0.0,0.0,4.0477838499063346,0.0,0.0,0.0,0.0,0.0,0.0,0.0,0.0,0.0,0.0,0.0,0.0,0.0,0.0,
0.3747,3.9427240033893893,4.062134710609013,4.140176961266414,0.0,0.0,0.0,4.048345225088272,0.0,0.0,0.0,0.0,0.0,0.0,0.0,0.0,0.0,0.0,0.0,0.0,0.0,0.0,
0.3885,3.943242048292993,4.062711289569685,4.140818302992912,0.0,0.0,0.0,4.048923880285197,0.0,0.0,0.0,0.0,0.0,0.0,0.0,0.0,0.0,0.0,0.0,0.0,0.0,0.0,
0.4024,3.9437830753358223,4.0633134742721415,4.1414881672513175,0.0,0.0,0.0,4.049528238953093,0.0,0.0,0.0,0.0,0.0,0.0,0.0,0.0,0.0,0.0,0.0,0.0,0.0,0.0,
0.4163,3.944343431447,4.0639372019307505,4.142182039537636,0.0,0.0,0.0,4.050154224305129,0.0,0.0,0.0,0.0,0.0,0.0,0.0,0.0,0.0,0.0,0.0,0.0,0.0,0.0,
0.4302,3.9449231493286683,4.064582512015285,4.142899968418574,0.0,0.0,0.0,4.050801876587509,0.0,0.0,0.0,0.0,0.0,0.0,0.0,0.0,0.0,0.0,0.0,0.0,0.0,0.0,
0.444,3.9455178833376126,4.065244570014161,4.14363657962015,0.0,0.0,0.0,4.051466344323974,0.0,0.0,0.0,0.0,0.0,0.0,0.0,0.0,0.0,0.0,0.0,0.0,0.0,0.0,
0.4579,3.946136287647672,4.065933013035355,4.14440260044813,0.0,0.0,0.0,4.052157300377052,0.0,0.0,0.0,0.0,0.0,0.0,0.0,0.0,0.0,0.0,0.0,0.0,0.0,0.0,
0.4718,3.946774158633203,4.066643165140251,4.145192833786819,0.0,0.0,0.0,4.052870052520091,0.0,0.0,0.0,0.0,0.0,0.0,0.0,0.0,0.0,0.0,0.0,0.0,0.0,0.0,
0.4857,3.94743153371907,4.067375071529808,4.146007335303143,0.0,0.0,0.0,4.0536046468506735,0.0,0.0,0.0,0.0,0.0,0.0,0.0,0.0,0.0,0.0,0.0,0.0,0.0,0.0,
0.4995,3.948103511732154,4.068123278538376,4.146840040733,0.0,0.0,0.0,4.05435561033451,0.0,0.0,0.0,0.0,0.0,0.0,0.0,0.0,0.0,0.0,0.0,0.0,0.0,0.0,
0.5134,3.9487998710737298,4.068898677579383,4.14770307720811,0.0,0.0,0.0,4.055133875287074,0.0,0.0,0.0,0.0,0.0,0.0,0.0,0.0,0.0,0.0,0.0,0.0,0.0,0.0,
0.5273,3.9495158537204325,4.069695974933865,4.148590559324202,0.0,0.0,0.0,4.055934129326166,0.0,0.0,0.0,0.0,0.0,0.0,0.0,0.0,0.0,0.0,0.0,0.0,0.0,0.0,
0.5412,3.9502515019338174,4.070515221684395,4.1495025500533345,0.0,0.0,0.0,4.056756424557182,0.0,0.0,0.0,0.0,0.0,0.0,0.0,0.0,0.0,0.0,0.0,0.0,0.0,0.0,
0.555,3.9510013544903027,4.071350339561814,4.150432288446023,0.0,0.0,0.0,4.057594660832713,0.0,0.0,0.0,0.0,0.0,0.0,0.0,0.0,0.0,0.0,0.0,0.0,0.0,0.0,
0.5689,3.9517763232781955,4.072213485486552,4.151393315283081,0.0,0.0,0.0,4.058461041349276,0.0,0.0,0.0,0.0,0.0,0.0,0.0,0.0,0.0,0.0,0.0,0.0,0.0,0.0,
0.5828,3.9525710915026835,4.073098742689418,4.152379050401049,0.0,0.0,0.0,4.059349628197716,0.0,0.0,0.0,0.0,0.0,0.0,0.0,0.0,0.0,0.0,0.0,0.0,0.0,0.0,
0.5967,3.9533857063922757,4.074006168306778,4.153389564311855,0.0,0.0,0.0,4.060260479670303,0.0,0.0,0.0,0.0,0.0,0.0,0.0,0.0,0.0,0.0,0.0,0.0,0.0,0.0,
0.6105,3.9542141416046017,4.0749290533513225,4.1544173918610205,0.0,0.0,0.0,4.061186862272315,0.0,0.0,0.0,0.0,0.0,0.0,0.0,0.0,0.0,0.0,0.0,0.0,0.0,0.0,
0.6244,3.955068452915263,4.075880832842852,4.155477503034412,0.0,0.0,0.0,4.062142262930842,0.0,0.0,0.0,0.0,0.0,0.0,0.0,0.0,0.0,0.0,0.0,0.0,0.0,0.0,
0.6383,3.955942759840932,4.076854961032781,4.156562615622287,0.0,0.0,0.0,4.0631201121653335,0.0,0.0,0.0,0.0,0.0,0.0,0.0,0.0,0.0,0.0,0.0,0.0,0.0,0.0,
0.6522,3.9568371147243195,4.077851501306085,4.157672807942889,0.0,0.0,0.0,4.064120474657765,0.0,0.0,0.0,0.0,0.0,0.0,0.0,0.0,0.0,0.0,0.0,0.0,0.0,0.0,
0.666,3.9577449204730994,4.078863107157967,4.158799902265741,0.0,0.0,0.0,4.065135976632269,0.0,0.0,0.0,0.0,0.0,0.0,0.0,0.0,0.0,0.0,0.0,0.0,0.0,0.0,
0.6799,3.9586793883239126,4.07990450573403,4.159960315130098,0.0,0.0,0.0,4.06618140306268,0.0,0.0,0.0,0.0,0.0,0.0,0.0,0.0,0.0,0.0,0.0,0.0,0.0,0.0,
0.6938,3.95963406862976,4.080968515698622,4.161146054150155,0.0,0.0,0.0,4.067249546159513,0.0,0.0,0.0,0.0,0.0,0.0,0.0,0.0,0.0,0.0,0.0,0.0,0.0,0.0,
0.7077,3.9606090190128396,4.082055206904602,4.162357205750951,0.0,0.0,0.0,4.068340477222797,0.0,0.0,0.0,0.0,0.0,0.0,0.0,0.0,0.0,0.0,0.0,0.0,0.0,0.0,
0.7216,3.9616042984457733,4.08316465086209,4.163593858439137,0.0,0.0,0.0,4.0694542692489994,0.0,0.0,0.0,0.0,0.0,0.0,0.0,0.0,0.0,0.0,0.0,0.0,0.0,0.0,
0.7354,3.9626125873325355,4.084288693234191,4.164846930316928,0.0,0.0,0.0,4.070582736961218,0.0,0.0,0.0,0.0,0.0,0.0,0.0,0.0,0.0,0.0,0.0,0.0,0.0,0.0,
0.7493,3.9636485598905202,4.085443698908286,4.166134674019255,0.0,0.0,0.0,4.071742310939354,0.0,0.0,0.0,0.0,0.0,0.0,0.0,0.0,0.0,0.0,0.0,0.0,0.0,0.0,
0.7632,3.9647050461801587,4.08662168141122,4.167448196348803,0.0,0.0,0.0,4.072924974646727,0.0,0.0,0.0,0.0,0.0,0.0,0.0,0.0,0.0,0.0,0.0,0.0,0.0,0.0,
0.7771,3.9657821106876505,4.0878227190322605,4.168787594346629,0.0,0.0,0.0,4.07413080802218,0.0,0.0,0.0,0.0,0.0,0.0,0.0,0.0,0.0,0.0,0.0,0.0,0.0,0.0,
0.7909,3.966871848243874,4.089038001988827,4.1701430514214834,0.0,0.0,0.0,4.0753509672180614,0.0,0.0,0.0,0.0,0.0,0.0,0.0,0.0,0.0,0.0,0.0,0.0,0.0,0.0,
0.8048,3.9679901190643285,4.090285224370167,4.171534312722271,0.0,0.0,0.0,4.076603218718922,0.0,0.0,0.0,0.0,0.0,0.0,0.0,0.0,0.0,0.0,0.0,0.0,0.0,0.0,
0.8187,3.9691291695941153,4.091555746646783,4.172951753339319,0.0,0.0,0.0,4.077878889860073,0.0,0.0,0.0,0.0,0.0,0.0,0.0,0.0,0.0,0.0,0.0,0.0,0.0,0.0,
0.8326,3.9702890700437363,4.092849654168138,4.174395479235335,0.0,0.0,0.0,4.079178067815737,0.0,0.0,0.0,0.0,0.0,0.0,0.0,0.0,0.0,0.0,0.0,0.0,0.0,0.0,
0.8464,3.9714613220815744,4.094157472510291,4.175854927755658,0.0,0.0,0.0,4.080491240782508,0.0,0.0,0.0,0.0,0.0,0.0,0.0,0.0,0.0,0.0,0.0,0.0,0.0,0.0,
0.8603,3.9726629875883446,4.0954982440240055,4.177351360248423,0.0,0.0,0.0,4.081837530620258,0.0,0.0,0.0,0.0,0.0,0.0,0.0,0.0,0.0,0.0,0.0,0.0,0.0,0.0,
0.8742,3.973885721980126,4.0968626671461585,4.178874408999988,0.0,0.0,0.0,4.083207599375425,0.0,0.0,0.0,0.0,0.0,0.0,0.0,0.0,0.0,0.0,0.0,0.0,0.0,0.0,
0.8881,3.975129601425188,4.0982508345983995,4.180424189325998,0.0,0.0,0.0,4.0846015417831945,0.0,0.0,0.0,0.0,0.0,0.0,0.0,0.0,0.0,0.0,0.0,0.0,0.0,0.0,
0.9019,3.976385526189936,4.099652597319456,4.181989380129403,0.0,0.0,0.0,4.086009167879598,0.0,0.0,0.0,0.0,0.0,0.0,0.0,0.0,0.0,0.0,0.0,0.0,0.0,0.0,
0.9158,3.9776717768503693,4.101088366668428,4.1835927847841745,0.0,0.0,0.0,4.087450976100991,0.0,0.0,0.0,0.0,0.0,0.0,0.0,0.0,0.0,0.0,0.0,0.0,0.0,0.0,
0.9297,3.978979409737509,4.102548169281172,4.185223280686479,0.0,0.0,0.0,4.088916953235054,0.0,0.0,0.0,0.0,0.0,0.0,0.0,0.0,0.0,0.0,0.0,0.0,0.0,0.0,
0.9436,3.9803085072352467,4.1040321055973905,4.186880992984335,0.0,0.0,0.0,4.090407201938991,0.0,0.0,0.0,0.0,0.0,0.0,0.0,0.0,0.0,0.0,0.0,0.0,0.0,0.0,
0.9574,3.9816493592918687,4.105529341086852,4.188553828701783,0.0,0.0,0.0,4.0919108430268345,0.0,0.0,0.0,0.0,0.0,0.0,0.0,0.0,0.0,0.0,0.0,0.0,0.0,0.0,
0.9713,3.983021483630042,4.107061678629114,4.190266161315153,0.0,0.0,0.0,4.093449774524769,0.0,0.0,0.0,0.0,0.0,0.0,0.0,0.0,0.0,0.0,0.0,0.0,0.0,0.0,
0.9852,3.9844153287714104,4.108618462467522,4.192006100202729,0.0,0.0,0.0,4.09501329714722,0.0,0.0,0.0,0.0,0.0,0.0,0.0,0.0,0.0,0.0,0.0,0.0,0.0,0.0,
0.9991,3.9858309835999313,4.110199801142391,4.193773780877096,0.0,0.0,0.0,4.096601521873139,0.0,0.0,0.0,0.0,0.0,0.0,0.0,0.0,0.0,0.0,0.0,0.0,0.0,0.0,
1.0129,3.987258118123617,4.111794162948081,4.19555632393531,0.0,0.0,0.0,4.09820286833567,0.0,0.0,0.0,0.0,0.0,0.0,0.0,0.0,0.0,0.0,0.0,0.0,0.0,0.0,
1.0268,3.988717507148821,4.1134247666488815,4.197379703403542,0.0,0.0,0.0,4.099840659067081,0.0,0.0,0.0,0.0,0.0,0.0,0.0,0.0,0.0,0.0,0.0,0.0,0.0,0.0,
1.0407,3.9901989819668353,4.1150802626421275,4.199231246420857,0.0,0.0,0.0,4.10150349700994,0.0,0.0,0.0,0.0,0.0,0.0,0.0,0.0,0.0,0.0,0.0,0.0,0.0,0.0,
1.0546,3.9917026382750933,4.116760767991567,4.2011110994548275,0.0,0.0,0.0,4.103191501907163,0.0,0.0,0.0,0.0,0.0,0.0,0.0,0.0,0.0,0.0,0.0,0.0,0.0,0.0,
1.0685,3.9932285735302098,4.11846640196707,4.20301941181655,0.0,0.0,0.0,4.104904795771277,0.0,0.0,0.0,0.0,0.0,0.0,0.0,0.0,0.0,0.0,0.0,0.0,0.0,0.0,
1.0823,3.9947656678679375,4.120184743204245,4.204942298453613,0.0,0.0,0.0,4.106630903175265,0.0,0.0,0.0,0.0,0.0,0.0,0.0,0.0,0.0,0.0,0.0,0.0,0.0,0.0,
1.0962,3.996336298448329,4.121940818222912,4.206907781474576,0.0,0.0,0.0,4.108394966048606,0.0,0.0,0.0,0.0,0.0,0.0,0.0,0.0,0.0,0.0,0.0,0.0,0.0,0.0,
1.1101,3.9979295103779195,4.123722392302229,4.208902188096209,0.0,0.0,0.0,4.110184696925453,0.0,0.0,0.0,0.0,0.0,0.0,0.0,0.0,0.0,0.0,0.0,0.0,0.0,0.0,
1.124,3.9995454083635527,4.125529593827224,4.2109256794139975,0.0,0.0,0.0,4.112000227201591,0.0,0.0,0.0,0.0,0.0,0.0,0.0,0.0,0.0,0.0,0.0,0.0,0.0,0.0,
1.1378,4.0011722281918525,4.127349274482873,4.212963546823785,0.0,0.0,0.0,4.113828349832837,0.0,0.0,0.0,0.0,0.0,0.0,0.0,0.0,0.0,0.0,0.0,0.0,0.0,0.0,
1.1517,4.002833654787688,4.12920793879325,4.215045490896678,0.0,0.0,0.0,4.115695694825872,0.0,0.0,0.0,0.0,0.0,0.0,0.0,0.0,0.0,0.0,0.0,0.0,0.0,0.0,
1.1656,4.004518092110645,4.131092629039292,4.217157020297689,0.0,0.0,0.0,4.117589247149209,0.0,0.0,0.0,0.0,0.0,0.0,0.0,0.0,0.0,0.0,0.0,0.0,0.0,0.0,
1.1795,4.006225652506584,4.1330034832502935,4.219298308651604,0.0,0.0,0.0,4.119509148136161,0.0,0.0,0.0,0.0,0.0,0.0,0.0,0.0,0.0,0.0,0.0,0.0,0.0,0.0,
1.1933,4.007943915256124,4.134926611288982,4.221453805195624,0.0,0.0,0.0,4.121441443913577,0.0,0.0,0.0,0.0,0.0,0.0,0.0,0.0,0.0,0.0,0.0,0.0,0.0,0.0,
1.2072,4.009697898344752,4.136890026786679,4.223654928125232,0.0,0.0,0.0,4.123414284418888,0.0,0.0,0.0,0.0,0.0,0.0,0.0,0.0,0.0,0.0,0.0,0.0,0.0,0.0,
1.2211,4.011475352667164,4.138880034459193,4.225886349347357,0.0,0.0,0.0,4.125413912157905,0.0,0.0,0.0,0.0,0.0,0.0,0.0,0.0,0.0,0.0,0.0,0.0,0.0,0.0,
1.235,4.013276398636117,4.140896782564686,4.228148255842523,0.0,0.0,0.0,4.127440479014442,0.0,0.0,0.0,0.0,0.0,0.0,0.0,0.0,0.0,0.0,0.0,0.0,0.0,0.0,
1.2488,4.015087946002726,4.142925623181162,4.230424234670135,0.0,0.0,0.0,4.129479267951341,0.0,0.0,0.0,0.0,0.0,0.0,0.0,0.0,0.0,0.0,0.0,0.0,0.0,0.0,
1.2627,4.0169363729505605,4.144996112486931,4.232747463865554,0.0,0.0,0.0,4.131559983101015,0.0,0.0,0.0,0.0,0.0,0.0,0.0,0.0,0.0,0.0,0.0,0.0,0.0,0.0,
1.2766,4.018808764539138,4.147093801994901,4.235101758987623,0.0,0.0,0.0,4.13366810850722,0.0,0.0,0.0,0.0,0.0,0.0,0.0,0.0,0.0,0.0,0.0,0.0,0.0,0.0,
1.2905,4.020705249719134,4.1492188508381265,4.237487321290176,0.0,0.0,0.0,4.135803807282478,0.0,0.0,0.0,0.0,0.0,0.0,0.0,0.0,0.0,0.0,0.0,0.0,0.0,0.0,
1.3043,4.022612054773983,4.151355836191582,4.239886854132157,0.0,0.0,0.0,4.137951581699241,0.0,0.0,0.0,0.0,0.0,0.0,0.0,0.0,0.0,0.0,0.0,0.0,0.0,0.0,
1.3182,4.024556947171856,4.1535358927046,4.242335340867925,0.0,0.0,0.0,4.140142726914793,0.0,0.0,0.0,0.0,0.0,0.0,0.0,0.0,0.0,0.0,0.0,0.0,0.0,0.0,
1.3321,4.026526332468099,4.155743801915602,4.244815719646734,0.0,0.0,0.0,4.142361951343478,0.0,0.0,0.0,0.0,0.0,0.0,0.0,0.0,0.0,0.0,0.0,0.0,0.0,0.0,
1.346,4.028520348669993,4.157979734547249,4.247328207015283,0.0,0.0,0.0,4.144609430077508,0.0,0.0,0.0,0.0,0.0,0.0,0.0,0.0,0.0,0.0,0.0,0.0,0.0,0.0,
1.3598,4.030524523688043,4.160227474525543,4.249854599505014,0.0,0.0,0.0,4.1468688659062,0.0,0.0,0.0,0.0,0.0,0.0,0.0,0.0,0.0,0.0,0.0,0.0,0.0,0.0,
1.3737,4.032568045428809,4.162519773542924,4.252431734765885,0.0,0.0,0.0,4.1491731845792055,0.0,0.0,0.0,0.0,0.0,0.0,0.0,0.0,0.0,0.0,0.0,0.0,0.0,0.0,
1.3876,4.034636625324859,4.164840625188531,4.255041650907266,0.0,0.0,0.0,4.151506300473552,0.0,0.0,0.0,0.0,0.0,0.0,0.0,0.0,0.0,0.0,0.0,0.0,0.0,0.0,
1.4015,4.036730411011735,4.167190212566364,4.257684580903074,0.0,0.0,0.0,4.153868401493725,0.0,0.0,0.0,0.0,0.0,0.0,0.0,0.0,0.0,0.0,0.0,0.0,0.0,0.0,
1.4154,4.038849552632733,4.169568722015107,4.2603607620341,0.0,0.0,0.0,4.1562596788939805,0.0,0.0,0.0,0.0,0.0,0.0,0.0,0.0,0.0,0.0,0.0,0.0,0.0,0.0,
1.4292,4.04097868227664,4.171958917728448,4.263050821719988,0.0,0.0,0.0,4.158662807241692,0.0,0.0,0.0,0.0,0.0,0.0,0.0,0.0,0.0,0.0,0.0,0.0,0.0,0.0,
1.4431,4.043148811237131,4.174395632035653,4.265793990983999,0.0,0.0,0.0,4.161112811418928,0.0,0.0,0.0,0.0,0.0,0.0,0.0,0.0,0.0,0.0,0.0,0.0,0.0,0.0,
1.457,4.045344760872812,4.176861845985258,4.268571148071488,0.0,0.0,0.0,4.163592584976519,0.0,0.0,0.0,0.0,0.0,0.0,0.0,0.0,0.0,0.0,0.0,0.0,0.0,0.0,
1.4709,4.047566691754081,4.179357759409555,4.2713825482937064,0.0,0.0,0.0,4.166102333152447,0.0,0.0,0.0,0.0,0.0,0.0,0.0,0.0,0.0,0.0,0.0,0.0,0.0,0.0,
1.4847,4.049798500206652,4.181865297053697,4.274207853728487,0.0,0.0,0.0,4.168623883662946,0.0,0.0,0.0,0.0,0.0,0.0,0.0,0.0,0.0,0.0,0.0,0.0,0.0,0.0,
1.4986,4.052072696333863,4.184421005751662,4.277088274106077,0.0,0.0,0.0,4.171193992063867,0.0,0.0,0.0,0.0,0.0,0.0,0.0,0.0,0.0,0.0,0.0,0.0,0.0,0.0,
1.5125,4.0543733707009455,4.187007033344177,4.280003730389305,0.0,0.0,0.0,4.173794711478142,0.0,0.0,0.0,0.0,0.0,0.0,0.0,0.0,0.0,0.0,0.0,0.0,0.0,0.0,
1.5264,4.056700695020012,4.189623594158023,4.282954497370893,0.0,0.0,0.0,4.176426262182976,0.0,0.0,0.0,0.0,0.0,0.0,0.0,0.0,0.0,0.0,0.0,0.0,0.0,0.0,
1.5402,4.059037811374758,4.192251750563817,4.2859192426065915,0.0,0.0,0.0,4.179069601515056,0.0,0.0,0.0,0.0,0.0,0.0,0.0,0.0,0.0,0.0,0.0,0.0,0.0,0.0,
1.5541,4.061418767528031,4.194929812440017,4.288941216842227,0.0,0.0,0.0,4.181763265603425,0.0,0.0,0.0,0.0,0.0,0.0,0.0,0.0,0.0,0.0,0.0,0.0,0.0,0.0,
1.568,4.063826905130929,4.197639071966299,4.29199935522365,0.0,0.0,0.0,4.184488444106959,0.0,0.0,0.0,0.0,0.0,0.0,0.0,0.0,0.0,0.0,0.0,0.0,0.0,0.0,
1.5819,4.066262407828203,4.2003797590780945,4.295093953648712,0.0,0.0,0.0,4.187245373518336,0.0,0.0,0.0,0.0,0.0,0.0,0.0,0.0,0.0,0.0,0.0,0.0,0.0,0.0,
1.5957,4.068707643726774,4.203132049220292,4.29820265379904,0.0,0.0,0.0,4.190014115582035,0.0,0.0,0.0,0.0,0.0,0.0,0.0,0.0,0.0,0.0,0.0,0.0,0.0,0.0,
1.6096,4.0711982398251525,4.205936067426746,4.301370814581142,0.0,0.0,0.0,4.192835040611013,0.0,0.0,0.0,0.0,0.0,0.0,0.0,0.0,0.0,0.0,0.0,0.0,0.0,0.0,
1.6235,4.073716769511281,4.2087722261774765,4.304576354676693,0.0,0.0,0.0,4.195688450121817,0.0,0.0,0.0,0.0,0.0,0.0,0.0,0.0,0.0,0.0,0.0,0.0,0.0,0.0,
1.6374,4.076263429239468,4.211640772258983,4.307819592909389,0.0,0.0,0.0,4.198574598135947,0.0,0.0,0.0,0.0,0.0,0.0,0.0,0.0,0.0,0.0,0.0,0.0,0.0,0.0,
1.6512,4.0788197920627995,4.214520967893252,4.311077111388548,0.0,0.0,0.0,4.201472623781534,0.0,0.0,0.0,0.0,0.0,0.0,0.0,0.0,0.0,0.0,0.0,0.0,0.0,0.0,
1.6651,4.081423108718987,4.217454809237882,4.3143964495838505,0.0,0.0,0.0,4.20442478918024,0.0,0.0,0.0,0.0,0.0,0.0,0.0,0.0,0.0,0.0,0.0,0.0,0.0,0.0,
1.679,4.0840551636723,4.220421803333218,4.31775447678602,0.0,0.0,0.0,4.207410481263846,0.0,0.0,0.0,0.0,0.0,0.0,0.0,0.0,0.0,0.0,0.0,0.0,0.0,0.0,
1.6929,4.086716167160598,4.223422215205446,4.321151536791329,0.0,0.0,0.0,4.210429973052459,0.0,0.0,0.0,0.0,0.0,0.0,0.0,0.0,0.0,0.0,0.0,0.0,0.0,0.0,
1.7067,4.089386874667731,4.2264343656761465,4.324563115897451,0.0,0.0,0.0,4.213461452080443,0.0,0.0,0.0,0.0,0.0,0.0,0.0,0.0,0.0,0.0,0.0,0.0,0.0,0.0,
1.7206,4.09210620832605,4.229502182173389,4.328039012271557,0.0,0.0,0.0,4.216549134256998,0.0,0.0,0.0,0.0,0.0,0.0,0.0,0.0,0.0,0.0,0.0,0.0,0.0,0.0,
1.7345,4.094855141611832,4.232604238727809,4.331555010421468,0.0,0.0,0.0,4.219671463587036,0.0,0.0,0.0,0.0,0.0,0.0,0.0,0.0,0.0,0.0,0.0,0.0,0.0,0.0,
1.7484,4.097633899630644,4.235740820161148,4.335111481422711,0.0,0.0,0.0,4.222828733738168,0.0,0.0,0.0,0.0,0.0,0.0,0.0,0.0,0.0,0.0,0.0,0.0,0.0,0.0,
1.7623,4.100442711395987,4.238912216518505,4.33870880357851,0.0,0.0,0.0,4.226021243831,0.0,0.0,0.0,0.0,0.0,0.0,0.0,0.0,0.0,0.0,0.0,0.0,0.0,0.0,
1.7761,4.103261276016619,4.242095528690122,4.342321037709494,0.0,0.0,0.0,4.229225947472078,0.0,0.0,0.0,0.0,0.0,0.0,0.0,0.0,0.0,0.0,0.0,0.0,0.0,0.0,
1.79,4.106130677886277,4.245337190647888,4.346000925922276,0.0,0.0,0.0,4.232489598152147,0.0,0.0,0.0,0.0,0.0,0.0,0.0,0.0,0.0,0.0,0.0,0.0,0.0,0.0,
1.8039,4.1090308430296965,4.248614567925807,4.34972284236353,0.0,0.0,0.0,4.23578941777301,0.0,0.0,0.0,0.0,0.0,0.0,0.0,0.0,0.0,0.0,0.0,0.0,0.0,0.0,
1.8178,4.111962016862656,4.251927972583621,4.3534871959284756,0.0,0.0,0.0,4.2391257284582515,0.0,0.0,0.0,0.0,0.0,0.0,0.0,0.0,0.0,0.0,0.0,0.0,0.0,0.0,
1.8316,4.114903024426596,4.255253493020103,4.357266859606476,0.0,0.0,0.0,4.242474459017725,0.0,0.0,0.0,0.0,0.0,0.0,0.0,0.0,0.0,0.0,0.0,0.0,0.0,0.0,
