energies(eV),real_xx,real_yy,real_zz,real_xy,real_yz,real_xz,real_ave,imag_xx,imag_yy,imag_zz,imag_xy,imag_yz,imag_xz,imag_ave,absorption_xx,absorption_yy,absorption_zz,absorption_xy,absorption_yz,absorption_xz,absorption_ave,band_gap
0.0,2.760976031761195,2.760976031761195,2.672660918588128,0.0,0.0,0.0,2.7315376607035056,0.0,0.0,0.0,0.0,0.0,0.0,0.0,0.0,0.0,0.0,0.0,0.0,0.0,0.0,7.2396
0.0244,2.760982540824793,2.760982540824793,2.6726667064636502,0.0,0.0,0.0,2.7315439293710786,0.0,0.0,0.0,0.0,0.0,0.0,0.0,0.0,0.0,0.0,0.0,0.0,0.0,0.0,
0.0488,2.761002068424607,2.761002068424607,2.6726840704308077,0.0,0.0,0.0,2.7315627357600074,0.0,0.0,0.0,0.0,0.0,0.0,0.0,0.0,0.0,0.0,0.0,0.0,0.0,0.0,
0.0732,2.7610346157877763,2.7610346157877763,2.6727130115113806,0.0,0.0,0.0,2.731594081028978,0.0,0.0,0.0,0.0,0.0,0.0,0.0,0.0,0.0,0.0,0.0,0.0,0.0,0.0,
0.0976,2.761080184959774,2.761080184959774,2.672753531408614,0.0,0.0,0.0,2.7316379671093873,0.0,0.0,0.0,0.0,0.0,0.0,0.0,0.0,0.0,0.0,0.0,0.0,0.0,0.0,
0.122,2.7611387788048276,2.7611387788048276,2.6728056325074023,0.0,0.0,0.0,2.7316943967056857,0.0,0.0,0.0,0.0,0.0,0.0,0.0,0.0,0.0,0.0,0.0,0.0,0.0,0.0,
0.1464,2.7612104010064327,2.7612104010064327,2.6728693178748295,0.0,0.0,0.0,2.731763373295898,0.0,0.0,0.0,0.0,0.0,0.0,0.0,0.0,0.0,0.0,0.0,0.0,0.0,0.0,
0.1708,2.7612950560679916,2.7612950560679916,2.672944591260629,0.0,0.0,0.0,2.731844901132204,0.0,0.0,0.0,0.0,0.0,0.0,0.0,0.0,0.0,0.0,0.0,0.0,0.0,0.0,
0.1952,2.7613927493137416,2.7613927493137416,2.6730314570979044,0.0,0.0,0.0,2.7319389852417957,0.0,0.0,0.0,0.0,0.0,0.0,0.0,0.0,0.0,0.0,0.0,0.0,0.0,0.0,
0.2196,2.7615034868896933,2.7615034868896933,2.6731299205039196,0.0,0.0,0.0,2.7320456314277686,0.0,0.0,0.0,0.0,0.0,0.0,0.0,0.0,0.0,0.0,0.0,0.0,0.0,0.0,
0.2441,2.7616278099607596,2.7616278099607596,2.673240462257893,0.0,0.0,0.0,2.7321653607264706,0.0,0.0,0.0,0.0,0.0,0.0,0.0,0.0,0.0,0.0,0.0,0.0,0.0,0.0,
0.2685,2.761764711466257,2.761764711466257,2.673362186490186,0.0,0.0,0.0,2.7322972031409,0.0,0.0,0.0,0.0,0.0,0.0,0.0,0.0,0.0,0.0,0.0,0.0,0.0,0.0,
0.2929,2.761914680720026,2.761914680720026,2.6734955277885275,0.0,0.0,0.0,2.7324416297428598,0.0,0.0,0.0,0.0,0.0,0.0,0.0,0.0,0.0,0.0,0.0,0.0,0.0,0.0,
0.3173,2.7620777271716648,2.7620777271716648,2.6736404940200273,0.0,0.0,0.0,2.7325986494544523,0.0,0.0,0.0,0.0,0.0,0.0,0.0,0.0,0.0,0.0,0.0,0.0,0.0,0.0,
0.3417,2.762253861099863,2.762253861099863,2.673797093741773,0.0,0.0,0.0,2.732768271980499,0.0,0.0,0.0,0.0,0.0,0.0,0.0,0.0,0.0,0.0,0.0,0.0,0.0,0.0,
0.3661,2.7624430936143582,2.7624430936143582,2.6739653362023774,0.0,0.0,0.0,2.7329505078103646,0.0,0.0,0.0,0.0,0.0,0.0,0.0,0.0,0.0,0.0,0.0,0.0,0.0,0.0,
0.3905,2.762645436657957,2.762645436657957,2.674145231343629,0.0,0.0,0.0,2.733145368219848,0.0,0.0,0.0,0.0,0.0,0.0,0.0,0.0,0.0,0.0,0.0,0.0,0.0,0.0,
0.4149,2.7628609030088787,2.7628609030088787,2.6743367898022945,0.0,0.0,0.0,2.7333528652733503,0.0,0.0,0.0,0.0,0.0,0.0,0.0,0.0,0.0,0.0,0.0,0.0,0.0,0.0,
0.4393,2.7630895062830296,2.7630895062830296,2.674540022912063,0.0,0.0,0.0,2.733573011826041,0.0,0.0,0.0,0.0,0.0,0.0,0.0,0.0,0.0,0.0,0.0,0.0,0.0,0.0,
0.4637,2.7633312609366834,2.7633312609366834,2.674754942705518,0.0,0.0,0.0,2.733805821526295,0.0,0.0,0.0,0.0,0.0,0.0,0.0,0.0,0.0,0.0,0.0,0.0,0.0,0.0,
0.4881,2.7635861822691554,2.7635861822691554,2.6749815619163995,0.0,0.0,0.0,2.7340513088182363,0.0,0.0,0.0,0.0,0.0,0.0,0.0,0.0,0.0,0.0,0.0,0.0,0.0,0.0,
0.5125,2.7638542864256754,2.7638542864256754,2.675219893981846,0.0,0.0,0.0,2.734309488944399,0.0,0.0,0.0,0.0,0.0,0.0,0.0,0.0,0.0,0.0,0.0,0.0,0.0,0.0,
0.5369,2.7641355904004863,2.7641355904004863,2.675469953044856,0.0,0.0,0.0,2.734580377948609,0.0,0.0,0.0,0.0,0.0,0.0,0.0,0.0,0.0,0.0,0.0,0.0,0.0,0.0,
0.5613,2.76443011204001,2.76443011204001,2.675731753956831,0.0,0.0,0.0,2.734863992678951,0.0,0.0,0.0,0.0,0.0,0.0,0.0,0.0,0.0,0.0,0.0,0.0,0.0,0.0,
0.5857,2.7647378700462815,2.7647378700462815,2.6760053122803127,0.0,0.0,0.0,2.735160350790958,0.0,0.0,0.0,0.0,0.0,0.0,0.0,0.0,0.0,0.0,0.0,0.0,0.0,0.0,
0.6101,2.7650588839804513,2.7650588839804513,2.6762906442917638,0.0,0.0,0.0,2.735469470750889,0.0,0.0,0.0,0.0,0.0,0.0,0.0,0.0,0.0,0.0,0.0,0.0,0.0,0.0,
0.6345,2.765393174266517,2.765393174266517,2.6765877669845946,0.0,0.0,0.0,2.7357913718392095,0.0,0.0,0.0,0.0,0.0,0.0,0.0,0.0,0.0,0.0,0.0,0.0,0.0,0.0,
0.6589,2.765740762195223,2.765740762195223,2.676896698072186,0.0,0.0,0.0,2.7361260741542104,0.0,0.0,0.0,0.0,0.0,0.0,0.0,0.0,0.0,0.0,0.0,0.0,0.0,0.0,
0.6833,2.7661016699281333,2.7661016699281333,2.677217455991172,0.0,0.0,0.0,2.736473598615813,0.0,0.0,0.0,0.0,0.0,0.0,0.0,0.0,0.0,0.0,0.0,0.0,0.0,0.0,
0.7077,2.7664759205018,2.7664759205018,2.6775500599048394,0.0,0.0,0.0,2.73683396696948,0.0,0.0,0.0,0.0,0.0,0.0,0.0,0.0,0.0,0.0,0.0,0.0,0.0,0.0,
0.7322,2.766865153964826,2.766865153964826,2.6778959659111634,0.0,0.0,0.0,2.7372087579469384,0.0,0.0,0.0,0.0,0.0,0.0,0.0,0.0,0.0,0.0,0.0,0.0,0.0,0.0,
0.7566,2.7672662177878005,2.7672662177878005,2.6782523709868657,0.0,0.0,0.0,2.7375949355208227,0.0,0.0,0.0,0.0,0.0,0.0,0.0,0.0,0.0,0.0,0.0,0.0,0.0,0.0,
0.781,2.7676806989635603,2.7676806989635603,2.678620684031687,0.0,0.0,0.0,2.7379940273196026,0.0,0.0,0.0,0.0,0.0,0.0,0.0,0.0,0.0,0.0,0.0,0.0,0.0,0.0,
0.8054,2.7681086240783452,2.7681086240783452,2.679000927154996,0.0,0.0,0.0,2.738406058437229,0.0,0.0,0.0,0.0,0.0,0.0,0.0,0.0,0.0,0.0,0.0,0.0,0.0,0.0,
0.8298,2.768550020617245,2.768550020617245,2.679393123211767,0.0,0.0,0.0,2.738831054815419,0.0,0.0,0.0,0.0,0.0,0.0,0.0,0.0,0.0,0.0,0.0,0.0,0.0,0.0,
0.8542,2.7690049169695987,2.7690049169695987,2.679797295806845,0.0,0.0,0.0,2.739269043248681,0.0,0.0,0.0,0.0,0.0,0.0,0.0,0.0,0.0,0.0,0.0,0.0,0.0,0.0,
0.8786,2.769473342434357,2.769473342434357,2.680213469299306,0.0,0.0,0.0,2.7397200513893396,0.0,0.0,0.0,0.0,0.0,0.0,0.0,0.0,0.0,0.0,0.0,0.0,0.0,0.0,
0.903,2.7699553272259125,2.7699553272259125,2.6806416688069854,0.0,0.0,0.0,2.740184107752937,0.0,0.0,0.0,0.0,0.0,0.0,0.0,0.0,0.0,0.0,0.0,0.0,0.0,0.0,
0.9274,2.7704509024798507,2.7704509024798507,2.681081920211195,0.0,0.0,0.0,2.7406612417236325,0.0,0.0,0.0,0.0,0.0,0.0,0.0,0.0,0.0,0.0,0.0,0.0,0.0,0.0,
0.9518,2.7709601002591207,2.7709601002591207,2.681534250161496,0.0,0.0,0.0,2.7411514835599124,0.0,0.0,0.0,0.0,0.0,0.0,0.0,0.0,0.0,0.0,0.0,0.0,0.0,0.0,
0.9762,2.771482953560213,2.771482953560213,2.6819986860807488,0.0,0.0,0.0,2.7416548644003917,0.0,0.0,0.0,0.0,0.0,0.0,0.0,0.0,0.0,0.0,0.0,0.0,0.0,0.0,
1.0006,2.7720194963197056,2.7720194963197056,2.682475256170218,0.0,0.0,0.0,2.7421714162698763,0.0,0.0,0.0,0.0,0.0,0.0,0.0,0.0,0.0,0.0,0.0,0.0,0.0,0.0,
1.025,2.772569763420891,2.772569763420891,2.6829639894149304,0.0,0.0,0.0,2.742701172085571,0.0,0.0,0.0,0.0,0.0,0.0,0.0,0.0,0.0,0.0,0.0,0.0,0.0,0.0,
1.0494,2.773133790700616,2.773133790700616,2.683464915589063,0.0,0.0,0.0,2.7432441656634317,0.0,0.0,0.0,0.0,0.0,0.0,0.0,0.0,0.0,0.0,0.0,0.0,0.0,0.0,
1.0738,2.773711614956428,2.773711614956428,2.683978065261666,0.0,0.0,0.0,2.7438004317248406,0.0,0.0,0.0,0.0,0.0,0.0,0.0,0.0,0.0,0.0,0.0,0.0,0.0,0.0,
1.0982,2.774303273953807,2.774303273953807,2.684503469802383,0.0,0.0,0.0,2.7443700059033325,0.0,0.0,0.0,0.0,0.0,0.0,0.0,0.0,0.0,0.0,0.0,0.0,0.0,0.0,
1.1226,2.774908806433657,2.774908806433657,2.6850411613874723,0.0,0.0,0.0,2.7449529247515954,0.0,0.0,0.0,0.0,0.0,0.0,0.0,0.0,0.0,0.0,0.0,0.0,0.0,0.0,
1.147,2.7755282521200955,2.7755282521200955,2.685591173005931,0.0,0.0,0.0,2.7455492257487073,0.0,0.0,0.0,0.0,0.0,0.0,0.0,0.0,0.0,0.0,0.0,0.0,0.0,0.0,
1.1714,2.77616165172829,2.77616165172829,2.6861535384657937,0.0,0.0,0.0,2.746158947307458,0.0,0.0,0.0,0.0,0.0,0.0,0.0,0.0,0.0,0.0,0.0,0.0,0.0,0.0,
1.1958,2.7768090469726667,2.7768090469726667,2.6867282924006086,0.0,0.0,0.0,2.7467821287819807,0.0,0.0,0.0,0.0,0.0,0.0,0.0,0.0,0.0,0.0,0.0,0.0,0.0,0.0,
1.2203,2.77747322031357,2.77747322031357,2.6873179023557068,0.0,0.0,0.0,2.747421447660949,0.0,0.0,0.0,0.0,0.0,0.0,0.0,0.0,0.0,0.0,0.0,0.0,0.0,0.0,
1.2447,2.7781487938177034,2.7781487938177034,2.6879175916192226,0.0,0.0,0.0,2.74807172641821,0.0,0.0,0.0,0.0,0.0,0.0,0.0,0.0,0.0,0.0,0.0,0.0,0.0,0.0,
1.2691,2.7788384943673803,2.7788384943673803,2.6885297784331668,0.0,0.0,0.0,2.7487355890559755,0.0,0.0,0.0,0.0,0.0,0.0,0.0,0.0,0.0,0.0,0.0,0.0,0.0,0.0,
1.2935,2.779542367764427,2.779542367764427,2.6891545008052025,0.0,0.0,0.0,2.749413078778019,0.0,0.0,0.0,0.0,0.0,0.0,0.0,0.0,0.0,0.0,0.0,0.0,0.0,0.0,
1.3179,2.780260460854184,2.780260460854184,2.68979179760377,0.0,0.0,0.0,2.7501042397707125,0.0,0.0,0.0,0.0,0.0,0.0,0.0,0.0,0.0,0.0,0.0,0.0,0.0,0.0,
1.3423,2.780992821535091,2.780992821535091,2.6904417085656083,0.0,0.0,0.0,2.7508091172119298,0.0,0.0,0.0,0.0,0.0,0.0,0.0,0.0,0.0,0.0,0.0,0.0,0.0,0.0,
1.3667,2.781739498768493,2.781739498768493,2.6911042743036147,0.0,0.0,0.0,2.7515277572802006,0.0,0.0,0.0,0.0,0.0,0.0,0.0,0.0,0.0,0.0,0.0,0.0,0.0,0.0,
1.3911,2.782500542588724,2.782500542588724,2.691779536314792,0.0,0.0,0.0,2.75226020716408,0.0,0.0,0.0,0.0,0.0,0.0,0.0,0.0,0.0,0.0,0.0,0.0,0.0,0.0,
1.4155,2.78327600411341,2.78327600411341,2.6924675369884934,0.0,0.0,0.0,2.753006515071771,0.0,0.0,0.0,0.0,0.0,0.0,0.0,0.0,0.0,0.0,0.0,0.0,0.0,0.0,
1.4399,2.7840659355540636,2.7840659355540636,2.693168319614813,0.0,0.0,0.0,2.75376673024098,0.0,0.0,0.0,0.0,0.0,0.0,0.0,0.0,0.0,0.0,0.0,0.0,0.0,0.0,
1.4643,2.7848703902269394,2.7848703902269394,2.6938819283931936,0.0,0.0,0.0,2.7545409029490244,0.0,0.0,0.0,0.0,0.0,0.0,0.0,0.0,0.0,0.0,0.0,0.0,0.0,0.0,
1.4887,2.785689422564179,2.785689422564179,2.6946084084412654,0.0,0.0,0.0,2.7553290845232077,0.0,0.0,0.0,0.0,0.0,0.0,0.0,0.0,0.0,0.0,0.0,0.0,0.0,0.0,
1.5131,2.786523088125186,2.786523088125186,2.6953478058039213,0.0,0.0,0.0,2.756131327351431,0.0,0.0,0.0,0.0,0.0,0.0,0.0,0.0,0.0,0.0,0.0,0.0,0.0,0.0,
1.5375,2.7873714436083254,2.7873714436083254,2.696100167462548,0.0,0.0,0.0,2.7569476848930665,0.0,0.0,0.0,0.0,0.0,0.0,0.0,0.0,0.0,0.0,0.0,0.0,0.0,0.0,
1.5619,2.78823454686288,2.78823454686288,2.6968655413445513,0.0,0.0,0.0,2.7577782116901037,0.0,0.0,0.0,0.0,0.0,0.0,0.0,0.0,0.0,0.0,0.0,0.0,0.0,0.0,
1.5863,2.7891124569013224,2.7891124569013224,2.6976439763330555,0.0,0.0,0.0,2.758622963378567,0.0,0.0,0.0,0.0,0.0,0.0,0.0,0.0,0.0,0.0,0.0,0.0,0.0,0.0,
1.6107,2.7900052339118737,2.7900052339118737,2.698435522276915,0.0,0.0,0.0,2.7594819967002207,0.0,0.0,0.0,0.0,0.0,0.0,0.0,0.0,0.0,0.0,0.0,0.0,0.0,0.0,
1.6351,2.790912939271391,2.790912939271391,2.6992402300008496,0.0,0.0,0.0,2.760355369514544,0.0,0.0,0.0,0.0,0.0,0.0,0.0,0.0,0.0,0.0,0.0,0.0,0.0,0.0,
1.6595,2.791835635558481,2.791835635558481,2.700058151315951,0.0,0.0,0.0,2.7612431408109708,0.0,0.0,0.0,0.0,0.0,0.0,0.0,0.0,0.0,0.0,0.0,0.0,0.0,0.0,
1.684,2.792777260874117,2.792777260874117,2.700892772907621,0.0,0.0,0.0,2.762149098218618,0.0,0.0,0.0,0.0,0.0,0.0,0.0,0.0,0.0,0.0,0.0,0.0,0.0,0.0,
1.7084,2.7937301937288055,2.7937301937288055,2.7017373355405088,0.0,0.0,0.0,2.7630659076660398,0.0,0.0,0.0,0.0,0.0,0.0,0.0,0.0,0.0,0.0,0.0,0.0,0.0,0.0,
1.7328,2.7946983128683245,2.7946983128683245,2.702595273450866,0.0,0.0,0.0,2.7639972997291715,0.0,0.0,0.0,0.0,0.0,0.0,0.0,0.0,0.0,0.0,0.0,0.0,0.0,0.0,
1.7572,2.7956816858217484,2.7956816858217484,2.7034666425088436,0.0,0.0,0.0,2.7649433380507804,0.0,0.0,0.0,0.0,0.0,0.0,0.0,0.0,0.0,0.0,0.0,0.0,0.0,0.0,
1.7816,2.796680381390737,2.796680381390737,2.704351499627024,0.0,0.0,0.0,2.7659040874694996,0.0,0.0,0.0,0.0,0.0,0.0,0.0,0.0,0.0,0.0,0.0,0.0,0.0,0.0,
1.806,2.7976944696646866,2.7976944696646866,2.7052499027724064,0.0,0.0,0.0,2.7668796140339267,0.0,0.0,0.0,0.0,0.0,0.0,0.0,0.0,0.0,0.0,0.0,0.0,0.0,0.0,
1.8304,2.798724022036229,2.798724022036229,2.706161910978752,0.0,0.0,0.0,2.76786998501707,0.0,0.0,0.0,0.0,0.0,0.0,0.0,0.0,0.0,0.0,0.0,0.0,0.0,0.0,
1.8548,2.7997691112171705,2.7997691112171705,2.7070875843590354,0.0,0.0,0.0,2.768875268931126,0.0,0.0,0.0,0.0,0.0,0.0,0.0,0.0,0.0,0.0,0.0,0.0,0.0,0.0,
1.8792,2.8008298112546677,2.8008298112546677,2.7080269841184457,0.0,0.0,0.0,2.769895535542594,0.0,0.0,0.0,0.0,0.0,0.0,0.0,0.0,0.0,0.0,0.0,0.0,0.0,0.0,
1.9036,2.8019061975479347,2.8019061975479347,2.7089801725674443,0.0,0.0,0.0,2.770930855887771,0.0,0.0,0.0,0.0,0.0,0.0,0.0,0.0,0.0,0.0,0.0,0.0,0.0,0.0,
1.928,2.802998346865229,2.802998346865229,2.709947213135276,0.0,0.0,0.0,2.771981302288578,0.0,0.0,0.0,0.0,0.0,0.0,0.0,0.0,0.0,0.0,0.0,0.0,0.0,0.0,
1.9524,2.8041063373612527,2.8041063373612527,2.710928170383718,0.0,0.0,0.0,2.7730469483687408,0.0,0.0,0.0,0.0,0.0,0.0,0.0,0.0,0.0,0.0,0.0,0.0,0.0,0.0,
1.9768,2.80523024859502,2.80523024859502,2.7119231100211953,0.0,0.0,0.0,2.774127869070412,0.0,0.0,0.0,0.0,0.0,0.0,0.0,0.0,0.0,0.0,0.0,0.0,0.0,0.0,
2.0012,2.806370161548024,2.806370161548024,2.712932098917138,0.0,0.0,0.0,2.775224140671062,0.0,0.0,0.0,0.0,0.0,0.0,0.0,0.0,0.0,0.0,0.0,0.0,0.0,0.0,
2.0256,2.807526158642954,2.807526158642954,2.713955205116766,0.0,0.0,0.0,2.7763358408008916,0.0,0.0,0.0,0.0,0.0,0.0,0.0,0.0,0.0,0.0,0.0,0.0,0.0,0.0,
2.05,2.8086983237627656,2.8086983237627656,2.714992497856181,0.0,0.0,0.0,2.7774630484605702,0.0,0.0,0.0,0.0,0.0,0.0,0.0,0.0,0.0,0.0,0.0,0.0,0.0,0.0,
2.0744,2.8098867422701392,2.8098867422701392,2.716044047577711,0.0,0.0,0.0,2.7786058440393298,0.0,0.0,0.0,0.0,0.0,0.0,0.0,0.0,0.0,0.0,0.0,0.0,0.0,0.0,
2.0988,2.8110915010275974,2.8110915010275974,2.7171099259457705,0.0,0.0,0.0,2.7797643093336553,0.0,0.0,0.0,0.0,0.0,0.0,0.0,0.0,0.0,0.0,0.0,0.0,0.0,0.0,
2.1232,2.812312688417787,2.812312688417787,2.7181902058629435,0.0,0.0,0.0,2.7809385275661724,0.0,0.0,0.0,0.0,0.0,0.0,0.0,0.0,0.0,0.0,0.0,0.0,0.0,0.0,
2.1476,2.813550394364519,2.813550394364519,2.7192849614865096,0.0,0.0,0.0,2.7821285834051825,0.0,0.0,0.0,0.0,0.0,0.0,0.0,0.0,0.0,0.0,0.0,0.0,0.0,0.0,
2.1721,2.814809885297234,2.814809885297234,2.720398844629589,0.0,0.0,0.0,2.783339538408019,0.0,0.0,0.0,0.0,0.0,0.0,0.0,0.0,0.0,0.0,0.0,0.0,0.0,0.0,
2.1965,2.816080973049392,2.816080973049392,2.7215228393511404,0.0,0.0,0.0,2.784561595149975,0.0,0.0,0.0,0.0,0.0,0.0,0.0,0.0,0.0,0.0,0.0,0.0,0.0,0.0,
2.2209,2.8173688589839188,2.8173688589839188,2.7226615402722287,0.0,0.0,0.0,2.785799752746689,0.0,0.0,0.0,0.0,0.0,0.0,0.0,0.0,0.0,0.0,0.0,0.0,0.0,0.0,
2.2453,2.8186736394146967,2.8186736394146967,2.723815026747042,0.0,0.0,0.0,2.787054101858812,0.0,0.0,0.0,0.0,0.0,0.0,0.0,0.0,0.0,0.0,0.0,0.0,0.0,0.0,
2.2697,2.8199954123088764,2.8199954123088764,2.7249833794728566,0.0,0.0,0.0,2.78832473469687,0.0,0.0,0.0,0.0,0.0,0.0,0.0,0.0,0.0,0.0,0.0,0.0,0.0,0.0,
2.2941,2.821334277310825,2.821334277310825,2.7261666805089484,0.0,0.0,0.0,2.789611745043533,0.0,0.0,0.0,0.0,0.0,0.0,0.0,0.0,0.0,0.0,0.0,0.0,0.0,0.0,
2.3185,2.822690335766643,2.822690335766643,2.727365013295935,0.0,0.0,0.0,2.790915228276407,0.0,0.0,0.0,0.0,0.0,0.0,0.0,0.0,0.0,0.0,0.0,0.0,0.0,0.0,
2.3429,2.824063690749361,2.824063690749361,2.7285784626755323,0.0,0.0,0.0,2.792235281391418,0.0,0.0,0.0,0.0,0.0,0.0,0.0,0.0,0.0,0.0,0.0,0.0,0.0,0.0,
2.3673,2.825454447084535,2.825454447084535,2.7298071149108,0.0,0.0,0.0,2.793572003026623,0.0,0.0,0.0,0.0,0.0,0.0,0.0,0.0,0.0,0.0,0.0,0.0,0.0,0.0,
2.3917,2.82686271137659,2.82686271137659,2.7310510577068197,0.0,0.0,0.0,2.7949254934866663,0.0,0.0,0.0,0.0,0.0,0.0,0.0,0.0,0.0,0.0,0.0,0.0,0.0,0.0,
2.4161,2.828288592035732,2.828288592035732,2.7323103802318496,0.0,0.0,0.0,2.7962958547677714,0.0,0.0,0.0,0.0,0.0,0.0,0.0,0.0,0.0,0.0,0.0,0.0,0.0,0.0,
2.4405,2.8297321993054387,2.8297321993054387,2.733585173139036,0.0,0.0,0.0,2.7976831905833044,0.0,0.0,0.0,0.0,0.0,0.0,0.0,0.0,0.0,0.0,0.0,0.0,0.0,0.0,
2.4649,2.831193645290643,2.831193645290643,2.734875528588481,0.0,0.0,0.0,2.799087606389923,0.0,0.0,0.0,0.0,0.0,0.0,0.0,0.0,0.0,0.0,0.0,0.0,0.0,0.0,
2.4893,2.8326730439865893,2.8326730439865893,2.7361815402699765,0.0,0.0,0.0,2.800509209414385,0.0,0.0,0.0,0.0,0.0,0.0,0.0,0.0,0.0,0.0,0.0,0.0,0.0,0.0,
2.5137,2.834170511308324,2.834170511308324,2.7375033034261778,0.0,0.0,0.0,2.8019481086809415,0.0,0.0,0.0,0.0,0.0,0.0,0.0,0.0,0.0,0.0,0.0,0.0,0.0,0.0,
2.5381,2.835686165120888,2.835686165120888,2.738840914876281,0.0,0.0,0.0,2.8034044150393527,0.0,0.0,0.0,0.0,0.0,0.0,0.0,0.0,0.0,0.0,0.0,0.0,0.0,0.0,
2.5625,2.8372201252702274,2.8372201252702274,2.7401944730403907,0.0,0.0,0.0,2.8048782411936153,0.0,0.0,0.0,0.0,0.0,0.0,0.0,0.0,0.0,0.0,0.0,0.0,0.0,0.0,
2.5869,2.838772513614842,2.838772513614842,2.741564077964266,0.0,0.0,0.0,2.8063697017313167,0.0,0.0,0.0,0.0,0.0,0.0,0.0,0.0,0.0,0.0,0.0,0.0,0.0,0.0,
2.6113,2.840343454058149,2.840343454058149,2.742949831344819,0.0,0.0,0.0,2.8078789131537056,0.0,0.0,0.0,0.0,0.0,0.0,0.0,0.0,0.0,0.0,0.0,0.0,0.0,0.0,
2.6357,2.841933072581673,2.841933072581673,2.7443518365560804,0.0,0.0,0.0,2.8094059939064757,0.0,0.0,0.0,0.0,0.0,0.0,0.0,0.0,0.0,0.0,0.0,0.0,0.0,0.0,
2.6602,2.843548128056913,2.843548128056913,2.745776045437171,0.0,0.0,0.0,2.8109574338503323,0.0,0.0,0.0,0.0,0.0,0.0,0.0,0.0,0.0,0.0,0.0,0.0,0.0,0.0,
2.6846,2.8451755670474848,2.8451755670474848,2.7472109389706296,0.0,0.0,0.0,2.8125206910218665,0.0,0.0,0.0,0.0,0.0,0.0,0.0,0.0,0.0,0.0,0.0,0.0,0.0,0.0,
2.709,2.8468220754220486,2.8468220754220486,2.748662405237679,0.0,0.0,0.0,2.8141021853605923,0.0,0.0,0.0,0.0,0.0,0.0,0.0,0.0,0.0,0.0,0.0,0.0,0.0,0.0,
2.7334,2.848487787831201,2.848487787831201,2.750130554600819,0.0,0.0,0.0,2.815702043421074,0.0,0.0,0.0,0.0,0.0,0.0,0.0,0.0,0.0,0.0,0.0,0.0,0.0,0.0,
2.7578,2.8501728411817595,2.8501728411817595,2.7516154992393584,0.0,0.0,0.0,2.8173203938676257,0.0,0.0,0.0,0.0,0.0,0.0,0.0,0.0,0.0,0.0,0.0,0.0,0.0,0.0,
2.7822,2.8518773746750115,2.8518773746750115,2.753117353179306,0.0,0.0,0.0,2.818957367509776,0.0,0.0,0.0,0.0,0.0,0.0,0.0,0.0,0.0,0.0,0.0,0.0,0.0,0.0,
2.8066,2.8536015298457715,2.8536015298457715,2.7546362323240023,0.0,0.0,0.0,2.8206130973385153,0.0,0.0,0.0,0.0,0.0,0.0,0.0,0.0,0.0,0.0,0.0,0.0,0.0,0.0,
2.831,2.8553454506024725,2.8553454506024725,2.7561722544854885,0.0,0.0,0.0,2.822287718563478,0.0,0.0,0.0,0.0,0.0,0.0,0.0,0.0,0.0,0.0,0.0,0.0,0.0,0.0,
2.8554,2.8571092832682385,2.8571092832682385,2.757725539416601,0.0,0.0,0.0,2.823981368651026,0.0,0.0,0.0,0.0,0.0,0.0,0.0,0.0,0.0,0.0,0.0,0.0,0.0,0.0,
2.8798,2.8588931766228978,2.8588931766228978,2.7592962088438773,0.0,0.0,0.0,2.8256941873632244,0.0,0.0,0.0,0.0,0.0,0.0,0.0,0.0,0.0,0.0,0.0,0.0,0.0,0.0,
2.9042,2.860697281946056,2.860697281946056,2.7608843865012096,0.0,0.0,0.0,2.8274263167977742,0.0,0.0,0.0,0.0,0.0,0.0,0.0,0.0,0.0,0.0,0.0,0.0,0.0,0.0,
2.9286,2.8625217530612117,2.8625217530612117,2.762490198164348,0.0,0.0,0.0,2.829177901428924,0.0,0.0,0.0,0.0,0.0,0.0,0.0,0.0,0.0,0.0,0.0,0.0,0.0,0.0,
2.953,2.8643667463810276,2.8643667463810276,2.7641137716862096,0.0,0.0,0.0,2.830949088149422,0.0,0.0,0.0,0.0,0.0,0.0,0.0,0.0,0.0,0.0,0.0,0.0,0.0,0.0,
2.9774,2.866232420953536,2.866232420953536,2.76575523703307,0.0,0.0,0.0,2.832740026313381,0.0,0.0,0.0,0.0,0.0,0.0,0.0,0.0,0.0,0.0,0.0,0.0,0.0,0.0,
3.0018,2.868118938509755,2.868118938509755,2.7674147263216264,0.0,0.0,0.0,2.8345508677803792,0.0,0.0,0.0,0.0,0.0,0.0,0.0,0.0,0.0,0.0,0.0,0.0,0.0,0.0,
3.0262,2.870026463512261,2.870026463512261,2.7690923738569584,0.0,0.0,0.0,2.836381766960494,0.0,0.0,0.0,0.0,0.0,0.0,0.0,0.0,0.0,0.0,0.0,0.0,0.0,0.0,
3.0506,2.8719551632050324,2.8719551632050324,2.7707883161714544,0.0,0.0,0.0,2.8382328808605064,0.0,0.0,0.0,0.0,0.0,0.0,0.0,0.0,0.0,0.0,0.0,0.0,0.0,0.0,
3.075,2.8739052076646416,2.8739052076646416,2.772502692064647,0.0,0.0,0.0,2.84010436913131,0.0,0.0,0.0,0.0,0.0,0.0,0.0,0.0,0.0,0.0,0.0,0.0,0.0,0.0,
3.0994,2.8758767698526078,2.8758767698526078,2.7742356426441015,0.0,0.0,0.0,2.841996394116439,0.0,0.0,0.0,0.0,0.0,0.0,0.0,0.0,0.0,0.0,0.0,0.0,0.0,0.0,
3.1239,2.8778782396315528,2.8778782396315528,2.7759945290511423,0.0,0.0,0.0,2.8439170027714162,0.0,0.0,0.0,0.0,0.0,0.0,0.0,0.0,0.0,0.0,0.0,0.0,0.0,0.0,
3.1483,2.879893457984343,2.879893457984343,2.7777651393831038,0.0,0.0,0.0,2.845850685117263,0.0,0.0,0.0,0.0,0.0,0.0,0.0,0.0,0.0,0.0,0.0,0.0,0.0,0.0,
3.1727,2.8819307315558964,2.8819307315558964,2.7795547626088277,0.0,0.0,0.0,2.84780540857354,0.0,0.0,0.0,0.0,0.0,0.0,0.0,0.0,0.0,0.0,0.0,0.0,0.0,0.0,
