energies(eV),real_xx,real_yy,real_zz,real_xy,real_yz,real_xz,real_ave,imag_xx,imag_yy,imag_zz,imag_xy,imag_yz,imag_xz,imag_ave,absorption_xx,absorption_yy,absorption_zz,absorption_xy,absorption_yz,absorption_xz,absorption_ave,band_gap
0.0,3.8717063810417023,3.90874058361722,3.7543317105009524,0.0,0.0,-0.07271337798264202,3.844926225053292,0.0,0.0,0.0,0.0,0.0,0.0,0.0,0.0,0.0,0.0,0.0,0.0,0.0,0.0,5.215
0.0223,3.8717243425213517,3.9087582834707195,3.7543482831687367,0.0,0.0,-0.07271456165102892,3.8449436363869363,0.0,0.0,0.0,0.0,0.0,0.0,0.0,0.0,0.0,0.0,0.0,0.0,609.479473370103,0.0,
0.0447,3.8717785515481666,3.9088117028087908,3.754398300629143,0.0,0.0,-0.07271813409329912,3.8449961849953667,0.0,0.0,0.0,0.0,0.0,0.0,0.0,0.0,0.0,0.0,0.0,0.0,1221.7220488425514,0.0,
0.067,3.8718685302247606,3.9089003704499867,3.7544813218378046,0.0,0.0,-0.0727240639546383,3.845083407504184,0.0,0.0,0.0,0.0,0.0,0.0,0.0,0.0,0.0,0.0,0.0,0.0,1831.2911563125222,0.0,
0.0894,3.8719950957873683,3.9090250913104745,3.7545981006731726,0.0,0.0,-0.072732405326855,3.845206095923672,0.0,0.0,0.0,0.0,0.0,0.0,0.0,0.0,0.0,0.0,0.0,0.0,2443.6838539103483,0.0,
0.1117,3.872157132461118,3.909184765303521,3.7547476074067654,0.0,0.0,-0.07274308499930462,3.845363168390468,0.0,0.0,0.0,0.0,0.0,0.0,0.0,0.0,0.0,0.0,0.0,0.0,3053.462256907392,0.0,
0.1341,3.8723561119624454,3.909380841942641,3.7549311996509607,0.0,0.0,-0.07275620039196849,3.845556051185349,0.0,0.0,0.0,0.0,0.0,0.0,0.0,0.0,0.0,0.0,0.0,0.0,3666.125336810262,0.0,
0.1564,3.8725902801456886,3.909611591768617,3.755147258545808,0.0,0.0,-0.07277163639462776,3.845783043486705,0.0,0.0,0.0,0.0,0.0,0.0,0.0,0.0,0.0,0.0,0.0,0.0,4276.2328411640065,0.0,
0.1788,3.872861763891518,3.909879109537766,3.755397746057695,0.0,0.0,-0.07278953381611268,3.8460462064956595,0.0,0.0,0.0,0.0,0.0,0.0,0.0,0.0,0.0,0.0,0.0,0.0,4889.286750145128,0.0,
0.2011,3.873168169907186,3.9101810356835385,3.755680453491502,0.0,0.0,-0.07280973557781299,3.8463432196940754,0.0,0.0,0.0,0.0,0.0,0.0,0.0,0.0,0.0,0.0,0.0,0.0,5499.843388869176,0.0,
0.2235,3.8735122812270273,3.9105201111386223,3.7559979480643895,0.0,0.0,-0.07283242596516762,3.8466767801433464,0.0,0.0,0.0,0.0,0.0,0.0,0.0,0.0,0.0,0.0,0.0,0.0,6113.408843594049,0.0,
0.2458,3.8738910643512603,3.910893345225577,3.7563474302851088,0.0,0.0,-0.07285740583719533,3.847043946620649,0.0,0.0,0.0,0.0,0.0,0.0,0.0,0.0,0.0,0.0,0.0,0.0,6724.5349599874135,0.0,
0.2682,3.874307959764064,3.9113041262763852,3.756732073796409,0.0,0.0,-0.07288490307091017,3.847448053278953,0.0,0.0,0.0,0.0,0.0,0.0,0.0,0.0,0.0,0.0,0.0,0.0,7338.7330306927815,0.0,
0.2905,3.874759292413438,3.9117488312293203,3.7571484870914946,0.0,0.0,-0.07291467634369295,3.8478855369114178,0.0,0.0,0.0,0.0,0.0,0.0,0.0,0.0,0.0,0.0,0.0,0.0,7950.549361878623,0.0,
0.3129,3.875249161838052,3.9122314973294903,3.7576004516930386,0.0,0.0,-0.07294699726646425,3.8483603702868603,0.0,0.0,0.0,0.0,0.0,0.0,0.0,0.0,0.0,0.0,0.0,0.0,8565.501556549922,0.0,
0.3352,3.875773249801732,3.9127478675860767,3.7580839825992554,0.0,0.0,-0.07298158219025537,3.848868366662355,0.0,0.0,0.0,0.0,0.0,0.0,0.0,0.0,0.0,0.0,0.0,0.0,9178.129317569754,0.0,
0.3576,3.8763363168130294,3.913302629964093,3.7586034709488523,0.0,0.0,-0.07301874662978797,3.8494141392419916,0.0,0.0,0.0,0.0,0.0,0.0,0.0,0.0,0.0,0.0,0.0,0.0,9793.957666736364,0.0,
0.3799,3.876933399530576,3.9138908917254507,3.759154336503502,0.0,0.0,-0.07305816443940022,3.849992875919843,0.0,0.0,0.0,0.0,0.0,0.0,0.0,0.0,0.0,0.0,0.0,0.0,10407.518635319486,0.0,
0.4023,3.877569921661772,3.9145179936573076,3.7597415820381697,0.0,0.0,-0.07310019523530438,3.8506098324524167,0.0,0.0,0.0,0.0,0.0,0.0,0.0,0.0,0.0,0.0,0.0,0.0,11024.345777588735,0.0,
0.4246,3.878240272547529,3.9151784051805207,3.7603600300723024,0.0,0.0,-0.07314447017893884,3.8512595692667837,0.0,0.0,0.0,0.0,0.0,0.0,0.0,0.0,0.0,0.0,0.0,0.0,11638.962379717106,0.0,
0.447,3.8789505416396404,3.915878122304705,3.761015297324205,0.0,0.0,-0.07319139321377365,3.851947987089517,0.0,0.0,0.0,0.0,0.0,0.0,0.0,0.0,0.0,0.0,0.0,0.0,12256.911648168734,0.0,
0.4693,3.879694468454323,3.916610974237698,3.7617016067985047,0.0,0.0,-0.0732405525860223,3.852669016496842,0.0,0.0,0.0,0.0,0.0,0.0,0.0,0.0,0.0,0.0,0.0,0.0,12872.70704456078,0.0,
0.4916,3.8804752268095424,3.917380084203431,3.7624218851805558,0.0,0.0,-0.07329215987272997,3.85342573206451,0.0,0.0,0.0,0.0,0.0,0.0,0.0,0.0,0.0,0.0,0.0,0.0,13489.136819736092,0.0,
0.514,3.8812966563242512,3.9181892306734056,3.763179673138783,0.0,0.0,-0.07334647099964504,3.8542218533788133,0.0,0.0,0.0,0.0,0.0,0.0,0.0,0.0,0.0,0.0,0.0,0.0,14109.000727763167,0.0,
0.5363,3.88215151715874,3.9190312781947787,3.763968290230097,0.0,0.0,-0.0734030094140017,3.855050361861205,0.0,0.0,0.0,0.0,0.0,0.0,0.0,0.0,0.0,0.0,0.0,0.0,14726.79546799296,0.0,
0.5587,3.8830475756184155,3.919913872579208,3.76479489934189,0.0,0.0,-0.07346229100177555,3.8559187825131715,0.0,0.0,0.0,0.0,0.0,0.0,0.0,0.0,0.0,0.0,0.0,0.0,15348.093308537545,0.0,
0.581,3.8839769344651063,3.920829230996901,3.765652213650648,0.0,0.0,-0.07352379562320374,3.856819459704219,0.0,0.0,0.0,0.0,0.0,0.0,0.0,0.0,0.0,0.0,0.0,0.0,15967.378395782964,0.0,
0.6034,3.8849480372030154,3.921785665277894,3.7665480203684356,0.0,0.0,-0.07358808450729484,3.8577605742831147,0.0,0.0,0.0,0.0,0.0,0.0,0.0,0.0,0.0,0.0,0.0,0.0,16590.23662712189,0.0,
0.6257,3.88595232563024,3.9227747418443237,3.7674744230594923,0.0,0.0,-0.07365459361101298,3.858733830178019,0.0,0.0,0.0,0.0,0.0,0.0,0.0,0.0,0.0,0.0,0.0,0.0,17211.138489720175,0.0,
0.6481,3.8869989244709617,3.9238054423325672,3.76843983690494,0.0,0.0,-0.07372392986294389,3.859748067902823,0.0,0.0,0.0,0.0,0.0,0.0,0.0,0.0,0.0,0.0,0.0,0.0,17835.684667303314,0.0,
0.6704,3.8880786106818848,3.9248686787510847,3.7694357523417708,0.0,0.0,-0.0737954849727707,3.860794347258247,0.0,0.0,0.0,0.0,0.0,0.0,0.0,0.0,0.0,0.0,0.0,0.0,18458.33087215682,0.0,
0.6928,3.889201194570675,3.9259741066518616,3.770471216474751,0.0,0.0,-0.07386991195551243,3.8618821725657626,0.0,0.0,0.0,0.0,0.0,0.0,0.0,0.0,0.0,0.0,0.0,0.0,19084.69374201256,0.0,
0.7151,3.8903567840575084,3.927111979664912,3.771537102811015,0.0,0.0,-0.07394655790136294,3.863001955511145,0.0,0.0,0.0,0.0,0.0,0.0,0.0,0.0,0.0,0.0,0.0,0.0,19709.213088410594,0.0,
0.7375,3.8915558797457424,3.928292631694035,3.7726430946494602,0.0,0.0,-0.07402612232950029,3.8641638686964126,0.0,0.0,0.0,0.0,0.0,0.0,0.0,0.0,0.0,0.0,0.0,0.0,20337.522682261777,0.0,
0.7598,3.892787916000719,3.929505653721858,3.7737794444718076,0.0,0.0,-0.07410790730972001,3.865357671398128,0.0,0.0,0.0,0.0,0.0,0.0,0.0,0.0,0.0,0.0,0.0,0.0,20964.04529747701,0.0,
0.7822,3.894064088789246,3.9307620627733217,3.774956476363828,0.0,0.0,-0.0741926593145408,3.8665942093087984,0.0,0.0,0.0,0.0,0.0,0.0,0.0,0.0,0.0,0.0,0.0,0.0,21594.43302971015,0.0,
0.8045,3.895373154074349,3.9320507826050317,3.7761638173879075,0.0,0.0,-0.07427963496320193,3.867862584689096,0.0,0.0,0.0,0.0,0.0,0.0,0.0,0.0,0.0,0.0,0.0,0.0,22223.090466510675,0.0,
0.8269,3.8967270086171104,3.933383518472192,3.777412437338363,0.0,0.0,-0.07436962816284894,3.8691743214758887,0.0,0.0,0.0,0.0,0.0,0.0,0.0,0.0,0.0,0.0,0.0,0.0,22855.689233143246,0.0,
0.8492,3.8981137247948747,3.9347485220110587,3.7786913331601255,0.0,0.0,-0.07446184962218101,3.8705178599886865,0.0,0.0,0.0,0.0,0.0,0.0,0.0,0.0,0.0,0.0,0.0,0.0,23486.614569370104,0.0,
0.8716,3.8995459059648474,3.9361581921632776,3.780012125613821,0.0,0.0,-0.07455714119704458,3.8719054079139816,0.0,0.0,0.0,0.0,0.0,0.0,0.0,0.0,0.0,0.0,0.0,0.0,24121.55884916834,0.0,
0.8939,3.9010109353925175,3.9376001032284234,3.781363176518045,0.0,0.0,-0.07465466719514743,3.873324738379662,0.0,0.0,0.0,0.0,0.0,0.0,0.0,0.0,0.0,0.0,0.0,0.0,24754.8867895275,0.0,
0.9163,3.902522129213012,3.9390873536455273,3.7827567632017915,0.0,0.0,-0.0747553179686535,3.8747887486867767,0.0,0.0,0.0,0.0,0.0,0.0,0.0,0.0,0.0,0.0,0.0,0.0,25392.312747426673,0.0,
0.9386,3.904066175703028,3.9406068348321512,3.78418060703082,0.0,0.0,-0.07485821090269029,3.8762845391886667,0.0,0.0,0.0,0.0,0.0,0.0,0.0,0.0,0.0,0.0,0.0,0.0,26028.179727654482,0.0,
0.961,3.9056571103465925,3.942172350898823,3.785647647856859,0.0,0.0,-0.07496428542767848,3.8778257030340915,0.0,0.0,0.0,0.0,0.0,0.0,0.0,0.0,0.0,0.0,0.0,0.0,26668.225320641915,0.0,
0.9833,3.907280920196146,3.943770104499612,3.7871449609414514,0.0,0.0,-0.07507261145272333,3.8793986618790703,0.0,0.0,0.0,0.0,0.0,0.0,0.0,0.0,0.0,0.0,0.0,0.0,27306.769614202174,0.0,
1.0056,3.9089448150608654,3.9454071819585987,3.788679191597435,0.0,0.0,-0.0751836738761456,3.881010396205633,0.0,0.0,0.0,0.0,0.0,0.0,0.0,0.0,0.0,0.0,0.0,0.0,27946.701869683755,0.0,
1.028,3.910656730147236,3.947091380952881,3.790257653131143,0.0,0.0,-0.07529800722737984,3.8826685880770864,0.0,0.0,0.0,0.0,0.0,0.0,0.0,0.0,0.0,0.0,0.0,0.0,28590.936527309183,0.0,
1.0503,3.912401588973063,3.9488078599931518,3.791866441057141,0.0,0.0,-0.0754146091466386,3.8843586300077853,0.0,0.0,0.0,0.0,0.0,0.0,0.0,0.0,0.0,0.0,0.0,0.0,29233.75703299982,0.0,
1.0727,3.9141952559588646,3.950572216032812,3.7935201792187665,0.0,0.0,-0.07553454448198636,3.8860958837368145,0.0,0.0,0.0,0.0,0.0,0.0,0.0,0.0,0.0,0.0,0.0,0.0,29880.964616374156,0.0,
1.095,3.9160219361896407,3.952368902599143,3.7952043014302217,0.0,0.0,-0.07565676187017076,3.8878650467396683,0.0,0.0,0.0,0.0,0.0,0.0,0.0,0.0,0.0,0.0,0.0,0.0,30526.816722561267,0.0,
1.1174,3.9178982396394426,3.9542142469117776,3.7969341178030547,0.0,0.0,-0.07578237755659901,3.889682201451425,0.0,0.0,0.0,0.0,0.0,0.0,0.0,0.0,0.0,0.0,0.0,0.0,31177.142331648884,0.0,
1.1397,3.919807645397213,3.9560919903912266,3.798694393596794,0.0,0.0,-0.07591029050324816,3.891531343128411,0.0,0.0,0.0,0.0,0.0,0.0,0.0,0.0,0.0,0.0,0.0,0.0,31826.171622048787,0.0,
1.1621,3.9217675174467996,3.958019198450797,3.8005011328536344,0.0,0.0,-0.07604166910057776,3.893429282917077,0.0,0.0,0.0,0.0,0.0,0.0,0.0,0.0,0.0,0.0,0.0,0.0,32479.76266021228,0.0,
1.1844,3.923760600914951,3.9599788929050033,3.802338425059152,0.0,0.0,-0.0761753619287584,3.895359306293036,0.0,0.0,0.0,0.0,0.0,0.0,0.0,0.0,0.0,0.0,0.0,0.0,33132.117072196605,0.0,
1.2068,3.925805022705211,3.961988885708722,3.8042229762593798,0.0,0.0,-0.07631259031073465,3.897338961557771,0.0,0.0,0.0,0.0,0.0,0.0,0.0,0.0,0.0,0.0,0.0,0.0,33789.12336870377,0.0,
1.2291,3.9278827856014993,3.964031471184924,3.806138192571382,0.0,0.0,-0.0764521517010949,3.8993508164526016,0.0,0.0,0.0,0.0,0.0,0.0,0.0,0.0,0.0,0.0,0.0,0.0,34444.95331704215,0.0,
1.2515,3.930012788804923,3.9661252166111156,3.8081014905420876,0.0,0.0,-0.07659532118360797,3.9014131653193758,0.0,0.0,0.0,0.0,0.0,0.0,0.0,0.0,0.0,0.0,0.0,0.0,35105.52725320393,0.0,
1.2738,3.9321762839492416,3.968251680535726,3.8100955849387454,0.0,0.0,-0.07674084430569532,3.903507849807904,0.0,0.0,0.0,0.0,0.0,0.0,0.0,0.0,0.0,0.0,0.0,0.0,35764.98575752161,0.0,
1.2962,3.9343929523944174,3.970430194786815,3.8121386117442158,0.0,0.0,-0.07689005078245022,3.905653919641816,0.0,0.0,0.0,0.0,0.0,0.0,0.0,0.0,0.0,0.0,0.0,0.0,36429.28239666396,0.0,
1.3185,3.936643285376446,3.9726415734461487,3.814212585996171,0.0,0.0,-0.07704163343360416,3.907832481606255,0.0,0.0,0.0,0.0,0.0,0.0,0.0,0.0,0.0,0.0,0.0,0.0,37092.5252128206,0.0,
1.3409,3.9389477567754243,3.9749059225814647,3.8163363725009587,0.0,0.0,-0.07719697751956445,3.910063350619282,0.0,0.0,0.0,0.0,0.0,0.0,0.0,0.0,0.0,0.0,0.0,0.0,37760.70243430203,0.0,
1.3632,3.941286087728111,3.977203302694191,3.81849127777573,0.0,0.0,-0.07735472227170728,3.9123268893993437,0.0,0.0,0.0,0.0,0.0,0.0,0.0,0.0,0.0,0.0,0.0,0.0,38427.88818990381,0.0,
1.3856,3.943679555513136,3.979554604257511,3.8206969053064825,0.0,0.0,-0.07751630945464018,3.914643688359043,0.0,0.0,0.0,0.0,0.0,0.0,0.0,0.0,0.0,0.0,0.0,0.0,39100.106827393945,0.0,
1.4079,3.9461071009977315,3.981939124643941,3.8229338438742966,0.0,0.0,-0.07768032380931471,3.9169933565053228,0.0,0.0,0.0,0.0,0.0,0.0,0.0,0.0,0.0,0.0,0.0,0.0,39771.397161660425,0.0,
1.4303,3.948590816273258,3.9843785493908976,3.8252224459861317,0.0,0.0,-0.07784826460979766,3.919397270550096,0.0,0.0,0.0,0.0,0.0,0.0,0.0,0.0,0.0,0.0,0.0,0.0,40447.8211459052,0.0,
1.4526,3.9511088512826644,3.9868514027446325,3.827542573032839,0.0,0.0,-0.07801866116181107,3.9218342756867117,0.0,0.0,0.0,0.0,0.0,0.0,0.0,0.0,0.0,0.0,0.0,0.0,41123.38085411692,0.0,
1.4749,3.9536725253063936,3.989368786988986,3.829904650171261,0.0,0.0,-0.07819228540371334,3.9243153208222132,0.0,0.0,0.0,0.0,0.0,0.0,0.0,0.0,0.0,0.0,0.0,0.0,41801.13311112758,0.0,
1.4973,3.9562939849875023,3.991942611243615,3.8323198629402575,0.0,0.0,-0.07836996791213505,3.926852153057125,0.0,0.0,0.0,0.0,0.0,0.0,0.0,0.0,0.0,0.0,0.0,0.0,42484.17454318532,0.0,
1.5196,3.958950173713829,3.994550221190421,3.8347669633831125,0.0,0.0,-0.07855015303573647,3.929422452762454,0.0,0.0,0.0,0.0,0.0,0.0,0.0,0.0,0.0,0.0,0.0,0.0,43166.449420674915,0.0,
1.542,3.961665273290271,3.9972153391258782,3.8372682242753977,0.0,0.0,-0.07873448847088636,3.9320496122305157,0.0,0.0,0.0,0.0,0.0,0.0,0.0,0.0,0.0,0.0,0.0,0.0,43854.12036142868,0.0,
1.5643,3.9644154073254962,3.9999145105618163,3.8398016441259637,0.0,0.0,-0.07892136057379211,3.9347105206710915,0.0,0.0,0.0,0.0,0.0,0.0,0.0,0.0,0.0,0.0,0.0,0.0,44541.09120494492,0.0,
1.5867,3.9672256168879074,4.002672294293349,3.84239028500215,0.0,0.0,-0.0791124784558999,3.937429398727802,0.0,0.0,0.0,0.0,0.0,0.0,0.0,0.0,0.0,0.0,0.0,0.0,45233.56761534074,0.0,
1.609,3.9700711933189496,4.005464423971818,3.845011380564065,0.0,0.0,-0.07930616937501586,3.9401823326182774,0.0,0.0,0.0,0.0,0.0,0.0,0.0,0.0,0.0,0.0,0.0,0.0,45925.41147141115,0.0,
1.6314,3.972978051038772,4.008316307998801,3.847688794933676,0.0,0.0,-0.0795042050921745,3.942994384657083,0.0,0.0,0.0,0.0,0.0,0.0,0.0,0.0,0.0,0.0,0.0,0.0,46622.87311365298,0.0,
1.6537,3.9759206360657373,4.011202855951927,3.850398985093926,0.0,0.0,-0.07970485261111837,3.9458408257038635,0.0,0.0,0.0,0.0,0.0,0.0,0.0,0.0,0.0,0.0,0.0,0.0,47319.770897856586,0.0,
1.6761,3.97892575092132,4.014150339550046,3.8531666305831505,0.0,0.0,-0.07990994763307435,3.9487475736848388,0.0,0.0,0.0,0.0,0.0,0.0,0.0,0.0,0.0,0.0,0.0,0.0,48022.401507193026,0.0,
1.6984,3.981966982655406,4.017132831541746,3.8559673993448422,0.0,0.0,-0.08011769570056504,3.9516890711806645,0.0,0.0,0.0,0.0,0.0,0.0,0.0,0.0,0.0,0.0,0.0,0.0,48724.53817819807,0.0,
1.7208,3.9850720373296897,4.020177481301181,3.8588268003197337,0.0,0.0,-0.0803299978037876,3.9546921063168683,0.0,0.0,0.0,0.0,0.0,0.0,0.0,0.0,0.0,0.0,0.0,0.0,49432.52564083962,0.0,
1.7431,3.9882136287675394,4.023257511430342,3.861719699494891,0.0,0.0,-0.08054499676350892,3.9577302798975906,0.0,0.0,0.0,0.0,0.0,0.0,0.0,0.0,0.0,0.0,0.0,0.0,50140.09038068021,0.0,
1.7655,3.991420382728652,4.026400963949673,3.86467244985045,0.0,0.0,-0.08076466026804228,3.9608312655095914,0.0,0.0,0.0,0.0,0.0,0.0,0.0,0.0,0.0,0.0,0.0,0.0,50853.626918123264,0.0,
1.7878,3.9946641249149692,4.029580197413006,3.867659101923358,0.0,0.0,-0.08098706710050438,3.963967808083778,0.0,0.0,0.0,0.0,0.0,0.0,0.0,0.0,0.0,0.0,0.0,0.0,51566.81331899649,0.0,
1.8102,3.997974417692435,4.032824162158574,3.8707068680497803,0.0,0.0,-0.0812142531191464,3.9671684826335962,0.0,0.0,0.0,0.0,0.0,0.0,0.0,0.0,0.0,0.0,0.0,0.0,52286.09567904132,0.0,
1.8325,4.001322183083694,4.036104338183855,3.8737889692226783,0.0,0.0,-0.0814442316960911,3.9704051634967423,0.0,0.0,0.0,0.0,0.0,0.0,0.0,0.0,0.0,0.0,0.0,0.0,53005.10193691141,0.0,
1.8549,4.004737937753589,4.039450600525875,3.876933493161091,0.0,0.0,-0.08167910839644849,3.9737073438135178,0.0,0.0,0.0,0.0,0.0,0.0,0.0,0.0,0.0,0.0,0.0,0.0,53730.33159166192,0.0,
1.8772,4.008191683797211,4.042833535486674,3.880112816595064,0.0,0.0,-0.08191682974836001,3.9770460119596494,0.0,0.0,0.0,0.0,0.0,0.0,0.0,0.0,0.0,0.0,0.0,0.0,54455.360706961204,0.0,
1.8996,4.011714910690965,4.046283959923732,3.8833559193960228,0.0,0.0,-0.08215957262836017,3.9804515966702394,0.0,0.0,0.0,0.0,0.0,0.0,0.0,0.0,0.0,0.0,0.0,0.0,55186.74405810069,0.0,
1.9219,4.01527668363481,4.049771550648178,3.8866343186607253,0.0,0.0,-0.08240521522566834,3.9838941843145714,0.0,0.0,0.0,0.0,0.0,0.0,0.0,0.0,0.0,0.0,0.0,0.0,55918.004043821624,0.0,
1.9443,4.018909484287812,4.053328084233197,3.889977903959899,0.0,0.0,-0.08265600740312613,3.987405157493636,0.0,0.0,0.0,0.0,0.0,0.0,0.0,0.0,0.0,0.0,0.0,0.0,56655.75263546118,0.0,
1.9666,4.022581423236657,4.056922311519881,3.8933573167073168,0.0,0.0,-0.08290975745170212,3.990953683821285,0.0,0.0,0.0,0.0,0.0,0.0,0.0,0.0,0.0,0.0,0.0,0.0,57393.45673293378,0.0,
1.9889,4.026309151820783,4.060570505555148,3.896787874903867,0.0,0.0,-0.08316762426938827,3.994555844093266,0.0,0.0,0.0,0.0,0.0,0.0,0.0,0.0,0.0,0.0,0.0,0.0,58134.457094196965,0.0,
2.0113,4.030110335831157,4.064289919856931,3.900285826412746,0.0,0.0,-0.08343084172011479,3.9982286940336116,0.0,0.0,0.0,0.0,0.0,0.0,0.0,0.0,0.0,0.0,0.0,0.0,58882.15437497697,0.0,
2.0336,4.033951620100389,4.068047884921542,3.9038204684876265,0.0,0.0,-0.08369711025845188,4.001939991169853,0.0,0.0,0.0,0.0,0.0,0.0,0.0,0.0,0.0,0.0,0.0,0.0,59629.9287538759,0.0,
2.056,4.037868056322704,4.071878659164721,3.9074240460762164,0.0,0.0,-0.08396886994001093,4.00572358718788,0.0,0.0,0.0,0.0,0.0,0.0,0.0,0.0,0.0,0.0,0.0,0.0,60384.54384677718,0.0,
2.0783,4.041825286941019,4.075748602752421,3.9110649374728106,0.0,0.0,-0.08424374712594661,4.009546275722083,0.0,0.0,0.0,0.0,0.0,0.0,0.0,0.0,0.0,0.0,0.0,0.0,61139.31954597028,0.0,
2.1007,4.045859430982305,4.079693003046897,3.9147763653955328,0.0,0.0,-0.08452426131355523,4.013442933141579,0.0,0.0,0.0,0.0,0.0,0.0,0.0,0.0,0.0,0.0,0.0,0.0,61901.0837792249,0.0,
2.123,4.049935107883816,4.083677230774974,3.9185257705055747,0.0,0.0,-0.08480796296492442,4.017379369721454,0.0,0.0,0.0,0.0,0.0,0.0,0.0,0.0,0.0,0.0,0.0,0.0,62663.09414938859,0.0,
2.1454,4.054089527786736,4.0877376240908845,3.9223473748324413,0.0,0.0,-0.08509745304700037,4.021391508903354,0.0,0.0,0.0,0.0,0.0,0.0,0.0,0.0,0.0,0.0,0.0,0.0,63432.245052758335,0.0,
2.1677,4.0582862655915,4.091838544346258,3.9262076619019064,0.0,0.0,-0.08539020424015029,4.025444157279888,0.0,0.0,0.0,0.0,0.0,0.0,0.0,0.0,0.0,0.0,0.0,0.0,64201.729746510544,0.0,
2.1901,4.062563647456267,4.096017403330762,3.930141875611159,0.0,0.0,-0.08568890109644298,4.029574308799396,0.0,0.0,0.0,0.0,0.0,0.0,0.0,0.0,0.0,0.0,0.0,0.0,64978.51131094541,0.0,
2.2124,4.066884181254893,4.100237532219898,3.934115521980388,0.0,0.0,-0.08599093655166018,4.033745745151727,0.0,0.0,0.0,0.0,0.0,0.0,0.0,0.0,0.0,0.0,0.0,0.0,65755.71654598332,0.0,
2.2348,4.0712873352457315,4.104537440330459,3.9381648903998316,0.0,0.0,-0.08629908094959464,4.03799655532534,0.0,0.0,0.0,0.0,0.0,0.0,0.0,0.0,0.0,0.0,0.0,0.0,66540.37949265732,0.0,
2.2571,4.07573452678183,4.10887940695611,3.9422544881043238,0.0,0.0,-0.0866106454349743,4.042289473947421,0.0,0.0,0.0,0.0,0.0,0.0,0.0,0.0,0.0,0.0,0.0,0.0,67325.55832433936,0.0,
2.2795,4.080266393548884,4.113303063934273,3.9464216747290872,0.0,0.0,-0.08692848844482248,4.046663710737415,0.0,0.0,0.0,0.0,0.0,0.0,0.0,0.0,0.0,0.0,0.0,0.0,68118.36038327366,0.0,
2.3018,4.084843237831535,4.117769616024062,3.950629936489918,0.0,0.0,-0.08724983719919416,4.051080930115172,0.0,0.0,0.0,0.0,0.0,0.0,0.0,0.0,0.0,0.0,0.0,0.0,68911.77298684436,0.0,
2.3242,4.089506895381778,4.122319843736095,3.954917729207176,0.0,0.0,-0.0875776406286875,4.055581489441683,0.0,0.0,0.0,0.0,0.0,0.0,0.0,0.0,0.0,0.0,0.0,0.0,69712.97918530232,0.0,
2.3465,4.0942165277627645,4.126913853650126,3.9592474948428484,0.0,0.0,-0.08790903980416817,4.060125958751914,0.0,0.0,0.0,0.0,0.0,0.0,0.0,0.0,0.0,0.0,0.0,0.0,70514.8931479148,0.0,
2.3689,4.099015198817023,4.131593602323093,3.9636588125970134,0.0,0.0,-0.08824707665310057,4.064755871245709,0.0,0.0,0.0,0.0,0.0,0.0,0.0,0.0,0.0,0.0,0.0,0.0,71324.77610870068,0.0,
2.3912,4.103860902571814,4.136318073470646,3.968113055891518,0.0,0.0,-0.08858880377781378,4.069430677311326,0.0,0.0,0.0,0.0,0.0,0.0,0.0,0.0,0.0,0.0,0.0,0.0,72135.46673134771,0.0,
2.4136,4.108797962448206,4.141130428355435,3.9726509558265057,0.0,0.0,-0.08893735871314218,4.074193115543382,0.0,0.0,0.0,0.0,0.0,0.0,0.0,0.0,0.0,0.0,0.0,0.0,72954.30698108936,0.0,
