energies(eV),real_xx,real_yy,real_zz,real_xy,real_yz,real_xz,real_ave,imag_xx,imag_yy,imag_zz,imag_xy,imag_yz,imag_xz,imag_ave,absorption_xx,absorption_yy,absorption_zz,absorption_xy,absorption_yz,absorption_xz,absorption_ave,band_gap
0.0,2.865669138619865,2.912082416535225,3.1024731326315322,0.0,0.0,0.0,2.9600748959288743,0.0,0.0,0.0,0.0,0.0,0.0,0.0,0.0,0.0,0.0,0.0,0.0,0.0,0.0,4.0112000000000005
0.0145,2.865674135604195,2.9120876928814274,3.102479279166689,0.0,0.0,0.0,2.960080369217437,0.0,0.0,0.0,0.0,0.0,0.0,0.0,0.0,0.0,0.0,0.0,0.0,0.0,0.0,
0.029,2.865689126862245,2.9121035222505074,3.102497719175751,0.0,0.0,0.0,2.9600967894295014,0.0,0.0,0.0,0.0,0.0,0.0,0.0,0.0,0.0,0.0,0.0,0.0,0.0,0.0,
0.0435,2.865714113309266,2.9121299056339045,3.1025284538694606,0.0,0.0,0.0,2.9601241576042105,0.0,0.0,0.0,0.0,0.0,0.0,0.0,0.0,0.0,0.0,0.0,0.0,0.0,0.0,
0.0579,2.865748820969505,2.9121665537795174,3.1025711463818237,0.0,0.0,0.0,2.960162173710282,0.0,0.0,0.0,0.0,0.0,0.0,0.0,0.0,0.0,0.0,0.0,0.0,0.0,0.0,
0.0724,2.865793734015763,2.9122139779880127,3.102626392471541,0.0,0.0,0.0,2.9602113681584385,0.0,0.0,0.0,0.0,0.0,0.0,0.0,0.0,0.0,0.0,0.0,0.0,0.0,0.0,
0.0869,2.865848648639393,2.912271963131203,3.1026939416971095,0.0,0.0,0.0,2.960271517822569,0.0,0.0,0.0,0.0,0.0,0.0,0.0,0.0,0.0,0.0,0.0,0.0,0.0,0.0,
0.1014,2.8659135681953836,2.912340512843495,3.1027737984969592,0.0,0.0,0.0,2.9603426265119466,0.0,0.0,0.0,0.0,0.0,0.0,0.0,0.0,0.0,0.0,0.0,0.0,0.0,0.0,
0.1159,2.8659884966511546,2.9124196314227757,3.1028659681198065,0.0,0.0,0.0,2.9604246987312455,0.0,0.0,0.0,0.0,0.0,0.0,0.0,0.0,0.0,0.0,0.0,0.0,0.0,0.0,
0.1304,2.8660734385873723,2.9125093238313133,3.1029704566258753,0.0,0.0,0.0,2.9605177396815203,0.0,0.0,0.0,0.0,0.0,0.0,0.0,0.0,0.0,0.0,0.0,0.0,0.0,0.0,
0.1449,2.866168399198969,2.9126095956968685,3.1030872708881927,0.0,0.0,0.0,2.9606217552613434,0.0,0.0,0.0,0.0,0.0,0.0,0.0,0.0,0.0,0.0,0.0,0.0,0.0,0.0,
0.1594,2.8662733842961767,2.9127204533138946,3.103216418594122,0.0,0.0,0.0,2.960736752068064,0.0,0.0,0.0,0.0,0.0,0.0,0.0,0.0,0.0,0.0,0.0,0.0,0.0,0.0,
0.1738,2.86638757272542,2.912841029764703,3.103356890170667,0.0,0.0,0.0,2.9608618308869303,0.0,0.0,0.0,0.0,0.0,0.0,0.0,0.0,0.0,0.0,0.0,0.0,0.0,0.0,
0.1883,2.866512557439263,2.9129730073081683,3.1035106458769675,0.0,0.0,0.0,2.9609987368747994,0.0,0.0,0.0,0.0,0.0,0.0,0.0,0.0,0.0,0.0,0.0,0.0,0.0,0.0,
0.2028,2.866647587719278,2.9131155934412454,3.1036767629201165,0.0,0.0,0.0,2.96114664802688,0.0,0.0,0.0,0.0,0.0,0.0,0.0,0.0,0.0,0.0,0.0,0.0,0.0,0.0,
0.2173,2.8667926718462753,2.9132687971355358,3.1038552522579783,0.0,0.0,0.0,2.9613055737465963,0.0,0.0,0.0,0.0,0.0,0.0,0.0,0.0,0.0,0.0,0.0,0.0,0.0,0.0,
0.2318,2.866947818723821,2.9134326280375085,3.1040461256730776,0.0,0.0,0.0,2.9614755241448023,0.0,0.0,0.0,0.0,0.0,0.0,0.0,0.0,0.0,0.0,0.0,0.0,0.0,0.0,
0.2463,2.867113037880121,2.9136070964706695,3.1042493957751818,0.0,0.0,0.0,2.9616565100419905,0.0,0.0,0.0,0.0,0.0,0.0,0.0,0.0,0.0,0.0,0.0,0.0,0.0,0.0,
0.2608,2.867288339470023,2.9137922134377807,3.1044650760041947,0.0,0.0,0.0,2.961848542970666,0.0,0.0,0.0,0.0,0.0,0.0,0.0,0.0,0.0,0.0,0.0,0.0,0.0,0.0,
0.2753,2.867473734277226,2.9139879906232427,3.104693180633058,0.0,0.0,0.0,2.962051635177842,0.0,0.0,0.0,0.0,0.0,0.0,0.0,0.0,0.0,0.0,0.0,0.0,0.0,0.0,
0.2897,2.8676678508142306,2.914192980026582,3.104932023211097,0.0,0.0,0.0,2.96226428468397,0.0,0.0,0.0,0.0,0.0,0.0,0.0,0.0,0.0,0.0,0.0,0.0,0.0,0.0,
0.3042,2.8678733971210706,2.914410041701029,3.105184936850787,0.0,0.0,0.0,2.962489458557629,0.0,0.0,0.0,0.0,0.0,0.0,0.0,0.0,0.0,0.0,0.0,0.0,0.0,0.0,
0.3187,2.86808907270314,2.9146378026659416,3.105450322621874,0.0,0.0,0.0,2.962725732663652,0.0,0.0,0.0,0.0,0.0,0.0,0.0,0.0,0.0,0.0,0.0,0.0,0.0,0.0,
0.3332,2.8683148908793425,2.9148762773544696,3.1057281981575957,0.0,0.0,0.0,2.962973122130469,0.0,0.0,0.0,0.0,0.0,0.0,0.0,0.0,0.0,0.0,0.0,0.0,0.0,0.0,
0.3477,2.86855086561018,2.915125480895659,3.10601858194214,0.0,0.0,0.0,2.963231642815993,0.0,0.0,0.0,0.0,0.0,0.0,0.0,0.0,0.0,0.0,0.0,0.0,0.0,0.0,
0.3622,2.868797011500857,2.9153854291177757,3.106321493314775,0.0,0.0,0.0,2.963501311311136,0.0,0.0,0.0,0.0,0.0,0.0,0.0,0.0,0.0,0.0,0.0,0.0,0.0,0.0,
0.3767,2.869053343804336,2.9156561385517232,3.106636952474237,0.0,0.0,0.0,2.963782144943432,0.0,0.0,0.0,0.0,0.0,0.0,0.0,0.0,0.0,0.0,0.0,0.0,0.0,0.0,
0.3912,2.8693198784246654,2.915937626434784,3.1069649804832755,0.0,0.0,0.0,2.9640741617809083,0.0,0.0,0.0,0.0,0.0,0.0,0.0,0.0,0.0,0.0,0.0,0.0,0.0,0.0,
0.4056,2.8695946882423202,2.9162278579464154,3.107303207009881,0.0,0.0,0.0,2.964375251066206,0.0,0.0,0.0,0.0,0.0,0.0,0.0,0.0,0.0,0.0,0.0,0.0,0.0,0.0,
0.4201,2.8698816071758717,2.9165308826317764,3.1076563523161385,0.0,0.0,0.0,2.964689614041262,0.0,0.0,0.0,0.0,0.0,0.0,0.0,0.0,0.0,0.0,0.0,0.0,0.0,0.0,
0.4346,2.8701787799543266,2.916844741618692,3.1080221347267507,0.0,0.0,0.0,2.96501521876659,0.0,0.0,0.0,0.0,0.0,0.0,0.0,0.0,0.0,0.0,0.0,0.0,0.0,0.0,
0.4491,2.870486225117199,2.91716945500444,3.1084005788042566,0.0,0.0,0.0,2.965352086308632,0.0,0.0,0.0,0.0,0.0,0.0,0.0,0.0,0.0,0.0,0.0,0.0,0.0,0.0,
0.4636,2.8708039618737202,2.9175050436132812,3.108791710001087,0.0,0.0,0.0,2.9657002384960296,0.0,0.0,0.0,0.0,0.0,0.0,0.0,0.0,0.0,0.0,0.0,0.0,0.0,0.0,
0.4781,2.8711320101069977,2.9178515290011062,3.109195554665497,0.0,0.0,0.0,2.9660596979245337,0.0,0.0,0.0,0.0,0.0,0.0,0.0,0.0,0.0,0.0,0.0,0.0,0.0,0.0,
0.4926,2.87147039037838,2.918208933460286,3.10961214004753,0.0,0.0,0.0,2.966430487962065,0.0,0.0,0.0,0.0,0.0,0.0,0.0,0.0,0.0,0.0,0.0,0.0,0.0,0.0,
0.5071,2.871819123931962,2.918577280024655,3.1100414943053534,0.0,0.0,0.0,2.96681263275399,0.0,0.0,0.0,0.0,0.0,0.0,0.0,0.0,0.0,0.0,0.0,0.0,0.0,0.0,
0.5215,2.8721757205061107,2.918953938918776,3.110480553291906,0.0,0.0,0.0,2.9672034042389313,0.0,0.0,0.0,0.0,0.0,0.0,0.0,0.0,0.0,0.0,0.0,0.0,0.0,0.0,
0.536,2.872545155322545,2.919344165905307,3.110935444867459,0.0,0.0,0.0,2.9676082553651035,0.0,0.0,0.0,0.0,0.0,0.0,0.0,0.0,0.0,0.0,0.0,0.0,0.0,0.0,
0.5505,2.8729250111341904,2.919745408423104,3.1114031950915684,0.0,0.0,0.0,2.9680245382162878,0.0,0.0,0.0,0.0,0.0,0.0,0.0,0.0,0.0,0.0,0.0,0.0,0.0,0.0,
0.565,2.873315311959587,2.92015769252028,3.1118838358156125,0.0,0.0,0.0,2.968452280098493,0.0,0.0,0.0,0.0,0.0,0.0,0.0,0.0,0.0,0.0,0.0,0.0,0.0,0.0,
0.5795,2.873716082524986,2.920581045014175,3.1123773998339055,0.0,0.0,0.0,2.9688915091243557,0.0,0.0,0.0,0.0,0.0,0.0,0.0,0.0,0.0,0.0,0.0,0.0,0.0,0.0,
0.594,2.8741273482698757,2.9210154934974355,3.112883920891338,0.0,0.0,0.0,2.9693422542195496,0.0,0.0,0.0,0.0,0.0,0.0,0.0,0.0,0.0,0.0,0.0,0.0,0.0,0.0,
0.6085,2.874549135352691,2.9214610663443805,3.1134034336912775,0.0,0.0,0.0,2.9698045451294495,0.0,0.0,0.0,0.0,0.0,0.0,0.0,0.0,0.0,0.0,0.0,0.0,0.0,0.0,
0.6229,2.8749784528490863,2.921914604617551,3.1139322565175944,0.0,0.0,0.0,2.9702751046614106,0.0,0.0,0.0,0.0,0.0,0.0,0.0,0.0,0.0,0.0,0.0,0.0,0.0,0.0,
0.6374,2.875421290955143,2.922382437242355,3.114477770563284,0.0,0.0,0.0,2.9707604995869272,0.0,0.0,0.0,0.0,0.0,0.0,0.0,0.0,0.0,0.0,0.0,0.0,0.0,0.0,
0.6519,2.875874733049415,2.922861483895063,3.115036386032965,0.0,0.0,0.0,2.9712575343258147,0.0,0.0,0.0,0.0,0.0,0.0,0.0,0.0,0.0,0.0,0.0,0.0,0.0,0.0,
0.6664,2.8763388082213823,2.9233517761382926,3.1156081415416264,0.0,0.0,0.0,2.9717662419671007,0.0,0.0,0.0,0.0,0.0,0.0,0.0,0.0,0.0,0.0,0.0,0.0,0.0,0.0,
0.6809,2.876813546310619,2.923853346350927,3.1161930767062267,0.0,0.0,0.0,2.9722866564559243,0.0,0.0,0.0,0.0,0.0,0.0,0.0,0.0,0.0,0.0,0.0,0.0,0.0,0.0,
0.6954,2.877298977913563,2.924366227735736,3.1167912321552347,0.0,0.0,0.0,2.972818812601511,0.0,0.0,0.0,0.0,0.0,0.0,0.0,0.0,0.0,0.0,0.0,0.0,0.0,0.0,
0.7099,2.877795134390578,2.9248904543271466,3.1174026495383713,0.0,0.0,0.0,2.9733627460853653,0.0,0.0,0.0,0.0,0.0,0.0,0.0,0.0,0.0,0.0,0.0,0.0,0.0,0.0,
0.7244,2.878302047873117,2.9254260609992615,3.1180273715367055,0.0,0.0,0.0,2.9739184934696947,0.0,0.0,0.0,0.0,0.0,0.0,0.0,0.0,0.0,0.0,0.0,0.0,0.0,0.0,
0.7388,2.8788161438766955,2.9259692717292474,3.118660995575383,0.0,0.0,0.0,2.9744821370604417,0.0,0.0,0.0,0.0,0.0,0.0,0.0,0.0,0.0,0.0,0.0,0.0,0.0,0.0,
0.7533,2.8793445961236217,2.9265276674761624,3.11931236650281,0.0,0.0,0.0,2.975061543367532,0.0,0.0,0.0,0.0,0.0,0.0,0.0,0.0,0.0,0.0,0.0,0.0,0.0,0.0,
0.7678,2.879883906231763,2.9270975527867025,3.119977176062074,0.0,0.0,0.0,2.9756528783601794,0.0,0.0,0.0,0.0,0.0,0.0,0.0,0.0,0.0,0.0,0.0,0.0,0.0,0.0,
0.7823,2.8804341094877643,2.9276789659725666,3.120655471158795,0.0,0.0,0.0,2.976256182206375,0.0,0.0,0.0,0.0,0.0,0.0,0.0,0.0,0.0,0.0,0.0,0.0,0.0,0.0,
0.7968,2.8809952419885416,2.928271946228692,3.121347299784692,0.0,0.0,0.0,2.976871496000642,0.0,0.0,0.0,0.0,0.0,0.0,0.0,0.0,0.0,0.0,0.0,0.0,0.0,0.0,
0.8113,2.8815673406498146,2.9288765336428004,3.1220527110294656,0.0,0.0,0.0,2.977498861774027,0.0,0.0,0.0,0.0,0.0,0.0,0.0,0.0,0.0,0.0,0.0,0.0,0.0,0.0,
0.8258,2.8821504432147855,2.9294927692050896,3.122771755093013,0.0,0.0,0.0,2.9781383225042966,0.0,0.0,0.0,0.0,0.0,0.0,0.0,0.0,0.0,0.0,0.0,0.0,0.0,0.0,
0.8403,2.88274458826319,2.930120694818214,3.1235044832980123,0.0,0.0,0.0,2.978789922126472,0.0,0.0,0.0,0.0,0.0,0.0,0.0,0.0,0.0,0.0,0.0,0.0,0.0,0.0,
0.8547,2.8833456032003175,2.930755901591512,3.124245752907417,0.0,0.0,0.0,2.979449085899749,0.0,0.0,0.0,0.0,0.0,0.0,0.0,0.0,0.0,0.0,0.0,0.0,0.0,0.0,
0.8692,2.88396187550228,2.9314072553455697,3.1250059126280516,0.0,0.0,0.0,2.9801250144919673,0.0,0.0,0.0,0.0,0.0,0.0,0.0,0.0,0.0,0.0,0.0,0.0,0.0,0.0,
0.8837,2.8845893108523084,2.9320704301256857,3.125779916943601,0.0,0.0,0.0,2.980813219307198,0.0,0.0,0.0,0.0,0.0,0.0,0.0,0.0,0.0,0.0,0.0,0.0,0.0,0.0,
0.8982,2.885227951264549,2.93274547158318,3.1265678217920305,0.0,0.0,0.0,2.9815137482132528,0.0,0.0,0.0,0.0,0.0,0.0,0.0,0.0,0.0,0.0,0.0,0.0,0.0,0.0,
0.9127,2.8858778396381344,2.933432426335865,3.1273696843019763,0.0,0.0,0.0,2.982226650091992,0.0,0.0,0.0,0.0,0.0,0.0,0.0,0.0,0.0,0.0,0.0,0.0,0.0,0.0,
0.9272,2.886539019767649,2.9341313419797386,3.128185562807412,0.0,0.0,0.0,2.9829519748516,0.0,0.0,0.0,0.0,0.0,0.0,0.0,0.0,0.0,0.0,0.0,0.0,0.0,0.0,
0.9417,2.887211536353842,2.934842267101015,3.1290155168627383,0.0,0.0,0.0,2.9836897734391985,0.0,0.0,0.0,0.0,0.0,0.0,0.0,0.0,0.0,0.0,0.0,0.0,0.0,0.0,
0.9562,2.8878954350147357,2.9355652512884083,3.1298596072583114,0.0,0.0,0.0,2.9844400978538186,0.0,0.0,0.0,0.0,0.0,0.0,0.0,0.0,0.0,0.0,0.0,0.0,0.0,0.0,
0.9706,2.8885859276915715,2.9362952339466064,3.130711928037703,0.0,0.0,0.0,2.985197696558627,0.0,0.0,0.0,0.0,0.0,0.0,0.0,0.0,0.0,0.0,0.0,0.0,0.0,0.0,
0.9851,2.88929265177134,2.937042405055694,3.1315843799319847,0.0,0.0,0.0,2.9859731455863394,0.0,0.0,0.0,0.0,0.0,0.0,0.0,0.0,0.0,0.0,0.0,0.0,0.0,0.0,
0.9996,2.890010900060526,2.937801789773229,3.1324711576639515,0.0,0.0,0.0,2.9867612824992356,0.0,0.0,0.0,0.0,0.0,0.0,0.0,0.0,0.0,0.0,0.0,0.0,0.0,0.0,
1.0141,2.8907407219554706,2.9385734418202487,3.1333723271215437,0.0,0.0,0.0,2.9875621636324206,0.0,0.0,0.0,0.0,0.0,0.0,0.0,0.0,0.0,0.0,0.0,0.0,0.0,0.0,
1.0286,2.8914821678292437,2.939357415986726,3.1342879555120744,0.0,0.0,0.0,2.9883758464426813,0.0,0.0,0.0,0.0,0.0,0.0,0.0,0.0,0.0,0.0,0.0,0.0,0.0,0.0,
1.0431,2.8922352890444234,2.9401537681458985,3.135218111380366,0.0,0.0,0.0,2.9892023895235624,0.0,0.0,0.0,0.0,0.0,0.0,0.0,0.0,0.0,0.0,0.0,0.0,0.0,0.0,
1.0576,2.8930001379663004,2.940962555268931,3.1361628646271447,0.0,0.0,0.0,2.990041852620792,0.0,0.0,0.0,0.0,0.0,0.0,0.0,0.0,0.0,0.0,0.0,0.0,0.0,0.0,
1.0721,2.8937767679763313,2.941783835440062,3.1371222865280894,0.0,0.0,0.0,2.990894296648161,0.0,0.0,0.0,0.0,0.0,0.0,0.0,0.0,0.0,0.0,0.0,0.0,0.0,0.0,
1.0865,2.8945597551366617,2.9426118741817513,3.138089680736871,0.0,0.0,0.0,2.9917537700184282,0.0,0.0,0.0,0.0,0.0,0.0,0.0,0.0,0.0,0.0,0.0,0.0,0.0,0.0,
1.101,2.8953600294027435,2.9434582320388247,3.1390785569385153,0.0,0.0,0.0,2.9926322727933616,0.0,0.0,0.0,0.0,0.0,0.0,0.0,0.0,0.0,0.0,0.0,0.0,0.0,0.0,
1.1155,2.896172250745118,2.9443172636033403,3.140082323542227,0.0,0.0,0.0,2.993523945963562,0.0,0.0,0.0,0.0,0.0,0.0,0.0,0.0,0.0,0.0,0.0,0.0,0.0,0.0,
1.13,2.8969964767443543,2.9451890315622413,3.1411010575129135,0.0,0.0,0.0,2.9944288552731693,0.0,0.0,0.0,0.0,0.0,0.0,0.0,0.0,0.0,0.0,0.0,0.0,0.0,0.0,
1.1445,2.8978327660698593,2.946073599796714,3.1421348372926885,0.0,0.0,0.0,2.995347067719754,0.0,0.0,0.0,0.0,0.0,0.0,0.0,0.0,0.0,0.0,0.0,0.0,0.0,0.0,
1.159,2.898681178495451,2.9469710333998274,3.1431837428228904,0.0,0.0,0.0,2.996278651572723,0.0,0.0,0.0,0.0,0.0,0.0,0.0,0.0,0.0,0.0,0.0,0.0,0.0,0.0,
1.1735,2.8995417749155035,2.947881398694451,3.1442478555667535,0.0,0.0,0.0,2.997223676392236,0.0,0.0,0.0,0.0,0.0,0.0,0.0,0.0,0.0,0.0,0.0,0.0,0.0,0.0,
1.1879,2.9004085556787507,2.9487983505485174,3.145319761821456,0.0,0.0,0.0,2.9981755560162413,0.0,0.0,0.0,0.0,0.0,0.0,0.0,0.0,0.0,0.0,0.0,0.0,0.0,0.0,
1.2024,2.901293622225454,2.9497346928432973,3.1464144332602864,0.0,0.0,0.0,2.9991475827763456,0.0,0.0,0.0,0.0,0.0,0.0,0.0,0.0,0.0,0.0,0.0,0.0,0.0,0.0,
1.2169,2.9021910618915836,2.950684172875868,3.1475245650691934,0.0,0.0,0.0,3.000133266612215,0.0,0.0,0.0,0.0,0.0,0.0,0.0,0.0,0.0,0.0,0.0,0.0,0.0,0.0,
1.2314,2.903100940214086,2.951646862068495,3.1486502450259053,0.0,0.0,0.0,3.0011326824361624,0.0,0.0,0.0,0.0,0.0,0.0,0.0,0.0,0.0,0.0,0.0,0.0,0.0,0.0,
1.2459,2.9040233239368023,2.9526228331701057,3.149791562552013,0.0,0.0,0.0,3.0021459065529736,0.0,0.0,0.0,0.0,0.0,0.0,0.0,0.0,0.0,0.0,0.0,0.0,0.0,0.0,
1.2604,2.9049582810291463,2.9536121602772734,3.150948608739317,0.0,0.0,0.0,3.0031730166819117,0.0,0.0,0.0,0.0,0.0,0.0,0.0,0.0,0.0,0.0,0.0,0.0,0.0,0.0,
1.2749,2.905905880705197,2.9546149188556052,3.152121476376835,0.0,0.0,0.0,3.0042140919792124,0.0,0.0,0.0,0.0,0.0,0.0,0.0,0.0,0.0,0.0,0.0,0.0,0.0,0.0,
1.2894,2.906866193443256,2.9556311857617343,3.153310259978533,0.0,0.0,0.0,3.0052692130611747,0.0,0.0,0.0,0.0,0.0,0.0,0.0,0.0,0.0,0.0,0.0,0.0,0.0,0.0,
1.3038,2.907832536041223,2.9566538901202284,3.1545066918190847,0.0,0.0,0.0,3.006331039326845,0.0,0.0,0.0,0.0,0.0,0.0,0.0,0.0,0.0,0.0,0.0,0.0,0.0,0.0,
1.3183,2.908818402567774,2.957697315402825,3.155727486488268,0.0,0.0,0.0,3.007414401486289,0.0,0.0,0.0,0.0,0.0,0.0,0.0,0.0,0.0,0.0,0.0,0.0,0.0,0.0,
1.3328,2.909817200862431,2.9587544875930725,3.1569644906059464,0.0,0.0,0.0,3.0085120596871504,0.0,0.0,0.0,0.0,0.0,0.0,0.0,0.0,0.0,0.0,0.0,0.0,0.0,0.0,
1.3473,2.9108290066570626,2.959825489332884,3.158217805864574,0.0,0.0,0.0,3.0096241006181734,0.0,0.0,0.0,0.0,0.0,0.0,0.0,0.0,0.0,0.0,0.0,0.0,0.0,0.0,
1.3618,2.9118538970532724,2.9609104047738093,3.1594875358309285,0.0,0.0,0.0,3.0107506125526697,0.0,0.0,0.0,0.0,0.0,0.0,0.0,0.0,0.0,0.0,0.0,0.0,0.0,0.0,
1.3763,2.912891950545149,2.962009319602574,3.1607737859784395,0.0,0.0,0.0,3.0118916853753874,0.0,0.0,0.0,0.0,0.0,0.0,0.0,0.0,0.0,0.0,0.0,0.0,0.0,0.0,
1.3908,2.913943247042563,2.963122321067408,3.1620766637202484,0.0,0.0,0.0,3.013047410610073,0.0,0.0,0.0,0.0,0.0,0.0,0.0,0.0,0.0,0.0,0.0,0.0,0.0,0.0,
1.4053,2.9150078678952367,2.964249498005012,3.1633962784432397,0.0,0.0,0.0,3.0142178814478293,0.0,0.0,0.0,0.0,0.0,0.0,0.0,0.0,0.0,0.0,0.0,0.0,0.0,0.0,
1.4197,2.916078415137409,2.9653830197862523,3.164723466601945,0.0,0.0,0.0,3.0153949671752023,0.0,0.0,0.0,0.0,0.0,0.0,0.0,0.0,0.0,0.0,0.0,0.0,0.0,0.0,
1.4342,2.9171698412953395,2.9665387213322383,3.166076774146988,0.0,0.0,0.0,3.0165951122581887,0.0,0.0,0.0,0.0,0.0,0.0,0.0,0.0,0.0,0.0,0.0,0.0,0.0,0.0,
1.4487,2.9182748441478807,2.967708874019517,3.1674471582257753,0.0,0.0,0.0,3.017810292131058,0.0,0.0,0.0,0.0,0.0,0.0,0.0,0.0,0.0,0.0,0.0,0.0,0.0,0.0,
1.4632,2.9193935110450697,2.968893573310722,3.1688347364634577,0.0,0.0,0.0,3.01904060693975,0.0,0.0,0.0,0.0,0.0,0.0,0.0,0.0,0.0,0.0,0.0,0.0,0.0,0.0,
1.4777,2.920525930905893,2.970092916402443,3.1702396286425056,0.0,0.0,0.0,3.0202861586502805,0.0,0.0,0.0,0.0,0.0,0.0,0.0,0.0,0.0,0.0,0.0,0.0,0.0,0.0,
1.4922,2.9216721942460984,2.9713070022567916,3.1716619567423847,0.0,0.0,0.0,3.021547051081758,0.0,0.0,0.0,0.0,0.0,0.0,0.0,0.0,0.0,0.0,0.0,0.0,0.0,0.0,
1.5067,2.922832393206886,2.972535931633697,3.1731018449803527,0.0,0.0,0.0,3.022823389940312,0.0,0.0,0.0,0.0,0.0,0.0,0.0,0.0,0.0,0.0,0.0,0.0,0.0,0.0,
1.5212,2.92400662158428,2.973779807124114,3.1745594198533427,0.0,0.0,0.0,3.0241152828539124,0.0,0.0,0.0,0.0,0.0,0.0,0.0,0.0,0.0,0.0,0.0,0.0,0.0,0.0,
1.5356,2.925186730728675,2.9750299991538887,3.17602457376925,0.0,0.0,0.0,3.0254137678839377,0.0,0.0,0.0,0.0,0.0,0.0,0.0,0.0,0.0,0.0,0.0,0.0,0.0,0.0,
1.5501,2.9263892076780023,2.97630397724033,3.177517786513301,0.0,0.0,0.0,3.026736990477211,0.0,0.0,0.0,0.0,0.0,0.0,0.0,0.0,0.0,0.0,0.0,0.0,0.0,0.0,
1.5646,2.9276060049780863,2.9775932197909545,3.179029078567258,0.0,0.0,0.0,3.028076101112099,0.0,0.0,0.0,0.0,0.0,0.0,0.0,0.0,0.0,0.0,0.0,0.0,0.0,0.0,
1.5791,2.9288372233414903,2.978897837057028,3.1805585859713514,0.0,0.0,0.0,3.0294312154566234,0.0,0.0,0.0,0.0,0.0,0.0,0.0,0.0,0.0,0.0,0.0,0.0,0.0,0.0,
1.5936,2.9300829652944174,2.980217941300384,3.1821064472720093,0.0,0.0,0.0,3.030802451288937,0.0,0.0,0.0,0.0,0.0,0.0,0.0,0.0,0.0,0.0,0.0,0.0,0.0,0.0,
1.6081,2.931343335210957,2.9815536468323285,3.1836728035711093,0.0,0.0,0.0,3.032189928538132,0.0,0.0,0.0,0.0,0.0,0.0,0.0,0.0,0.0,0.0,0.0,0.0,0.0,0.0,
1.6226,2.9326184393485404,2.9829050700536115,3.1852577985763513,0.0,0.0,0.0,3.0335937693261674,0.0,0.0,0.0,0.0,0.0,0.0,0.0,0.0,0.0,0.0,0.0,0.0,0.0,0.0,
1.6371,2.933908385884067,2.984272329495531,3.186861578653171,0.0,0.0,0.0,3.0350140980109237,0.0,0.0,0.0,0.0,0.0,0.0,0.0,0.0,0.0,0.0,0.0,0.0,0.0,0.0,
1.6515,2.9352042341884976,2.9856459515161777,3.1884730365617604,0.0,0.0,0.0,3.036441074088812,0.0,0.0,0.0,0.0,0.0,0.0,0.0,0.0,0.0,0.0,0.0,0.0,0.0,0.0,
1.666,2.9365240936331674,2.987045136406228,3.1901147046232237,0.0,0.0,0.0,3.03789464488754,0.0,0.0,0.0,0.0,0.0,0.0,0.0,0.0,0.0,0.0,0.0,0.0,0.0,0.0,
1.6805,2.9378591311067526,2.988460525451052,3.191775612263167,0.0,0.0,0.0,3.039365089606991,0.0,0.0,0.0,0.0,0.0,0.0,0.0,0.0,0.0,0.0,0.0,0.0,0.0,0.0,
1.695,2.939209462832456,2.9898922461221433,3.193455917006078,0.0,0.0,0.0,3.0408525419868924,0.0,0.0,0.0,0.0,0.0,0.0,0.0,0.0,0.0,0.0,0.0,0.0,0.0,0.0,
1.7095,2.9405752071493603,2.9913404282443956,3.1951557793155674,0.0,0.0,0.0,3.0423571382364414,0.0,0.0,0.0,0.0,0.0,0.0,0.0,0.0,0.0,0.0,0.0,0.0,0.0,0.0,
1.724,2.9419564845550488,2.9928052040445006,3.1968753626555717,0.0,0.0,0.0,3.04387901708504,0.0,0.0,0.0,0.0,0.0,0.0,0.0,0.0,0.0,0.0,0.0,0.0,0.0,0.0,
1.7385,2.943353417749388,2.9942867082008098,3.1986148335532834,0.0,0.0,0.0,3.045418319834494,0.0,0.0,0.0,0.0,0.0,0.0,0.0,0.0,0.0,0.0,0.0,0.0,0.0,0.0,
1.7529,2.9447563344956773,2.9957746862380183,3.200362157910008,0.0,0.0,0.0,3.0469643928812347,0.0,0.0,0.0,0.0,0.0,0.0,0.0,0.0,0.0,0.0,0.0,0.0,0.0,0.0,
1.7674,2.946184846251292,2.997289943443623,3.202141775966126,0.0,0.0,0.0,3.0485388552203467,0.0,0.0,0.0,0.0,0.0,0.0,0.0,0.0,0.0,0.0,0.0,0.0,0.0,0.0,
1.7819,2.9476293946637746,2.9988223472790576,3.2039417989715537,0.0,0.0,0.0,3.0501311803047955,0.0,0.0,0.0,0.0,0.0,0.0,0.0,0.0,0.0,0.0,0.0,0.0,0.0,0.0,
1.7964,2.9490901116886445,3.0003720427377316,3.2057624063492045,0.0,0.0,0.0,3.051741520258527,0.0,0.0,0.0,0.0,0.0,0.0,0.0,0.0,0.0,0.0,0.0,0.0,0.0,0.0,
1.8109,2.950567131721563,3.001939177535533,3.207603780927437,0.0,0.0,0.0,3.053370030061511,0.0,0.0,0.0,0.0,0.0,0.0,0.0,0.0,0.0,0.0,0.0,0.0,0.0,0.0,
1.8254,2.95206059165005,3.0035239021698983,3.209466109014714,0.0,0.0,0.0,3.0550168676115543,0.0,0.0,0.0,0.0,0.0,0.0,0.0,0.0,0.0,0.0,0.0,0.0,0.0,0.0,
1.8399,2.9535706309067944,3.0051263699805086,3.211349580476307,0.0,0.0,0.0,3.05668219378787,0.0,0.0,0.0,0.0,0.0,0.0,0.0,0.0,0.0,0.0,0.0,0.0,0.0,0.0,
1.8544,2.955097391524377,3.0067467372119103,3.2132543888134384,0.0,0.0,0.0,3.0583661725165747,0.0,0.0,0.0,0.0,0.0,0.0,0.0,0.0,0.0,0.0,0.0,0.0,0.0,0.0,
1.8688,2.9566303143990407,3.0083738013801105,3.21516737192588,0.0,0.0,0.0,3.0600571625683437,0.0,0.0,0.0,0.0,0.0,0.0,0.0,0.0,0.0,0.0,0.0,0.0,0.0,0.0,
1.8833,2.9581908366740306,3.01003032190614,3.2171152988762746,0.0,0.0,0.0,3.0617788191521487,0.0,0.0,0.0,0.0,0.0,0.0,0.0,0.0,0.0,0.0,0.0,0.0,0.0,0.0,
