energies(eV),real_xx,real_yy,real_zz,real_xy,real_yz,real_xz,real_ave,imag_xx,imag_yy,imag_zz,imag_xy,imag_yz,imag_xz,imag_ave,absorption_xx,absorption_yy,absorption_zz,absorption_xy,absorption_yz,absorption_xz,absorption_ave,band_gap
0.0,3.6632704246665417,3.2902371226298635,2.9779675409051802,0.0,0.0,0.0,3.3104916960671953,0.0,0.0,0.0,0.0,0.0,0.0,0.0,0.0,0.0,0.0,0.0,0.0,0.0,0.0,3.8499
0.0146,3.663279907743291,3.290243968200023,2.977971962026981,0.0,0.0,0.0,3.3104986126567653,0.0,0.0,0.0,0.0,0.0,0.0,0.0,0.0,0.0,0.0,0.0,0.0,0.0,0.0,
0.0292,3.6633083575469128,3.2902645053237447,2.9779852255763446,0.0,0.0,0.0,3.310519362815667,0.0,0.0,0.0,0.0,0.0,0.0,0.0,0.0,0.0,0.0,0.0,0.0,0.0,0.0,
0.0438,3.6633557757973825,3.2902987352408553,2.9780073321053493,0.0,0.0,0.0,3.310553947714529,0.0,0.0,0.0,0.0,0.0,0.0,0.0,0.0,0.0,0.0,0.0,0.0,0.0,0.0,
0.0584,3.6634221653617436,3.2903466600180553,2.9780382825341274,0.0,0.0,0.0,3.310602369304642,0.0,0.0,0.0,0.0,0.0,0.0,0.0,0.0,0.0,0.0,0.0,0.0,0.0,0.0,
0.073,3.6635075302544546,3.2904082825492003,2.9780780781510767,0.0,0.0,0.0,3.3106646303182443,0.0,0.0,0.0,0.0,0.0,0.0,0.0,0.0,0.0,0.0,0.0,0.0,0.0,0.0,
0.0876,3.6636118756381326,3.2904836065559815,2.978126720612962,0.0,0.0,0.0,3.310740734269025,0.0,0.0,0.0,0.0,0.0,0.0,0.0,0.0,0.0,0.0,0.0,0.0,0.0,0.0,
0.1021,3.6637342984892487,3.290571980165156,2.978183788066902,0.0,0.0,0.0,3.310830022240436,0.0,0.0,0.0,0.0,0.0,0.0,0.0,0.0,0.0,0.0,0.0,0.0,0.0,0.0,
0.1167,3.6638764948140685,3.290674627669103,2.978250070029519,0.0,0.0,0.0,3.3109337308375637,0.0,0.0,0.0,0.0,0.0,0.0,0.0,0.0,0.0,0.0,0.0,0.0,0.0,0.0,
0.1313,3.664037693953184,3.2907909927428873,2.978325205999826,0.0,0.0,0.0,3.3110512975652995,0.0,0.0,0.0,0.0,0.0,0.0,0.0,0.0,0.0,0.0,0.0,0.0,0.0,0.0,
0.1459,3.664217905664307,3.290921082422339,2.978409199108174,0.0,0.0,0.0,3.31118272906494,0.0,0.0,0.0,0.0,0.0,0.0,0.0,0.0,0.0,0.0,0.0,0.0,0.0,0.0,
0.1605,3.66441714085956,3.291064904576166,2.9785020528548225,0.0,0.0,0.0,3.311328032763516,0.0,0.0,0.0,0.0,0.0,0.0,0.0,0.0,0.0,0.0,0.0,0.0,0.0,0.0,
0.1751,3.664635411607117,3.291222467907559,2.9786037711103086,0.0,0.0,0.0,3.3114872168749954,0.0,0.0,0.0,0.0,0.0,0.0,0.0,0.0,0.0,0.0,0.0,0.0,0.0,0.0,
0.1897,3.664872731133404,3.2913937819558217,2.9787143581160826,0.0,0.0,0.0,3.3116602904017696,0.0,0.0,0.0,0.0,0.0,0.0,0.0,0.0,0.0,0.0,0.0,0.0,0.0,0.0,
0.2043,3.665129113825152,3.2915788570981928,2.978833818484925,0.0,0.0,0.0,3.3118472631360896,0.0,0.0,0.0,0.0,0.0,0.0,0.0,0.0,0.0,0.0,0.0,0.0,0.0,0.0,
0.2189,3.6654045752318534,3.2917777045519134,2.9789621572015634,0.0,0.0,0.0,3.3120481456617767,0.0,0.0,0.0,0.0,0.0,0.0,0.0,0.0,0.0,0.0,0.0,0.0,0.0,0.0,
0.2335,3.665699132068326,3.2919903363763052,2.979099379623325,0.0,0.0,0.0,3.312262949355985,0.0,0.0,0.0,0.0,0.0,0.0,0.0,0.0,0.0,0.0,0.0,0.0,0.0,0.0,
0.2481,3.6660128022175833,3.2922167654751506,2.9792454914807704,0.0,0.0,0.0,3.312491686391168,0.0,0.0,0.0,0.0,0.0,0.0,0.0,0.0,0.0,0.0,0.0,0.0,0.0,0.0,
0.2627,3.666345604733708,3.292457005599194,2.9794004988785225,0.0,0.0,0.0,3.3127343697371416,0.0,0.0,0.0,0.0,0.0,0.0,0.0,0.0,0.0,0.0,0.0,0.0,0.0,0.0,
0.2773,3.666697559845113,3.29271107134878,2.9795644082958948,0.0,0.0,0.0,3.3129910131632627,0.0,0.0,0.0,0.0,0.0,0.0,0.0,0.0,0.0,0.0,0.0,0.0,0.0,0.0,
0.2919,3.66706868895794,3.2929789781766856,2.979737226587831,0.0,0.0,0.0,3.313261631240819,0.0,0.0,0.0,0.0,0.0,0.0,0.0,0.0,0.0,0.0,0.0,0.0,0.0,0.0,
0.3064,3.6674562758513702,3.2932587653292025,2.97991768588715,0.0,0.0,0.0,3.3135442423559076,0.0,0.0,0.0,0.0,0.0,0.0,0.0,0.0,0.0,0.0,0.0,0.0,0.0,0.0,
0.321,3.6678656901844535,3.2935543090055037,2.9801082828517815,0.0,0.0,0.0,3.313842760680579,0.0,0.0,0.0,0.0,0.0,0.0,0.0,0.0,0.0,0.0,0.0,0.0,0.0,0.0,
0.3356,3.6682943496653473,3.293863745137539,2.980307811462339,0.0,0.0,0.0,3.3141553020884085,0.0,0.0,0.0,0.0,0.0,0.0,0.0,0.0,0.0,0.0,0.0,0.0,0.0,0.0,
0.3502,3.6687422804406444,3.2941870926135963,2.9805162800827683,0.0,0.0,0.0,3.3144818843790027,0.0,0.0,0.0,0.0,0.0,0.0,0.0,0.0,0.0,0.0,0.0,0.0,0.0,0.0,
0.3648,3.6692095098545967,3.294524371191112,2.9807336974574326,0.0,0.0,0.0,3.314822526167714,0.0,0.0,0.0,0.0,0.0,0.0,0.0,0.0,0.0,0.0,0.0,0.0,0.0,0.0,
0.3794,3.6696960664536538,3.2948756015005167,2.9809600727122527,0.0,0.0,0.0,3.315177246888808,0.0,0.0,0.0,0.0,0.0,0.0,0.0,0.0,0.0,0.0,0.0,0.0,0.0,0.0,
0.394,3.6702019799913566,3.2952408050492443,2.9811954153559057,0.0,0.0,0.0,3.3155460667988357,0.0,0.0,0.0,0.0,0.0,0.0,0.0,0.0,0.0,0.0,0.0,0.0,0.0,0.0,
0.4086,3.6707272814333,3.295620004226014,2.981439735280991,0.0,0.0,0.0,3.315929006980102,0.0,0.0,0.0,0.0,0.0,0.0,0.0,0.0,0.0,0.0,0.0,0.0,0.0,0.0,
0.4232,3.6712720029623895,3.2960132223052034,2.981693042765352,0.0,0.0,0.0,3.316326089344315,0.0,0.0,0.0,0.0,0.0,0.0,0.0,0.0,0.0,0.0,0.0,0.0,0.0,0.0,
0.4378,3.6718361779842885,3.2964204834514286,2.98195534847334,0.0,0.0,0.0,3.3167373366363524,0.0,0.0,0.0,0.0,0.0,0.0,0.0,0.0,0.0,0.0,0.0,0.0,0.0,0.0,
0.4524,3.6724198411330984,3.2968418127243186,2.9822266634572614,0.0,0.0,0.0,3.3171627724382264,0.0,0.0,0.0,0.0,0.0,0.0,0.0,0.0,0.0,0.0,0.0,0.0,0.0,0.0,
0.467,3.673023028277229,3.2972772360834735,2.982506999158716,0.0,0.0,0.0,3.3176024211731394,0.0,0.0,0.0,0.0,0.0,0.0,0.0,0.0,0.0,0.0,0.0,0.0,0.0,0.0,
0.4816,3.673645776525523,3.297726780393647,2.9827963674101863,0.0,0.0,0.0,3.318056308109785,0.0,0.0,0.0,0.0,0.0,0.0,0.0,0.0,0.0,0.0,0.0,0.0,0.0,0.0,
0.4962,3.6742881242335006,3.298190473430014,2.983094780436444,0.0,0.0,0.0,3.3185244593666527,0.0,0.0,0.0,0.0,0.0,0.0,0.0,0.0,0.0,0.0,0.0,0.0,0.0,0.0,
0.5107,3.674945509966034,3.298665022511856,2.983400114059246,0.0,0.0,0.0,3.319003548845712,0.0,0.0,0.0,0.0,0.0,0.0,0.0,0.0,0.0,0.0,0.0,0.0,0.0,0.0,
0.5253,3.675627041744145,3.299157002584722,2.9837165927156324,0.0,0.0,0.0,3.3195002123481667,0.0,0.0,0.0,0.0,0.0,0.0,0.0,0.0,0.0,0.0,0.0,0.0,0.0,0.0,
0.5399,3.676328295302801,3.2996632200161504,2.984042155098187,0.0,0.0,0.0,3.3200112234723793,0.0,0.0,0.0,0.0,0.0,0.0,0.0,0.0,0.0,0.0,0.0,0.0,0.0,0.0,
0.5545,3.6770493140435336,3.3001837062740997,2.9843768150147545,0.0,0.0,0.0,3.320536611777463,0.0,0.0,0.0,0.0,0.0,0.0,0.0,0.0,0.0,0.0,0.0,0.0,0.0,0.0,
0.5691,3.6777901426495854,3.3007184937666088,2.984720586673978,0.0,0.0,0.0,3.321076407696724,0.0,0.0,0.0,0.0,0.0,0.0,0.0,0.0,0.0,0.0,0.0,0.0,0.0,0.0,
0.5837,3.67855082709362,3.3012676158483134,2.985073484687153,0.0,0.0,0.0,3.321630642543029,0.0,0.0,0.0,0.0,0.0,0.0,0.0,0.0,0.0,0.0,0.0,0.0,0.0,0.0,
0.5983,3.6793314146456044,3.301831106827246,2.985435524070131,0.0,0.0,0.0,3.3221993485143266,0.0,0.0,0.0,0.0,0.0,0.0,0.0,0.0,0.0,0.0,0.0,0.0,0.0,0.0,
0.6129,3.6801319538810784,3.302409001971779,2.985806720245322,0.0,0.0,0.0,3.322782558699393,0.0,0.0,0.0,0.0,0.0,0.0,0.0,0.0,0.0,0.0,0.0,0.0,0.0,0.0,
0.6275,3.6809524946895205,3.3030013375177667,2.9861870890436797,0.0,0.0,0.0,3.323380307083656,0.0,0.0,0.0,0.0,0.0,0.0,0.0,0.0,0.0,0.0,0.0,0.0,0.0,0.0,
0.6421,3.681793088283003,3.3036081506759887,2.986576646706828,0.0,0.0,0.0,3.3239926285552728,0.0,0.0,0.0,0.0,0.0,0.0,0.0,0.0,0.0,0.0,0.0,0.0,0.0,0.0,
0.6567,3.682653787205138,3.3042294796397513,2.9869754098891876,0.0,0.0,0.0,3.3246195589113596,0.0,0.0,0.0,0.0,0.0,0.0,0.0,0.0,0.0,0.0,0.0,0.0,0.0,0.0,
0.6713,3.683534645340258,3.304865363592753,2.9873833956601583,0.0,0.0,0.0,3.3252611348643897,0.0,0.0,0.0,0.0,0.0,0.0,0.0,0.0,0.0,0.0,0.0,0.0,0.0,0.0,
0.6859,3.6844357179228204,3.3055158427171123,2.987800621506424,0.0,0.0,0.0,3.3259173940487856,0.0,0.0,0.0,0.0,0.0,0.0,0.0,0.0,0.0,0.0,0.0,0.0,0.0,0.0,
0.7004,3.685350681898253,3.3061763527402266,2.988224152682698,0.0,0.0,0.0,3.326583729107059,0.0,0.0,0.0,0.0,0.0,0.0,0.0,0.0,0.0,0.0,0.0,0.0,0.0,0.0,
0.715,3.6862922150882427,3.306856046105361,2.988659849220613,0.0,0.0,0.0,3.3272693701380724,0.0,0.0,0.0,0.0,0.0,0.0,0.0,0.0,0.0,0.0,0.0,0.0,0.0,0.0,
0.7296,3.6872541362168247,3.3075504609636632,2.9891048406910343,0.0,0.0,0.0,3.327969812623841,0.0,0.0,0.0,0.0,0.0,0.0,0.0,0.0,0.0,0.0,0.0,0.0,0.0,0.0,
0.7442,3.688236506008881,3.3082596415694563,2.9895591462706017,0.0,0.0,0.0,3.3286850979496463,0.0,0.0,0.0,0.0,0.0,0.0,0.0,0.0,0.0,0.0,0.0,0.0,0.0,0.0,
0.7588,3.6892393865904904,3.308983633219402,2.990022785565398,0.0,0.0,0.0,3.3294152684584297,0.0,0.0,0.0,0.0,0.0,0.0,0.0,0.0,0.0,0.0,0.0,0.0,0.0,0.0,
0.7734,3.690262841499878,3.309722482262033,2.9904957786136475,0.0,0.0,0.0,3.3301603674585194,0.0,0.0,0.0,0.0,0.0,0.0,0.0,0.0,0.0,0.0,0.0,0.0,0.0,0.0,
0.788,3.691306935698768,3.310476236107552,2.990978145888376,0.0,0.0,0.0,3.3309204392315657,0.0,0.0,0.0,0.0,0.0,0.0,0.0,0.0,0.0,0.0,0.0,0.0,0.0,0.0,
0.8026,3.692371735584013,3.31124494323785,2.9914699083001675,0.0,0.0,0.0,3.3316955290406765,0.0,0.0,0.0,0.0,0.0,0.0,0.0,0.0,0.0,0.0,0.0,0.0,0.0,0.0,
0.8172,3.693457308999387,3.3120286532169145,2.991971087200059,0.0,0.0,0.0,3.332485683138787,0.0,0.0,0.0,0.0,0.0,0.0,0.0,0.0,0.0,0.0,0.0,0.0,0.0,0.0,
0.8318,3.6945637252478143,3.3128274167013,2.9924817043823646,0.0,0.0,0.0,3.3332909487771594,0.0,0.0,0.0,0.0,0.0,0.0,0.0,0.0,0.0,0.0,0.0,0.0,0.0,0.0,
0.8464,3.6956910551039237,3.313641285451096,2.9930017820876875,0.0,0.0,0.0,3.334111374214236,0.0,0.0,0.0,0.0,0.0,0.0,0.0,0.0,0.0,0.0,0.0,0.0,0.0,0.0,
0.861,3.696839370826705,3.314470312341032,2.993531343005963,0.0,0.0,0.0,3.334947008724567,0.0,0.0,0.0,0.0,0.0,0.0,0.0,0.0,0.0,0.0,0.0,0.0,0.0,0.0,
0.8756,3.6980087461726683,3.3153145513719156,2.9940704102795075,0.0,0.0,0.0,3.3357979026080304,0.0,0.0,0.0,0.0,0.0,0.0,0.0,0.0,0.0,0.0,0.0,0.0,0.0,0.0,
0.8902,3.6991992564092877,3.3161740576824323,2.9946190075062926,0.0,0.0,0.0,3.3366641071993377,0.0,0.0,0.0,0.0,0.0,0.0,0.0,0.0,0.0,0.0,0.0,0.0,0.0,0.0,
0.9047,3.700402606542074,3.3170428433278847,2.9951733032391887,0.0,0.0,0.0,3.337539584369716,0.0,0.0,0.0,0.0,0.0,0.0,0.0,0.0,0.0,0.0,0.0,0.0,0.0,0.0,
0.9193,3.701635472382855,3.3179329486778126,2.99574096731421,0.0,0.0,0.0,3.3384364627916256,0.0,0.0,0.0,0.0,0.0,0.0,0.0,0.0,0.0,0.0,0.0,0.0,0.0,0.0,
0.9339,3.7028897075683926,3.3188384932664956,2.9963182347300807,0.0,0.0,0.0,3.3393488118549897,0.0,0.0,0.0,0.0,0.0,0.0,0.0,0.0,0.0,0.0,0.0,0.0,0.0,0.0,
0.9485,3.704165393539354,3.319759536899119,2.996905130937197,0.0,0.0,0.0,3.340276687125223,0.0,0.0,0.0,0.0,0.0,0.0,0.0,0.0,0.0,0.0,0.0,0.0,0.0,0.0,
0.9631,3.705462613319158,3.3206961405818327,2.997501681858498,0.0,0.0,0.0,3.3412201452531627,0.0,0.0,0.0,0.0,0.0,0.0,0.0,0.0,0.0,0.0,0.0,0.0,0.0,0.0,
0.9777,3.706781451529222,3.321648366535427,2.9981079138931452,0.0,0.0,0.0,3.3421792439859317,0.0,0.0,0.0,0.0,0.0,0.0,0.0,0.0,0.0,0.0,0.0,0.0,0.0,0.0,
0.9923,3.7081219944047645,3.3226162782092596,2.9987238539202004,0.0,0.0,0.0,3.3431540421780745,0.0,0.0,0.0,0.0,0.0,0.0,0.0,0.0,0.0,0.0,0.0,0.0,0.0,0.0,
1.0069,3.709484329810898,3.3235999402955905,2.999349529302433,0.0,0.0,0.0,3.344144599802974,0.0,0.0,0.0,0.0,0.0,0.0,0.0,0.0,0.0,0.0,0.0,0.0,0.0,0.0,
1.0215,3.7108685472589764,3.3245994187441674,2.999984967890139,0.0,0.0,0.0,3.3451509779644275,0.0,0.0,0.0,0.0,0.0,0.0,0.0,0.0,0.0,0.0,0.0,0.0,0.0,0.0,
1.0361,3.712274737923547,3.3256147807773018,3.0006301980251493,0.0,0.0,0.0,3.346173238908666,0.0,0.0,0.0,0.0,0.0,0.0,0.0,0.0,0.0,0.0,0.0,0.0,0.0,0.0,
1.0507,3.713702994659434,3.326646094905234,3.0012852485448236,0.0,0.0,0.0,3.347211446036497,0.0,0.0,0.0,0.0,0.0,0.0,0.0,0.0,0.0,0.0,0.0,0.0,0.0,0.0,
1.0653,3.7151534120193217,3.3276934309418422,3.0019501487861744,0.0,0.0,0.0,3.3482656639157793,0.0,0.0,0.0,0.0,0.0,0.0,0.0,0.0,0.0,0.0,0.0,0.0,0.0,0.0,
1.0799,3.716626086271773,3.328756860020833,3.0026249285900843,0.0,0.0,0.0,3.34933595829423,0.0,0.0,0.0,0.0,0.0,0.0,0.0,0.0,0.0,0.0,0.0,0.0,0.0,0.0,
1.0945,3.7181211154195553,3.329836454612245,3.003309618305547,0.0,0.0,0.0,3.350422396112449,0.0,0.0,0.0,0.0,0.0,0.0,0.0,0.0,0.0,0.0,0.0,0.0,0.0,0.0,
1.109,3.719628128892444,3.3309247274251836,3.003999457169891,0.0,0.0,0.0,3.351517437829173,0.0,0.0,0.0,0.0,0.0,0.0,0.0,0.0,0.0,0.0,0.0,0.0,0.0,0.0,
1.1236,3.7211680140262358,3.3320367638797226,3.004703991399857,0.0,0.0,0.0,3.3526362564352716,0.0,0.0,0.0,0.0,0.0,0.0,0.0,0.0,0.0,0.0,0.0,0.0,0.0,0.0,
1.1382,3.722730557944447,3.333165190916879,3.005418529461312,0.0,0.0,0.0,3.3537714261075458,0.0,0.0,0.0,0.0,0.0,0.0,0.0,0.0,0.0,0.0,0.0,0.0,0.0,0.0,
1.1528,3.724315865765796,3.334310086515764,3.006143103777007,0.0,0.0,0.0,3.3549230186861894,0.0,0.0,0.0,0.0,0.0,0.0,0.0,0.0,0.0,0.0,0.0,0.0,0.0,0.0,
1.1674,3.725924044440949,3.335471530080552,3.0068777473005883,0.0,0.0,0.0,3.3560911072740303,0.0,0.0,0.0,0.0,0.0,0.0,0.0,0.0,0.0,0.0,0.0,0.0,0.0,0.0,
1.182,3.7275552027734147,3.3366496024595573,3.0076224935214575,0.0,0.0,0.0,3.3572757662514765,0.0,0.0,0.0,0.0,0.0,0.0,0.0,0.0,0.0,0.0,0.0,0.0,0.0,0.0,
1.1966,3.729209451440959,3.3378443859647167,3.008377376469804,0.0,0.0,0.0,3.3584770712918264,0.0,0.0,0.0,0.0,0.0,0.0,0.0,0.0,0.0,0.0,0.0,0.0,0.0,0.0,
1.2112,3.730886903017238,3.339055964391635,3.0091424307215915,0.0,0.0,0.0,3.3596950993768218,0.0,0.0,0.0,0.0,0.0,0.0,0.0,0.0,0.0,0.0,0.0,0.0,0.0,0.0,
1.2258,3.732587671994163,3.3402844230400586,3.009917691403671,0.0,0.0,0.0,3.360929928812631,0.0,0.0,0.0,0.0,0.0,0.0,0.0,0.0,0.0,0.0,0.0,0.0,0.0,0.0,
1.2404,3.7343118748046127,3.341529848734854,3.01070319419909,0.0,0.0,0.0,3.362181639246186,0.0,0.0,0.0,0.0,0.0,0.0,0.0,0.0,0.0,0.0,0.0,0.0,0.0,0.0,
1.255,3.7360596298455975,3.3427923298475024,3.0114989753524593,0.0,0.0,0.0,3.3634503116818535,0.0,0.0,0.0,0.0,0.0,0.0,0.0,0.0,0.0,0.0,0.0,0.0,0.0,0.0,
1.2696,3.7378310575019738,3.344071956318051,3.0123050716753683,0.0,0.0,0.0,3.364736028498464,0.0,0.0,0.0,0.0,0.0,0.0,0.0,0.0,0.0,0.0,0.0,0.0,0.0,0.0,
1.2842,3.739626280170704,3.345368819677733,3.0131215205519726,0.0,0.0,0.0,3.366038873466803,0.0,0.0,0.0,0.0,0.0,0.0,0.0,0.0,0.0,0.0,0.0,0.0,0.0,0.0,
1.2987,3.741432880768521,3.3466739525911575,3.0139426612342133,0.0,0.0,0.0,3.3673498315312975,0.0,0.0,0.0,0.0,0.0,0.0,0.0,0.0,0.0,0.0,0.0,0.0,0.0,0.0,
1.3133,3.7432759036920484,3.3480054511289956,3.0147798581252596,0.0,0.0,0.0,3.3686870709821015,0.0,0.0,0.0,0.0,0.0,0.0,0.0,0.0,0.0,0.0,0.0,0.0,0.0,0.0,
1.3279,3.745143100253231,3.3493544702636613,3.015627522945361,0.0,0.0,0.0,3.3700416978207515,0.0,0.0,0.0,0.0,0.0,0.0,0.0,0.0,0.0,0.0,0.0,0.0,0.0,0.0,
1.3425,3.7470346011352746,3.3507211081156614,3.0164856954229413,0.0,0.0,0.0,3.3714138015579596,0.0,0.0,0.0,0.0,0.0,0.0,0.0,0.0,0.0,0.0,0.0,0.0,0.0,0.0,
1.3571,3.748950539162374,3.3521054645175914,3.017354415888536,0.0,0.0,0.0,3.3728034731895007,0.0,0.0,0.0,0.0,0.0,0.0,0.0,0.0,0.0,0.0,0.0,0.0,0.0,0.0,
1.3717,3.750891049326914,3.3535076410400544,3.0182337252810783,0.0,0.0,0.0,3.374210805216016,0.0,0.0,0.0,0.0,0.0,0.0,0.0,0.0,0.0,0.0,0.0,0.0,0.0,0.0,
1.3863,3.75285626881777,3.354927741018409,3.0191236651543236,0.0,0.0,0.0,3.3756358916635008,0.0,0.0,0.0,0.0,0.0,0.0,0.0,0.0,0.0,0.0,0.0,0.0,0.0,0.0,
1.4009,3.754846337048782,3.35636586957993,3.0200242776833632,0.0,0.0,0.0,3.3770788281040254,0.0,0.0,0.0,0.0,0.0,0.0,0.0,0.0,0.0,0.0,0.0,0.0,0.0,0.0,
1.4155,3.7568613956881403,3.357822133671876,3.0209356056712866,0.0,0.0,0.0,3.378539711677101,0.0,0.0,0.0,0.0,0.0,0.0,0.0,0.0,0.0,0.0,0.0,0.0,0.0,0.0,
1.4301,3.758901588688066,3.3592966420900434,3.021857692555972,0.0,0.0,0.0,3.3800186411113606,0.0,0.0,0.0,0.0,0.0,0.0,0.0,0.0,0.0,0.0,0.0,0.0,0.0,0.0,
1.4447,3.760967062315473,3.3607895055081354,3.0227905824170085,0.0,0.0,0.0,3.381515716746872,0.0,0.0,0.0,0.0,0.0,0.0,0.0,0.0,0.0,0.0,0.0,0.0,0.0,0.0,
1.4593,3.763057965182974,3.3623008365078046,3.0237343199827746,0.0,0.0,0.0,3.3830310405578508,0.0,0.0,0.0,0.0,0.0,0.0,0.0,0.0,0.0,0.0,0.0,0.0,0.0,0.0,
1.4739,3.765174448280877,3.363830749609476,3.024688950637613,0.0,0.0,0.0,3.3845647161759884,0.0,0.0,0.0,0.0,0.0,0.0,0.0,0.0,0.0,0.0,0.0,0.0,0.0,0.0,
1.4885,3.767316665009434,3.365379361303861,3.025654520429213,0.0,0.0,0.0,3.386116848914169,0.0,0.0,0.0,0.0,0.0,0.0,0.0,0.0,0.0,0.0,0.0,0.0,0.0,0.0,
1.503,3.7694698327580833,3.36693598999882,3.026624349866965,0.0,0.0,0.0,3.387676724207956,0.0,0.0,0.0,0.0,0.0,0.0,0.0,0.0,0.0,0.0,0.0,0.0,0.0,0.0,
1.5176,3.7716638078020077,3.3685222262701253,3.027611863033132,0.0,0.0,0.0,3.389265965701755,0.0,0.0,0.0,0.0,0.0,0.0,0.0,0.0,0.0,0.0,0.0,0.0,0.0,0.0,
1.5322,3.7738839903628913,3.3701275219086173,3.028610457203124,0.0,0.0,0.0,3.3908739898248776,0.0,0.0,0.0,0.0,0.0,0.0,0.0,0.0,0.0,0.0,0.0,0.0,0.0,0.0,
1.5468,3.776130543802582,3.3717520016032076,3.029620181149648,0.0,0.0,0.0,3.392500908851812,0.0,0.0,0.0,0.0,0.0,0.0,0.0,0.0,0.0,0.0,0.0,0.0,0.0,0.0,
1.5614,3.778403634065781,3.373395792182683,3.0306410843476312,0.0,0.0,0.0,3.394146836865365,0.0,0.0,0.0,0.0,0.0,0.0,0.0,0.0,0.0,0.0,0.0,0.0,0.0,0.0,
1.576,3.7807034297169353,3.3750590226524615,3.0316732169826346,0.0,0.0,0.0,3.39581188978401,0.0,0.0,0.0,0.0,0.0,0.0,0.0,0.0,0.0,0.0,0.0,0.0,0.0,0.0,
1.5906,3.783030101977904,3.3767418242319382,3.032716629959146,0.0,0.0,0.0,3.397496185389663,0.0,0.0,0.0,0.0,0.0,0.0,0.0,0.0,0.0,0.0,0.0,0.0,0.0,0.0,
1.6052,3.7853838247663467,3.378444330392986,3.033771374909263,0.0,0.0,0.0,3.3991998433561985,0.0,0.0,0.0,0.0,0.0,0.0,0.0,0.0,0.0,0.0,0.0,0.0,0.0,0.0,
1.6198,3.7877647747350625,3.380166676899321,3.0348375042014792,0.0,0.0,0.0,3.400922985278621,0.0,0.0,0.0,0.0,0.0,0.0,0.0,0.0,0.0,0.0,0.0,0.0,0.0,0.0,
1.6344,3.790173131312113,3.3819090018469544,3.035915070949586,0.0,0.0,0.0,3.4026657347028846,0.0,0.0,0.0,0.0,0.0,0.0,0.0,0.0,0.0,0.0,0.0,0.0,0.0,0.0,
1.649,3.792609076741778,3.383671445705598,3.03700412902191,0.0,0.0,0.0,3.404428217156429,0.0,0.0,0.0,0.0,0.0,0.0,0.0,0.0,0.0,0.0,0.0,0.0,0.0,0.0,
1.6636,3.7950727961264223,3.385454151361159,3.0381047330505213,0.0,0.0,0.0,3.4062105601793675,0.0,0.0,0.0,0.0,0.0,0.0,0.0,0.0,0.0,0.0,0.0,0.0,0.0,0.0,
1.6782,3.7975644774693156,3.3872572641593477,3.0392169384408487,0.0,0.0,0.0,3.408012893356504,0.0,0.0,0.0,0.0,0.0,0.0,0.0,0.0,0.0,0.0,0.0,0.0,0.0,0.0,
1.6928,3.800084311718317,3.3890809319503985,3.0403408013813027,0.0,0.0,0.0,3.409835348350006,0.0,0.0,0.0,0.0,0.0,0.0,0.0,0.0,0.0,0.0,0.0,0.0,0.0,0.0,
1.7073,3.802614942658677,3.3909126016744175,3.041468560951791,0.0,0.0,0.0,3.411665368428295,0.0,0.0,0.0,0.0,0.0,0.0,0.0,0.0,0.0,0.0,0.0,0.0,0.0,0.0,
1.7219,3.8051914713835218,3.392777689858391,3.0426158299089816,0.0,0.0,0.0,3.4135283303836315,0.0,0.0,0.0,0.0,0.0,0.0,0.0,0.0,0.0,0.0,0.0,0.0,0.0,0.0,
1.7365,3.807796742596112,3.39466379100248,3.043774929375666,0.0,0.0,0.0,3.4154118209914195,0.0,0.0,0.0,0.0,0.0,0.0,0.0,0.0,0.0,0.0,0.0,0.0,0.0,0.0,
1.7511,3.8104309594574195,3.3965710634271016,3.0449459187677936,0.0,0.0,0.0,3.4173159805507716,0.0,0.0,0.0,0.0,0.0,0.0,0.0,0.0,0.0,0.0,0.0,0.0,0.0,0.0,
1.7657,3.8130943283058807,3.3984996681984865,3.04612885833582,0.0,0.0,0.0,3.419240951613396,0.0,0.0,0.0,0.0,0.0,0.0,0.0,0.0,0.0,0.0,0.0,0.0,0.0,0.0,
1.7803,3.8157870587071616,3.4004497691808115,3.047323809175754,0.0,0.0,0.0,3.4211868790212425,0.0,0.0,0.0,0.0,0.0,0.0,0.0,0.0,0.0,0.0,0.0,0.0,0.0,0.0,
1.7949,3.818509363504957,3.4024215330898477,3.048530833240288,0.0,0.0,0.0,3.423153909945031,0.0,0.0,0.0,0.0,0.0,0.0,0.0,0.0,0.0,0.0,0.0,0.0,0.0,0.0,
1.8095,3.821261458873027,3.404415129547894,3.0497499933501993,0.0,0.0,0.0,3.4251421939237066,0.0,0.0,0.0,0.0,0.0,0.0,0.0,0.0,0.0,0.0,0.0,0.0,0.0,0.0,
1.8241,3.824043564368271,3.4064307311402993,3.050981353206075,0.0,0.0,0.0,3.4271518829048815,0.0,0.0,0.0,0.0,0.0,0.0,0.0,0.0,0.0,0.0,0.0,0.0,0.0,0.0,
1.8387,3.8268559029849807,3.4084685134734274,3.052224977400192,0.0,0.0,0.0,3.4291831312862,0.0,0.0,0.0,0.0,0.0,0.0,0.0,0.0,0.0,0.0,0.0,0.0,0.0,0.0,
1.8533,3.829698701210461,3.4105286552342076,3.0534809314286533,0.0,0.0,0.0,3.431236095957774,0.0,0.0,0.0,0.0,0.0,0.0,0.0,0.0,0.0,0.0,0.0,0.0,0.0,0.0,
1.8679,3.8325721890816515,3.4126113382512955,3.0547492817037813,0.0,0.0,0.0,3.4333109363455763,0.0,0.0,0.0,0.0,0.0,0.0,0.0,0.0,0.0,0.0,0.0,0.0,0.0,0.0,
1.8825,3.8354766002432505,3.414716747557995,3.0560300955668804,0.0,0.0,0.0,3.435407814456042,0.0,0.0,0.0,0.0,0.0,0.0,0.0,0.0,0.0,0.0,0.0,0.0,0.0,0.0,
1.897,3.8383919588249964,3.4168304155274667,3.057314539989315,0.0,0.0,0.0,3.437512304780593,0.0,0.0,0.0,0.0,0.0,0.0,0.0,0.0,0.0,0.0,0.0,0.0,0.0,0.0,
