energies(eV),real_xx,real_yy,real_zz,real_xy,real_yz,real_xz,real_ave,imag_xx,imag_yy,imag_zz,imag_xy,imag_yz,imag_xz,imag_ave,absorption_xx,absorption_yy,absorption_zz,absorption_xy,absorption_yz,absorption_xz,absorption_ave,band_gap
0.0,4.273643575520539,4.273643575520539,3.723430471018011,0.0,0.0,0.0,4.090239207353029,0.0,0.0,0.0,0.0,0.0,0.0,0.0,0.0,0.0,0.0,0.0,0.0,0.0,0.0,2.6027
0.014,4.273660910935234,4.273660910935234,3.7234436145005447,0.0,0.0,0.0,4.090255145457005,0.0,0.0,0.0,0.0,0.0,0.0,0.0,0.0,0.0,0.0,0.0,0.0,0.0,0.0,
0.028,4.273712918822145,4.273712918822145,3.7234830460324324,0.0,0.0,0.0,4.090302961225574,0.0,0.0,0.0,0.0,0.0,0.0,0.0,0.0,0.0,0.0,0.0,0.0,0.0,0.0,
0.042,4.273799604110138,4.273799604110138,3.723548768866815,0.0,0.0,0.0,4.09038265902903,0.0,0.0,0.0,0.0,0.0,0.0,0.0,0.0,0.0,0.0,0.0,0.0,0.0,0.0,
0.056,4.273920975015539,4.273920975015539,3.7236407884265352,0.0,0.0,0.0,4.090494246152538,0.0,0.0,0.0,0.0,0.0,0.0,0.0,0.0,0.0,0.0,0.0,0.0,0.0,0.0,
0.07,4.274077043044526,4.274077043044526,3.723759112305166,0.0,0.0,0.0,4.090637732798073,0.0,0.0,0.0,0.0,0.0,0.0,0.0,0.0,0.0,0.0,0.0,0.0,0.0,0.0,
0.084,4.274267822996332,4.274267822996332,3.72390375026903,0.0,0.0,0.0,4.090813132087231,0.0,0.0,0.0,0.0,0.0,0.0,0.0,0.0,0.0,0.0,0.0,0.0,0.0,0.0,
0.098,4.274493332967506,4.274493332967506,3.724074714259267,0.0,0.0,0.0,4.091020460064759,0.0,0.0,0.0,0.0,0.0,0.0,0.0,0.0,0.0,0.0,0.0,0.0,0.0,0.0,
0.112,4.274753594357026,4.274753594357026,3.7242720183947364,0.0,0.0,0.0,4.09125973570293,0.0,0.0,0.0,0.0,0.0,0.0,0.0,0.0,0.0,0.0,0.0,0.0,0.0,0.0,
0.126,4.275048631872438,4.275048631872438,3.724495678975266,0.0,0.0,0.0,4.091530980906714,0.0,0.0,0.0,0.0,0.0,0.0,0.0,0.0,0.0,0.0,0.0,0.0,0.0,0.0,
0.14,4.275378473536921,4.275378473536921,3.724745714485369,0.0,0.0,0.0,4.091834220519737,0.0,0.0,0.0,0.0,0.0,0.0,0.0,0.0,0.0,0.0,0.0,0.0,0.0,0.0,
0.154,4.275743150697203,4.275743150697203,3.7250221455986594,0.0,0.0,0.0,4.0921694823310215,0.0,0.0,0.0,0.0,0.0,0.0,0.0,0.0,0.0,0.0,0.0,0.0,0.0,0.0,
0.168,4.27614269803261,4.27614269803261,3.7253249951825667,0.0,0.0,0.0,4.092536797082595,0.0,0.0,0.0,0.0,0.0,0.0,0.0,0.0,0.0,0.0,0.0,0.0,0.0,0.0,
0.182,4.276577153564919,4.276577153564919,3.725654288303732,0.0,0.0,0.0,4.092936198477856,0.0,0.0,0.0,0.0,0.0,0.0,0.0,0.0,0.0,0.0,0.0,0.0,0.0,0.0,
0.196,4.277046558669317,4.277046558669317,3.726010052233785,0.0,0.0,0.0,4.0933677231908066,0.0,0.0,0.0,0.0,0.0,0.0,0.0,0.0,0.0,0.0,0.0,0.0,0.0,0.0,
0.21,4.277550958086199,4.277550958086199,3.7263923164557884,0.0,0.0,0.0,4.093831410876062,0.0,0.0,0.0,0.0,0.0,0.0,0.0,0.0,0.0,0.0,0.0,0.0,0.0,0.0,
0.224,4.278090399934044,4.278090399934044,3.7268011126711,0.0,0.0,0.0,4.094327304179729,0.0,0.0,0.0,0.0,0.0,0.0,0.0,0.0,0.0,0.0,0.0,0.0,0.0,0.0,
0.238,4.278664935723253,4.278664935723253,3.7272364748066757,0.0,0.0,0.0,4.09485544875106,0.0,0.0,0.0,0.0,0.0,0.0,0.0,0.0,0.0,0.0,0.0,0.0,0.0,0.0,
0.252,4.279274620370979,4.279274620370979,3.727698439023203,0.0,0.0,0.0,4.095415893255054,0.0,0.0,0.0,0.0,0.0,0.0,0.0,0.0,0.0,0.0,0.0,0.0,0.0,0.0,
0.266,4.279919512216921,4.279919512216921,3.728187043723503,0.0,0.0,0.0,4.096008689385782,0.0,0.0,0.0,0.0,0.0,0.0,0.0,0.0,0.0,0.0,0.0,0.0,0.0,0.0,
0.28,4.280599673040345,4.280599673040345,3.728702329561423,0.0,0.0,0.0,4.096633891880704,0.0,0.0,0.0,0.0,0.0,0.0,0.0,0.0,0.0,0.0,0.0,0.0,0.0,0.0,
0.294,4.2813151680777555,4.2813151680777555,3.7292443394515606,0.0,0.0,0.0,4.097291558535691,0.0,0.0,0.0,0.0,0.0,0.0,0.0,0.0,0.0,0.0,0.0,0.0,0.0,0.0,
0.308,4.2820660660419465,4.2820660660419465,3.7298131185793015,0.0,0.0,0.0,4.097981750221065,0.0,0.0,0.0,0.0,0.0,0.0,0.0,0.0,0.0,0.0,0.0,0.0,0.0,0.0,
0.3219,4.282846696223042,4.282846696223042,3.7304043649498433,0.0,0.0,0.0,4.098699252465309,0.0,0.0,0.0,0.0,0.0,0.0,0.0,0.0,0.0,0.0,0.0,0.0,0.0,0.0,
0.3359,4.283668365973677,4.283668365973677,3.7310266351607617,0.0,0.0,0.0,4.099454455702705,0.0,0.0,0.0,0.0,0.0,0.0,0.0,0.0,0.0,0.0,0.0,0.0,0.0,0.0,
0.3499,4.284525665273357,4.284525665273357,3.731675823519414,0.0,0.0,0.0,4.100242384688709,0.0,0.0,0.0,0.0,0.0,0.0,0.0,0.0,0.0,0.0,0.0,0.0,0.0,0.0,
0.3639,4.285418676924873,4.285418676924873,3.732351984389889,0.0,0.0,0.0,4.101063112746545,0.0,0.0,0.0,0.0,0.0,0.0,0.0,0.0,0.0,0.0,0.0,0.0,0.0,0.0,
0.3779,4.286347487317704,4.286347487317704,3.7330551744658598,0.0,0.0,0.0,4.101916716367089,0.0,0.0,0.0,0.0,0.0,0.0,0.0,0.0,0.0,0.0,0.0,0.0,0.0,0.0,
0.3919,4.287312186453478,4.287312186453478,3.7337854527840606,0.0,0.0,0.0,4.102803275230339,0.0,0.0,0.0,0.0,0.0,0.0,0.0,0.0,0.0,0.0,0.0,0.0,0.0,0.0,
0.4059,4.2883128679724685,4.2883128679724685,3.7345428807383567,0.0,0.0,0.0,4.103722872227764,0.0,0.0,0.0,0.0,0.0,0.0,0.0,0.0,0.0,0.0,0.0,0.0,0.0,0.0,
0.4199,4.2893496291813396,4.2893496291813396,3.735327522094507,0.0,0.0,0.0,4.104675593485729,0.0,0.0,0.0,0.0,0.0,0.0,0.0,0.0,0.0,0.0,0.0,0.0,0.0,0.0,
0.4339,4.290422571081974,4.290422571081974,3.7361394430052015,0.0,0.0,0.0,4.105661528389716,0.0,0.0,0.0,0.0,0.0,0.0,0.0,0.0,0.0,0.0,0.0,0.0,0.0,0.0,
0.4479,4.291531798401612,4.291531798401612,3.7369787120262576,0.0,0.0,0.0,4.106680769609827,0.0,0.0,0.0,0.0,0.0,0.0,0.0,0.0,0.0,0.0,0.0,0.0,0.0,0.0,
0.4619,4.292677419623992,4.292677419623992,3.7378454001327954,0.0,0.0,0.0,4.107733413126926,0.0,0.0,0.0,0.0,0.0,0.0,0.0,0.0,0.0,0.0,0.0,0.0,0.0,0.0,
0.4759,4.293859547021919,4.293859547021919,3.7387395807365613,0.0,0.0,0.0,4.108819558260133,0.0,0.0,0.0,0.0,0.0,0.0,0.0,0.0,0.0,0.0,0.0,0.0,0.0,0.0,
0.4899,4.295078296690953,4.295078296690953,3.7396613297035346,0.0,0.0,0.0,4.1099393076951465,0.0,0.0,0.0,0.0,0.0,0.0,0.0,0.0,0.0,0.0,0.0,0.0,0.0,0.0,
0.5039,4.29633378858443,4.29633378858443,3.740610725372442,0.0,0.0,0.0,4.111092767513767,0.0,0.0,0.0,0.0,0.0,0.0,0.0,0.0,0.0,0.0,0.0,0.0,0.0,0.0,
0.5179,4.297626146549758,4.297626146549758,3.741587848573699,0.0,0.0,0.0,4.112280047224405,0.0,0.0,0.0,0.0,0.0,0.0,0.0,0.0,0.0,0.0,0.0,0.0,0.0,0.0,
0.5319,4.298955498365988,4.298955498365988,3.7425927826490675,0.0,0.0,0.0,4.113501259793681,0.0,0.0,0.0,0.0,0.0,0.0,0.0,0.0,0.0,0.0,0.0,0.0,0.0,0.0,
0.5459,4.300321975782758,4.300321975782758,3.743625613472143,0.0,0.0,0.0,4.11475652167922,0.0,0.0,0.0,0.0,0.0,0.0,0.0,0.0,0.0,0.0,0.0,0.0,0.0,0.0,
0.5599,4.301725714560647,4.301725714560647,3.7446864294692426,0.0,0.0,0.0,4.116045952863512,0.0,0.0,0.0,0.0,0.0,0.0,0.0,0.0,0.0,0.0,0.0,0.0,0.0,0.0,
0.5739,4.303166854512851,4.303166854512851,3.7457753216412955,0.0,0.0,0.0,4.117369676888999,0.0,0.0,0.0,0.0,0.0,0.0,0.0,0.0,0.0,0.0,0.0,0.0,0.0,0.0,
0.5879,4.304645539548199,4.304645539548199,3.7468923835860988,0.0,0.0,0.0,4.118727820894166,0.0,0.0,0.0,0.0,0.0,0.0,0.0,0.0,0.0,0.0,0.0,0.0,0.0,0.0,
0.6019,4.306161917715942,4.306161917715942,3.7480377115216137,0.0,0.0,0.0,4.120120515651165,0.0,0.0,0.0,0.0,0.0,0.0,0.0,0.0,0.0,0.0,0.0,0.0,0.0,0.0,
0.6159,4.307716141251523,4.307716141251523,3.749211404309723,0.0,0.0,0.0,4.121547895604256,0.0,0.0,0.0,0.0,0.0,0.0,0.0,0.0,0.0,0.0,0.0,0.0,0.0,0.0,
0.6299,4.309308366624343,4.309308366624343,3.750413563480824,0.0,0.0,0.0,4.123010098909837,0.0,0.0,0.0,0.0,0.0,0.0,0.0,0.0,0.0,0.0,0.0,0.0,0.0,0.0,
0.6439,4.310938754586714,4.310938754586714,3.7516442932593113,0.0,0.0,0.0,4.12450726747758,0.0,0.0,0.0,0.0,0.0,0.0,0.0,0.0,0.0,0.0,0.0,0.0,0.0,0.0,
0.6579,4.312607470224625,4.312607470224625,3.7529037005894956,0.0,0.0,0.0,4.126039547012915,0.0,0.0,0.0,0.0,0.0,0.0,0.0,0.0,0.0,0.0,0.0,0.0,0.0,0.0,
0.6719,4.314314683009918,4.314314683009918,3.75419189516265,0.0,0.0,0.0,4.127607087060829,0.0,0.0,0.0,0.0,0.0,0.0,0.0,0.0,0.0,0.0,0.0,0.0,0.0,0.0,
0.6859,4.3160605668542384,4.3160605668542384,3.7555089894445457,0.0,0.0,0.0,4.1292100410510075,0.0,0.0,0.0,0.0,0.0,0.0,0.0,0.0,0.0,0.0,0.0,0.0,0.0,0.0,
0.6999,4.317845300164654,4.317845300164654,3.756855098704053,0.0,0.0,0.0,4.130848566344453,0.0,0.0,0.0,0.0,0.0,0.0,0.0,0.0,0.0,0.0,0.0,0.0,0.0,0.0,
0.7139,4.319669065901026,4.319669065901026,3.7582303410423465,0.0,0.0,0.0,4.132522824281466,0.0,0.0,0.0,0.0,0.0,0.0,0.0,0.0,0.0,0.0,0.0,0.0,0.0,0.0,
0.7279,4.321532051634924,4.321532051634924,3.759634837423065,0.0,0.0,0.0,4.134232980230971,0.0,0.0,0.0,0.0,0.0,0.0,0.0,0.0,0.0,0.0,0.0,0.0,0.0,0.0,
0.7419,4.323434449610724,4.323434449610724,3.7610687117033073,0.0,0.0,0.0,4.135979203641585,0.0,0.0,0.0,0.0,0.0,0.0,0.0,0.0,0.0,0.0,0.0,0.0,0.0,0.0,
0.7559,4.325376456808131,4.325376456808131,3.7625320906654247,0.0,0.0,0.0,4.137761668093895,0.0,0.0,0.0,0.0,0.0,0.0,0.0,0.0,0.0,0.0,0.0,0.0,0.0,0.0,
0.7699,4.327358275006996,4.327358275006996,3.7640251040497885,0.0,0.0,0.0,4.139580551354594,0.0,0.0,0.0,0.0,0.0,0.0,0.0,0.0,0.0,0.0,0.0,0.0,0.0,0.0,
0.7839,4.329380110853785,4.329380110853785,3.7655478845884454,0.0,0.0,0.0,4.1414360354320054,0.0,0.0,0.0,0.0,0.0,0.0,0.0,0.0,0.0,0.0,0.0,0.0,0.0,0.0,
0.7979,4.331442175930125,4.331442175930125,3.767100568039555,0.0,0.0,0.0,4.1433283066332685,0.0,0.0,0.0,0.0,0.0,0.0,0.0,0.0,0.0,0.0,0.0,0.0,0.0,0.0,
0.8119,4.333544686823446,4.333544686823446,3.768683293223067,0.0,0.0,0.0,4.14525755562332,0.0,0.0,0.0,0.0,0.0,0.0,0.0,0.0,0.0,0.0,0.0,0.0,0.0,0.0,
0.8259,4.335687865199594,4.335687865199594,3.7702962020569104,0.0,0.0,0.0,4.147223977485366,0.0,0.0,0.0,0.0,0.0,0.0,0.0,0.0,0.0,0.0,0.0,0.0,0.0,0.0,
0.8399,4.337871937877747,4.337871937877747,3.7719394395946853,0.0,0.0,0.0,4.149227771783393,0.0,0.0,0.0,0.0,0.0,0.0,0.0,0.0,0.0,0.0,0.0,0.0,0.0,0.0,
0.8539,4.340097136907429,4.340097136907429,3.7736131540638587,0.0,0.0,0.0,4.151269142626238,0.0,0.0,0.0,0.0,0.0,0.0,0.0,0.0,0.0,0.0,0.0,0.0,0.0,0.0,
0.8679,4.342363699647713,4.342363699647713,3.7753174969053496,0.0,0.0,0.0,4.153348298733592,0.0,0.0,0.0,0.0,0.0,0.0,0.0,0.0,0.0,0.0,0.0,0.0,0.0,0.0,
0.8819,4.344671868848918,4.344671868848918,3.7770526228139527,0.0,0.0,0.0,4.15546545350393,0.0,0.0,0.0,0.0,0.0,0.0,0.0,0.0,0.0,0.0,0.0,0.0,0.0,0.0,
0.8959,4.347021892736645,4.347021892736645,3.77881868977991,0.0,0.0,0.0,4.1576208250844005,0.0,0.0,0.0,0.0,0.0,0.0,0.0,0.0,0.0,0.0,0.0,0.0,0.0,0.0,
0.9099,4.349414025098049,4.349414025098049,3.7806158591315175,0.0,0.0,0.0,4.159814636442539,0.0,0.0,0.0,0.0,0.0,0.0,0.0,0.0,0.0,0.0,0.0,0.0,0.0,0.0,
0.9239,4.351848525371043,4.351848525371043,3.7824442955789253,0.0,0.0,0.0,4.162047115440337,0.0,0.0,0.0,0.0,0.0,0.0,0.0,0.0,0.0,0.0,0.0,0.0,0.0,0.0,
0.9378,4.354307813117508,4.354307813117508,3.7842907705923463,0.0,0.0,0.0,4.164302132275787,0.0,0.0,0.0,0.0,0.0,0.0,0.0,0.0,0.0,0.0,0.0,0.0,0.0,0.0,
0.9518,4.356827543157278,4.356827543157278,3.7861820227347347,0.0,0.0,0.0,4.166612369683097,0.0,0.0,0.0,0.0,0.0,0.0,0.0,0.0,0.0,0.0,0.0,0.0,0.0,0.0,
0.9658,4.359390452255342,4.359390452255342,3.788105055585513,0.0,0.0,0.0,4.168961986698732,0.0,0.0,0.0,0.0,0.0,0.0,0.0,0.0,0.0,0.0,0.0,0.0,0.0,0.0,
0.9798,4.361996823351096,4.361996823351096,3.7900600478171613,0.0,0.0,0.0,4.171351231506452,0.0,0.0,0.0,0.0,0.0,0.0,0.0,0.0,0.0,0.0,0.0,0.0,0.0,0.0,
0.9938,4.364646945519027,4.364646945519027,3.792047181719969,0.0,0.0,0.0,4.173780357586008,0.0,0.0,0.0,0.0,0.0,0.0,0.0,0.0,0.0,0.0,0.0,0.0,0.0,0.0,
1.0078,4.367341114074154,4.367341114074154,3.7940666432531005,0.0,0.0,0.0,4.176249623800469,0.0,0.0,0.0,0.0,0.0,0.0,0.0,0.0,0.0,0.0,0.0,0.0,0.0,0.0,
1.0218,4.370079630680906,4.370079630680906,3.7961186220967376,0.0,0.0,0.0,4.178759294486183,0.0,0.0,0.0,0.0,0.0,0.0,0.0,0.0,0.0,0.0,0.0,0.0,0.0,0.0,
1.0358,4.372862803464864,4.372862803464864,3.7982033117059593,0.0,0.0,0.0,4.181309639545229,0.0,0.0,0.0,0.0,0.0,0.0,0.0,0.0,0.0,0.0,0.0,0.0,0.0,0.0,
1.0498,4.3756909471278735,4.3756909471278735,3.8003209093654635,0.0,0.0,0.0,4.183900934540404,0.0,0.0,0.0,0.0,0.0,0.0,0.0,0.0,0.0,0.0,0.0,0.0,0.0,0.0,
1.0638,4.378564383066597,4.378564383066597,3.8024716162461893,0.0,0.0,0.0,4.186533460793128,0.0,0.0,0.0,0.0,0.0,0.0,0.0,0.0,0.0,0.0,0.0,0.0,0.0,0.0,
1.0778,4.38148343949427,4.38148343949427,3.8046556374630605,0.0,0.0,0.0,4.189207505483867,0.0,0.0,0.0,0.0,0.0,0.0,0.0,0.0,0.0,0.0,0.0,0.0,0.0,0.0,
1.0918,4.384448451566398,4.384448451566398,3.8068731821343604,0.0,0.0,0.0,4.191923361755719,0.0,0.0,0.0,0.0,0.0,0.0,0.0,0.0,0.0,0.0,0.0,0.0,0.0,0.0,
1.1058,4.387459761509735,4.387459761509735,3.809124463442577,0.0,0.0,0.0,4.194681328820683,0.0,0.0,0.0,0.0,0.0,0.0,0.0,0.0,0.0,0.0,0.0,0.0,0.0,0.0,
1.1198,4.390517718755312,4.390517718755312,3.811409698696782,0.0,0.0,0.0,4.197481712069135,0.0,0.0,0.0,0.0,0.0,0.0,0.0,0.0,0.0,0.0,0.0,0.0,0.0,0.0,
1.1338,4.393622680075362,4.393622680075362,3.813729109396601,0.0,0.0,0.0,4.2003248231824415,0.0,0.0,0.0,0.0,0.0,0.0,0.0,0.0,0.0,0.0,0.0,0.0,0.0,0.0,
1.1478,4.396775009724072,4.396775009724072,3.816082921297949,0.0,0.0,0.0,4.203210980248698,0.0,0.0,0.0,0.0,0.0,0.0,0.0,0.0,0.0,0.0,0.0,0.0,0.0,0.0,
1.1618,4.399975079582788,4.399975079582788,3.818471364480198,0.0,0.0,0.0,4.2061405078819245,0.0,0.0,0.0,0.0,0.0,0.0,0.0,0.0,0.0,0.0,0.0,0.0,0.0,0.0,
1.1758,4.403223269309326,4.403223269309326,3.8208946734152924,0.0,0.0,0.0,4.209113737344648,0.0,0.0,0.0,0.0,0.0,0.0,0.0,0.0,0.0,0.0,0.0,0.0,0.0,0.0,
1.1898,4.406519966491809,4.406519966491809,3.8233530870384644,0.0,0.0,0.0,4.212131006674027,0.0,0.0,0.0,0.0,0.0,0.0,0.0,0.0,0.0,0.0,0.0,0.0,0.0,0.0,
1.2038,4.409865566807005,4.409865566807005,3.825846848820931,0.0,0.0,0.0,4.215192660811646,0.0,0.0,0.0,0.0,0.0,0.0,0.0,0.0,0.0,0.0,0.0,0.0,0.0,0.0,
1.2178,4.413260474183522,4.413260474183522,3.828376206844351,0.0,0.0,0.0,4.218299051737131,0.0,0.0,0.0,0.0,0.0,0.0,0.0,0.0,0.0,0.0,0.0,0.0,0.0,0.0,
1.2318,4.416705100969851,4.416705100969851,3.8309414138770874,0.0,0.0,0.0,4.221450538605596,0.0,0.0,0.0,0.0,0.0,0.0,0.0,0.0,0.0,0.0,0.0,0.0,0.0,0.0,
1.2458,4.420199868107449,4.420199868107449,3.8335427274526825,0.0,0.0,0.0,4.224647487889194,0.0,0.0,0.0,0.0,0.0,0.0,0.0,0.0,0.0,0.0,0.0,0.0,0.0,0.0,
1.2598,4.42374520530905,4.42374520530905,3.836180409950142,0.0,0.0,0.0,4.227890273522747,0.0,0.0,0.0,0.0,0.0,0.0,0.0,0.0,0.0,0.0,0.0,0.0,0.0,0.0,
1.2738,4.4273415512425345,4.4273415512425345,3.8388547286764987,0.0,0.0,0.0,4.231179277053855,0.0,0.0,0.0,0.0,0.0,0.0,0.0,0.0,0.0,0.0,0.0,0.0,0.0,0.0,
1.2878,4.430989353720101,4.430989353720101,3.8415659559512014,0.0,0.0,0.0,4.234514887797134,0.0,0.0,0.0,0.0,0.0,0.0,0.0,0.0,0.0,0.0,0.0,0.0,0.0,0.0,
1.3018,4.434689069893594,4.434689069893594,3.844314369192989,0.0,0.0,0.0,4.237897502993392,0.0,0.0,0.0,0.0,0.0,0.0,0.0,0.0,0.0,0.0,0.0,0.0,0.0,0.0,
1.3158,4.438441166455618,4.438441166455618,3.8471002510088876,0.0,0.0,0.0,4.241327527973374,0.0,0.0,0.0,0.0,0.0,0.0,0.0,0.0,0.0,0.0,0.0,0.0,0.0,0.0,
1.3298,4.442246119846834,4.442246119846834,3.8499238892855656,0.0,0.0,0.0,4.244805376326411,0.0,0.0,0.0,0.0,0.0,0.0,0.0,0.0,0.0,0.0,0.0,0.0,0.0,0.0,
1.3438,4.4461044164698755,4.4461044164698755,3.852785577283042,0.0,0.0,0.0,4.248331470074264,0.0,0.0,0.0,0.0,0.0,0.0,0.0,0.0,0.0,0.0,0.0,0.0,0.0,0.0,
1.3578,4.450016552909782,4.450016552909782,3.855685613730796,0.0,0.0,0.0,4.251906239850119,0.0,0.0,0.0,0.0,0.0,0.0,0.0,0.0,0.0,0.0,0.0,0.0,0.0,0.0,
1.3718,4.453983036161293,4.453983036161293,3.85862430292655,0.0,0.0,0.0,4.2555301250830455,0.0,0.0,0.0,0.0,0.0,0.0,0.0,0.0,0.0,0.0,0.0,0.0,0.0,0.0,
1.3858,4.458004383863534,4.458004383863534,3.861601954837513,0.0,0.0,0.0,4.259203574188193,0.0,0.0,0.0,0.0,0.0,0.0,0.0,0.0,0.0,0.0,0.0,0.0,0.0,0.0,
1.3998,4.4620811245418786,4.4620811245418786,3.864618885204398,0.0,0.0,0.0,4.262927044762718,0.0,0.0,0.0,0.0,0.0,0.0,0.0,0.0,0.0,0.0,0.0,0.0,0.0,0.0,
1.4138,4.466213797857592,4.466213797857592,3.8676754156480375,0.0,0.0,0.0,4.26670100378774,0.0,0.0,0.0,0.0,0.0,0.0,0.0,0.0,0.0,0.0,0.0,0.0,0.0,0.0,
1.4278,4.470402954865516,4.470402954865516,3.8707718737790704,0.0,0.0,0.0,4.270525927836701,0.0,0.0,0.0,0.0,0.0,0.0,0.0,0.0,0.0,0.0,0.0,0.0,0.0,0.0,
1.4418,4.474649158279961,4.474649158279961,3.873908593310336,0.0,0.0,0.0,4.274402303290086,0.0,0.0,0.0,0.0,0.0,0.0,0.0,0.0,0.0,0.0,0.0,0.0,0.0,0.0,
1.4558,4.478952982749251,4.478952982749251,3.8770859141724126,0.0,0.0,0.0,4.278330626556972,0.0,0.0,0.0,0.0,0.0,0.0,0.0,0.0,0.0,0.0,0.0,0.0,0.0,0.0,
1.4698,4.48331501513902,4.48331501513902,3.880304182632112,0.0,0.0,0.0,4.2823114043033845,0.0,0.0,0.0,0.0,0.0,0.0,0.0,0.0,0.0,0.0,0.0,0.0,0.0,0.0,
1.4838,4.4877358548251385,4.4877358548251385,3.8835637514144117,0.0,0.0,0.0,4.28634515368823,0.0,0.0,0.0,0.0,0.0,0.0,0.0,0.0,0.0,0.0,0.0,0.0,0.0,0.0,
1.4978,4.492216113995825,4.492216113995825,3.886864979827392,0.0,0.0,0.0,4.290432402606347,0.0,0.0,0.0,0.0,0.0,0.0,0.0,0.0,0.0,0.0,0.0,0.0,0.0,0.0,
1.5118,4.496756417964088,4.496756417964088,3.8902082338907698,0.0,0.0,0.0,4.294573689939648,0.0,0.0,0.0,0.0,0.0,0.0,0.0,0.0,0.0,0.0,0.0,0.0,0.0,0.0,
1.5258,4.5013574054904675,4.5013574054904675,3.8935938864678654,0.0,0.0,0.0,4.298769565816267,0.0,0.0,0.0,0.0,0.0,0.0,0.0,0.0,0.0,0.0,0.0,0.0,0.0,0.0,
1.5398,4.506019729116371,4.506019729116371,3.8970223174012744,0.0,0.0,0.0,4.303020591878005,0.0,0.0,0.0,0.0,0.0,0.0,0.0,0.0,0.0,0.0,0.0,0.0,0.0,0.0,
1.5537,4.510710088868146,4.510710088868146,3.9004689625509563,0.0,0.0,0.0,4.3072963800957496,0.0,0.0,0.0,0.0,0.0,0.0,0.0,0.0,0.0,0.0,0.0,0.0,0.0,0.0,
1.5677,4.515496648984891,4.515496648984891,3.9039838057868903,0.0,0.0,0.0,4.311659034585557,0.0,0.0,0.0,0.0,0.0,0.0,0.0,0.0,0.0,0.0,0.0,0.0,0.0,0.0,
1.5817,4.520346583993316,4.520346583993316,3.907542607298991,0.0,0.0,0.0,4.316078591761874,0.0,0.0,0.0,0.0,0.0,0.0,0.0,0.0,0.0,0.0,0.0,0.0,0.0,0.0,
1.5957,4.5252606050157285,4.5252606050157285,3.9111457762243096,0.0,0.0,0.0,4.320555662085256,0.0,0.0,0.0,0.0,0.0,0.0,0.0,0.0,0.0,0.0,0.0,0.0,0.0,0.0,
1.6097,4.530239438798123,4.530239438798123,3.9147937294143076,0.0,0.0,0.0,4.325090869003518,0.0,0.0,0.0,0.0,0.0,0.0,0.0,0.0,0.0,0.0,0.0,0.0,0.0,0.0,
1.6237,4.5352838281184,4.5352838281184,3.9184868915945628,0.0,0.0,0.0,4.329684849277121,0.0,0.0,0.0,0.0,0.0,0.0,0.0,0.0,0.0,0.0,0.0,0.0,0.0,0.0,
1.6377,4.540394532208714,4.540394532208714,3.922225695529294,0.0,0.0,0.0,4.334338253315574,0.0,0.0,0.0,0.0,0.0,0.0,0.0,0.0,0.0,0.0,0.0,0.0,0.0,0.0,
1.6517,4.545572327192873,4.545572327192873,3.9260105821901425,0.0,0.0,0.0,4.339051745525296,0.0,0.0,0.0,0.0,0.0,0.0,0.0,0.0,0.0,0.0,0.0,0.0,0.0,0.0,
1.6657,4.550818006539104,4.550818006539104,3.929842000930095,0.0,0.0,0.0,4.343826004669435,0.0,0.0,0.0,0.0,0.0,0.0,0.0,0.0,0.0,0.0,0.0,0.0,0.0,0.0,
1.6797,4.55613238152937,4.55613238152937,3.9337204096622553,0.0,0.0,0.0,4.348661724240332,0.0,0.0,0.0,0.0,0.0,0.0,0.0,0.0,0.0,0.0,0.0,0.0,0.0,0.0,
1.6937,4.561516281745114,4.561516281745114,3.9376462750437553,0.0,0.0,0.0,4.353559612844661,0.0,0.0,0.0,0.0,0.0,0.0,0.0,0.0,0.0,0.0,0.0,0.0,0.0,0.0,
1.7077,4.5669705555712135,4.5669705555712135,3.941620072665106,0.0,0.0,0.0,4.358520394602511,0.0,0.0,0.0,0.0,0.0,0.0,0.0,0.0,0.0,0.0,0.0,0.0,0.0,0.0,
1.7217,4.572496070718045,4.572496070718045,3.9456422872449646,0.0,0.0,0.0,4.363544809560351,0.0,0.0,0.0,0.0,0.0,0.0,0.0,0.0,0.0,0.0,0.0,0.0,0.0,0.0,
1.7357,4.57809371476275,4.57809371476275,3.9497134128305884,0.0,0.0,0.0,4.368633614118696,0.0,0.0,0.0,0.0,0.0,0.0,0.0,0.0,0.0,0.0,0.0,0.0,0.0,0.0,
1.7497,4.583764395710966,4.583764395710966,3.953833953004349,0.0,0.0,0.0,4.373787581475427,0.0,0.0,0.0,0.0,0.0,0.0,0.0,0.0,0.0,0.0,0.0,0.0,0.0,0.0,
1.7637,4.589509042579319,4.589509042579319,3.958004421096124,0.0,0.0,0.0,4.379007502084921,0.0,0.0,0.0,0.0,0.0,0.0,0.0,0.0,0.0,0.0,0.0,0.0,0.0,0.0,
1.7777,4.595328606000063,4.595328606000063,3.9622253404022896,0.0,0.0,0.0,4.384294184134139,0.0,0.0,0.0,0.0,0.0,0.0,0.0,0.0,0.0,0.0,0.0,0.0,0.0,0.0,
1.7917,4.601224058848477,4.601224058848477,3.96649724441099,0.0,0.0,0.0,4.3896484540359815,0.0,0.0,0.0,0.0,0.0,0.0,0.0,0.0,0.0,0.0,0.0,0.0,0.0,0.0,
1.8057,4.607196396894935,4.607196396894935,3.970820677034535,0.0,0.0,0.0,4.395071156941468,0.0,0.0,0.0,0.0,0.0,0.0,0.0,0.0,0.0,0.0,0.0,0.0,0.0,0.0,
1.8197,4.613246639481412,4.613246639481412,3.975196192848479,0.0,0.0,0.0,4.400563157270434,0.0,0.0,0.0,0.0,0.0,0.0,0.0,0.0,0.0,0.0,0.0,0.0,0.0,0.0,
1.8337,4.619375830225181,4.619375830225181,3.9796243573383503,0.0,0.0,0.0,4.406125339262904,0.0,0.0,0.0,0.0,0.0,0.0,0.0,0.0,0.0,0.0,0.0,0.0,0.0,0.0,
1.8477,4.62558503774958,4.62558503774958,3.9841057471535835,0.0,0.0,0.0,4.411758607550914,0.0,0.0,0.0,0.0,0.0,0.0,0.0,0.0,0.0,0.0,0.0,0.0,0.0,0.0,
