energies(eV),real_xx,real_yy,real_zz,real_xy,real_yz,real_xz,real_ave,imag_xx,imag_yy,imag_zz,imag_xy,imag_yz,imag_xz,imag_ave,absorption_xx,absorption_yy,absorption_zz,absorption_xy,absorption_yz,absorption_xz,absorption_ave,band_gap
0.0,3.515544282812956,3.515544282812956,3.633239487486225,0.0,0.0,0.0,3.5547760177040453,0.0,0.0,0.0,0.0,0.0,0.0,0.0,0.0,0.0,0.0,0.0,0.0,0.0,0.0,3.8049
0.0138,3.5155520199333834,3.5155520199333834,3.6332480007661863,0.0,0.0,0.0,3.5547840135443174,0.0,0.0,0.0,0.0,0.0,0.0,0.0,0.0,0.0,0.0,0.0,0.0,0.0,0.0,
0.0277,3.515575456394624,3.515575456394624,3.633273788328378,0.0,0.0,0.0,3.5548082337058755,0.0,0.0,0.0,0.0,0.0,0.0,0.0,0.0,0.0,0.0,0.0,0.0,0.0,0.0,
0.0415,3.515614256258763,3.515614256258763,3.633316480656403,0.0,0.0,0.0,3.554848331057976,0.0,0.0,0.0,0.0,0.0,0.0,0.0,0.0,0.0,0.0,0.0,0.0,0.0,0.0,
0.0554,3.5156689839934723,3.5156689839934723,3.633376699051955,0.0,0.0,0.0,3.554904889012967,0.0,0.0,0.0,0.0,0.0,0.0,0.0,0.0,0.0,0.0,0.0,0.0,0.0,0.0,
0.0692,3.515738855132697,3.515738855132697,3.633453580631461,0.0,0.0,0.0,3.5549770969656183,0.0,0.0,0.0,0.0,0.0,0.0,0.0,0.0,0.0,0.0,0.0,0.0,0.0,0.0,
0.0831,3.515824886175785,3.515824886175785,3.6335482442543645,0.0,0.0,0.0,3.5550660055353114,0.0,0.0,0.0,0.0,0.0,0.0,0.0,0.0,0.0,0.0,0.0,0.0,0.0,0.0,
0.0969,3.5159258439574606,3.5159258439574606,3.6336593334654714,0.0,0.0,0.0,3.555170340460131,0.0,0.0,0.0,0.0,0.0,0.0,0.0,0.0,0.0,0.0,0.0,0.0,0.0,0.0,
0.1108,3.5160431972341586,3.5160431972341586,3.633788464951806,0.0,0.0,0.0,3.5552916198067077,0.0,0.0,0.0,0.0,0.0,0.0,0.0,0.0,0.0,0.0,0.0,0.0,0.0,0.0,
0.1246,3.5161752638721953,3.5161752638721953,3.6339337883650664,0.0,0.0,0.0,3.555428105369819,0.0,0.0,0.0,0.0,0.0,0.0,0.0,0.0,0.0,0.0,0.0,0.0,0.0,0.0,
0.1384,3.51632283920703,3.51632283920703,3.6340961795514524,0.0,0.0,0.0,3.5555806193218373,0.0,0.0,0.0,0.0,0.0,0.0,0.0,0.0,0.0,0.0,0.0,0.0,0.0,0.0,
0.1523,3.5164871697806164,3.5164871697806164,3.6342770110063616,0.0,0.0,0.0,3.555750450189198,0.0,0.0,0.0,0.0,0.0,0.0,0.0,0.0,0.0,0.0,0.0,0.0,0.0,0.0,
0.1661,3.5166659000991145,3.5166659000991145,3.6344736915755544,0.0,0.0,0.0,3.5559351639245946,0.0,0.0,0.0,0.0,0.0,0.0,0.0,0.0,0.0,0.0,0.0,0.0,0.0,0.0,
0.18,3.5168616303883082,3.5168616303883082,3.6346890835842975,0.0,0.0,0.0,3.5561374481203045,0.0,0.0,0.0,0.0,0.0,0.0,0.0,0.0,0.0,0.0,0.0,0.0,0.0,0.0,
0.1938,3.5170715550841973,3.5170715550841973,3.6349201006688623,0.0,0.0,0.0,3.556354403612419,0.0,0.0,0.0,0.0,0.0,0.0,0.0,0.0,0.0,0.0,0.0,0.0,0.0,0.0,
0.2077,3.517298728249449,3.517298728249449,3.63517010487442,0.0,0.0,0.0,3.5565891871244393,0.0,0.0,0.0,0.0,0.0,0.0,0.0,0.0,0.0,0.0,0.0,0.0,0.0,0.0,
0.2215,3.5175398936361146,3.5175398936361146,3.6354355138943064,0.0,0.0,0.0,3.5568384337221786,0.0,0.0,0.0,0.0,0.0,0.0,0.0,0.0,0.0,0.0,0.0,0.0,0.0,0.0,
0.2353,3.517796642419885,3.517796642419885,3.6357180800717237,0.0,0.0,0.0,3.5571037883038312,0.0,0.0,0.0,0.0,0.0,0.0,0.0,0.0,0.0,0.0,0.0,0.0,0.0,0.0,
0.2492,3.518071019164924,3.518071019164924,3.6360200550115898,0.0,0.0,0.0,3.557387364447146,0.0,0.0,0.0,0.0,0.0,0.0,0.0,0.0,0.0,0.0,0.0,0.0,0.0,0.0,
0.263,3.518359091045448,3.518359091045448,3.63633711175603,0.0,0.0,0.0,3.557685097948975,0.0,0.0,0.0,0.0,0.0,0.0,0.0,0.0,0.0,0.0,0.0,0.0,0.0,0.0,
0.2769,3.5186650490874856,3.5186650490874856,3.6366738645708256,0.0,0.0,0.0,3.5580013209152654,0.0,0.0,0.0,0.0,0.0,0.0,0.0,0.0,0.0,0.0,0.0,0.0,0.0,0.0,
0.2907,3.5189845078130997,3.5189845078130997,3.6370254882022923,0.0,0.0,0.0,3.558331501276164,0.0,0.0,0.0,0.0,0.0,0.0,0.0,0.0,0.0,0.0,0.0,0.0,0.0,0.0,
0.3046,3.5193221149077005,3.5193221149077005,3.6373971000187773,0.0,0.0,0.0,3.558680443278059,0.0,0.0,0.0,0.0,0.0,0.0,0.0,0.0,0.0,0.0,0.0,0.0,0.0,0.0,
0.3184,3.5196730312777973,3.5196730312777973,3.6377833753188784,0.0,0.0,0.0,3.559043145958158,0.0,0.0,0.0,0.0,0.0,0.0,0.0,0.0,0.0,0.0,0.0,0.0,0.0,0.0,
0.3323,3.520042362306577,3.520042362306577,3.6381899358185215,0.0,0.0,0.0,3.5594248868105587,0.0,0.0,0.0,0.0,0.0,0.0,0.0,0.0,0.0,0.0,0.0,0.0,0.0,0.0,
0.3461,3.5204248142202874,3.5204248142202874,3.638610956095051,0.0,0.0,0.0,3.5598201948452086,0.0,0.0,0.0,0.0,0.0,0.0,0.0,0.0,0.0,0.0,0.0,0.0,0.0,0.0,
0.3599,3.520823008274917,3.520823008274917,3.6390493236342207,0.0,0.0,0.0,3.560231780061352,0.0,0.0,0.0,0.0,0.0,0.0,0.0,0.0,0.0,0.0,0.0,0.0,0.0,0.0,
0.3738,3.521240023751979,3.521240023751979,3.6395084307402317,0.0,0.0,0.0,3.5606628260813964,0.0,0.0,0.0,0.0,0.0,0.0,0.0,0.0,0.0,0.0,0.0,0.0,0.0,0.0,
0.3876,3.521669883462865,3.521669883462865,3.6399816991620244,0.0,0.0,0.0,3.561107155362585,0.0,0.0,0.0,0.0,0.0,0.0,0.0,0.0,0.0,0.0,0.0,0.0,0.0,0.0,
0.4015,3.522118841430371,3.522118841430371,3.6404760168373484,0.0,0.0,0.0,3.5615712332326965,0.0,0.0,0.0,0.0,0.0,0.0,0.0,0.0,0.0,0.0,0.0,0.0,0.0,0.0,
0.4153,3.5225804626783743,3.5225804626783743,3.6409843010755076,0.0,0.0,0.0,3.562048408810752,0.0,0.0,0.0,0.0,0.0,0.0,0.0,0.0,0.0,0.0,0.0,0.0,0.0,0.0,
0.4292,3.523061463384581,3.523061463384581,3.641513949509715,0.0,0.0,0.0,3.562545625426292,0.0,0.0,0.0,0.0,0.0,0.0,0.0,0.0,0.0,0.0,0.0,0.0,0.0,0.0,
0.443,3.523554949360228,3.523554949360228,3.6420573733033117,0.0,0.0,0.0,3.5630557573412562,0.0,0.0,0.0,0.0,0.0,0.0,0.0,0.0,0.0,0.0,0.0,0.0,0.0,0.0,
0.4569,3.5240681004515846,3.5240681004515846,3.6426224816023214,0.0,0.0,0.0,3.56358622750183,0.0,0.0,0.0,0.0,0.0,0.0,0.0,0.0,0.0,0.0,0.0,0.0,0.0,0.0,
0.4707,3.524593561726927,3.524593561726927,3.6432011775913167,0.0,0.0,0.0,3.5641294336817233,0.0,0.0,0.0,0.0,0.0,0.0,0.0,0.0,0.0,0.0,0.0,0.0,0.0,0.0,
0.4845,3.5251349965148977,3.5251349965148977,3.643797498304504,0.0,0.0,0.0,3.5646891637781,0.0,0.0,0.0,0.0,0.0,0.0,0.0,0.0,0.0,0.0,0.0,0.0,0.0,0.0,
0.4984,3.5256965329289334,3.5256965329289334,3.6444159937056604,0.0,0.0,0.0,3.5652696865211753,0.0,0.0,0.0,0.0,0.0,0.0,0.0,0.0,0.0,0.0,0.0,0.0,0.0,0.0,
0.5122,3.5262701226589295,3.5262701226589295,3.6450478022186603,0.0,0.0,0.0,3.5658626825121735,0.0,0.0,0.0,0.0,0.0,0.0,0.0,0.0,0.0,0.0,0.0,0.0,0.0,0.0,
0.5261,3.526864111212225,3.526864111212225,3.6457021196507897,0.0,0.0,0.0,3.566476780691746,0.0,0.0,0.0,0.0,0.0,0.0,0.0,0.0,0.0,0.0,0.0,0.0,0.0,0.0,
0.5399,3.527469985246598,3.527469985246598,3.6463695713061735,0.0,0.0,0.0,3.56710318059979,0.0,0.0,0.0,0.0,0.0,0.0,0.0,0.0,0.0,0.0,0.0,0.0,0.0,0.0,
0.5538,3.528096560093103,3.528096560093103,3.647059871902552,0.0,0.0,0.0,3.5677509973629196,0.0,0.0,0.0,0.0,0.0,0.0,0.0,0.0,0.0,0.0,0.0,0.0,0.0,0.0,
0.5676,3.528734855470618,3.528734855470618,3.6477631313372822,0.0,0.0,0.0,3.5684109474261727,0.0,0.0,0.0,0.0,0.0,0.0,0.0,0.0,0.0,0.0,0.0,0.0,0.0,0.0,
0.5815,3.529394158544479,3.529394158544479,3.6484895856573276,0.0,0.0,0.0,3.5690926342487614,0.0,0.0,0.0,0.0,0.0,0.0,0.0,0.0,0.0,0.0,0.0,0.0,0.0,0.0,
0.5953,3.530065020077558,3.530065020077558,3.649228826932742,0.0,0.0,0.0,3.569786289029286,0.0,0.0,0.0,0.0,0.0,0.0,0.0,0.0,0.0,0.0,0.0,0.0,0.0,0.0,
0.6091,3.5307521623920612,3.5307521623920612,3.649986062104622,0.0,0.0,0.0,3.5704967956295817,0.0,0.0,0.0,0.0,0.0,0.0,0.0,0.0,0.0,0.0,0.0,0.0,0.0,0.0,
0.623,3.531460781572484,3.531460781572484,3.6507670218373005,0.0,0.0,0.0,3.571229528327423,0.0,0.0,0.0,0.0,0.0,0.0,0.0,0.0,0.0,0.0,0.0,0.0,0.0,0.0,
0.6368,3.532180721774644,3.532180721774644,3.651560517568463,0.0,0.0,0.0,3.57197398703925,0.0,0.0,0.0,0.0,0.0,0.0,0.0,0.0,0.0,0.0,0.0,0.0,0.0,0.0,
0.6507,3.532922458435331,3.532922458435331,3.6523780992099235,0.0,0.0,0.0,3.572741005360195,0.0,0.0,0.0,0.0,0.0,0.0,0.0,0.0,0.0,0.0,0.0,0.0,0.0,0.0,
0.6645,3.5336753612228833,3.5336753612228833,3.6532080537284948,0.0,0.0,0.0,3.573519592058087,0.0,0.0,0.0,0.0,0.0,0.0,0.0,0.0,0.0,0.0,0.0,0.0,0.0,0.0,
0.6784,3.5344503853505147,3.5344503853505147,3.6540624619314652,0.0,0.0,0.0,3.5743210775441647,0.0,0.0,0.0,0.0,0.0,0.0,0.0,0.0,0.0,0.0,0.0,0.0,0.0,0.0,
0.6922,3.535236423583814,3.535236423583814,3.6549290834111954,0.0,0.0,0.0,3.5751339768596075,0.0,0.0,0.0,0.0,0.0,0.0,0.0,0.0,0.0,0.0,0.0,0.0,0.0,0.0,
0.706,3.5360390368103145,3.5360390368103145,3.6558140530119188,0.0,0.0,0.0,3.575964042210849,0.0,0.0,0.0,0.0,0.0,0.0,0.0,0.0,0.0,0.0,0.0,0.0,0.0,0.0,
0.7199,3.536864268277151,3.536864268277151,3.656724039659551,0.0,0.0,0.0,3.5768175254046177,0.0,0.0,0.0,0.0,0.0,0.0,0.0,0.0,0.0,0.0,0.0,0.0,0.0,0.0,
0.7337,3.537700291479709,3.537700291479709,3.6576460070900625,0.0,0.0,0.0,3.57768219668316,0.0,0.0,0.0,0.0,0.0,0.0,0.0,0.0,0.0,0.0,0.0,0.0,0.0,0.0,
0.7476,3.538559271558056,3.538559271558056,3.658593376086431,0.0,0.0,0.0,3.578570639734181,0.0,0.0,0.0,0.0,0.0,0.0,0.0,0.0,0.0,0.0,0.0,0.0,0.0,0.0,
0.7614,3.5394288985534494,3.5394288985534494,3.6595525751261233,0.0,0.0,0.0,3.5794701240776745,0.0,0.0,0.0,0.0,0.0,0.0,0.0,0.0,0.0,0.0,0.0,0.0,0.0,0.0,
0.7753,3.5403218267939276,3.5403218267939276,3.6605375672476033,0.0,0.0,0.0,3.580393740278486,0.0,0.0,0.0,0.0,0.0,0.0,0.0,0.0,0.0,0.0,0.0,0.0,0.0,0.0,
0.7891,3.5412252600320824,3.5412252600320824,3.661534242254899,0.0,0.0,0.0,3.5813282541063547,0.0,0.0,0.0,0.0,0.0,0.0,0.0,0.0,0.0,0.0,0.0,0.0,0.0,0.0,
0.803,3.5421523447558467,3.5421523447558467,3.6625571090347115,0.0,0.0,0.0,3.582287266182135,0.0,0.0,0.0,0.0,0.0,0.0,0.0,0.0,0.0,0.0,0.0,0.0,0.0,0.0,
0.8168,3.5430897954703915,3.5430897954703915,3.6635915151505927,0.0,0.0,0.0,3.583257035363792,0.0,0.0,0.0,0.0,0.0,0.0,0.0,0.0,0.0,0.0,0.0,0.0,0.0,0.0,
0.8306,3.544044275124029,3.544044275124029,3.6646448173406854,0.0,0.0,0.0,3.584244455862914,0.0,0.0,0.0,0.0,0.0,0.0,0.0,0.0,0.0,0.0,0.0,0.0,0.0,0.0,
0.8445,3.545022942291637,3.545022942291637,3.665724922451443,0.0,0.0,0.0,3.5852569356782396,0.0,0.0,0.0,0.0,0.0,0.0,0.0,0.0,0.0,0.0,0.0,0.0,0.0,0.0,
0.8583,3.546011772676543,3.546011772676543,3.666816358649922,0.0,0.0,0.0,3.5862799680010027,0.0,0.0,0.0,0.0,0.0,0.0,0.0,0.0,0.0,0.0,0.0,0.0,0.0,0.0,
0.8722,3.5470251561172423,3.5470251561172423,3.6679350152062513,0.0,0.0,0.0,3.5873284424802456,0.0,0.0,0.0,0.0,0.0,0.0,0.0,0.0,0.0,0.0,0.0,0.0,0.0,0.0,
0.886,3.548048571120067,3.548048571120067,3.669064868451353,0.0,0.0,0.0,3.588387336897162,0.0,0.0,0.0,0.0,0.0,0.0,0.0,0.0,0.0,0.0,0.0,0.0,0.0,0.0,
0.8999,3.5490969111128994,3.5490969111128994,3.6702223673438414,0.0,0.0,0.0,3.58947206318988,0.0,0.0,0.0,0.0,0.0,0.0,0.0,0.0,0.0,0.0,0.0,0.0,0.0,0.0,
0.9137,3.5501551539934697,3.5501551539934697,3.6713909322551106,0.0,0.0,0.0,3.5905670800806835,0.0,0.0,0.0,0.0,0.0,0.0,0.0,0.0,0.0,0.0,0.0,0.0,0.0,0.0,
0.9276,3.5512387003516848,3.5512387003516848,3.6725875761662774,0.0,0.0,0.0,3.5916883256232155,0.0,0.0,0.0,0.0,0.0,0.0,0.0,0.0,0.0,0.0,0.0,0.0,0.0,0.0,
0.9414,3.5523320239301865,3.5523320239301865,3.6737951591993654,0.0,0.0,0.0,3.592819735686579,0.0,0.0,0.0,0.0,0.0,0.0,0.0,0.0,0.0,0.0,0.0,0.0,0.0,0.0,
0.9552,3.553442921911015,3.553442921911015,3.675022298982467,0.0,0.0,0.0,3.593969380934832,0.0,0.0,0.0,0.0,0.0,0.0,0.0,0.0,0.0,0.0,0.0,0.0,0.0,0.0,
0.9691,3.554579703048042,3.554579703048042,3.676278182581116,0.0,0.0,0.0,3.5951458628924,0.0,0.0,0.0,0.0,0.0,0.0,0.0,0.0,0.0,0.0,0.0,0.0,0.0,0.0,
0.9829,3.5557260788231546,3.5557260788231546,3.6775448223538563,0.0,0.0,0.0,3.596332326666722,0.0,0.0,0.0,0.0,0.0,0.0,0.0,0.0,0.0,0.0,0.0,0.0,0.0,0.0,
0.9968,3.5568987333571602,3.5568987333571602,3.6788406604129675,0.0,0.0,0.0,3.597546042375763,0.0,0.0,0.0,0.0,0.0,0.0,0.0,0.0,0.0,0.0,0.0,0.0,0.0,0.0,
1.0106,3.558080864509079,3.558080864509079,3.680147137398202,0.0,0.0,0.0,3.598769622138787,0.0,0.0,0.0,0.0,0.0,0.0,0.0,0.0,0.0,0.0,0.0,0.0,0.0,0.0,
1.0245,3.559289677187421,3.559289677187421,3.681483276007447,0.0,0.0,0.0,3.600020876794096,0.0,0.0,0.0,0.0,0.0,0.0,0.0,0.0,0.0,0.0,0.0,0.0,0.0,0.0,
1.0383,3.5605078515875963,3.5605078515875963,3.6828299402592366,0.0,0.0,0.0,3.6012818811448093,0.0,0.0,0.0,0.0,0.0,0.0,0.0,0.0,0.0,0.0,0.0,0.0,0.0,0.0,
1.0522,3.561753117635923,3.561753117635923,3.684206738589965,0.0,0.0,0.0,3.6025709912872705,0.0,0.0,0.0,0.0,0.0,0.0,0.0,0.0,0.0,0.0,0.0,0.0,0.0,0.0,
1.066,3.5630076336752166,3.5630076336752166,3.6855939533098567,0.0,0.0,0.0,3.6038697402200968,0.0,0.0,0.0,0.0,0.0,0.0,0.0,0.0,0.0,0.0,0.0,0.0,0.0,0.0,
1.0798,3.564280369628409,3.564280369628409,3.6870015097892077,0.0,0.0,0.0,3.605187416348675,0.0,0.0,0.0,0.0,0.0,0.0,0.0,0.0,0.0,0.0,0.0,0.0,0.0,0.0,
1.0937,3.5655808258652555,3.5655808258652555,3.68843992581018,0.0,0.0,0.0,3.6065338591802303,0.0,0.0,0.0,0.0,0.0,0.0,0.0,0.0,0.0,0.0,0.0,0.0,0.0,0.0,
1.1075,3.566890370721056,3.566890370721056,3.689888602236861,0.0,0.0,0.0,3.607889781226324,0.0,0.0,0.0,0.0,0.0,0.0,0.0,0.0,0.0,0.0,0.0,0.0,0.0,0.0,
1.1214,3.568228065228739,3.568228065228739,3.69136863459746,0.0,0.0,0.0,3.6092749216849795,0.0,0.0,0.0,0.0,0.0,0.0,0.0,0.0,0.0,0.0,0.0,0.0,0.0,0.0,
1.1352,3.5695747447367445,3.5695747447367445,3.6928588285029833,0.0,0.0,0.0,3.610669439325491,0.0,0.0,0.0,0.0,0.0,0.0,0.0,0.0,0.0,0.0,0.0,0.0,0.0,0.0,
1.1491,3.570950011338707,3.570950011338707,3.694380884809248,0.0,0.0,0.0,3.6120936358288875,0.0,0.0,0.0,0.0,0.0,0.0,0.0,0.0,0.0,0.0,0.0,0.0,0.0,0.0,
1.1629,3.57233416266197,3.57233416266197,3.6959130081048372,0.0,0.0,0.0,3.6135271111429255,0.0,0.0,0.0,0.0,0.0,0.0,0.0,0.0,0.0,0.0,0.0,0.0,0.0,0.0,
1.1767,3.573737111705679,3.573737111705679,3.6974661787091745,0.0,0.0,0.0,3.6149801340401773,0.0,0.0,0.0,0.0,0.0,0.0,0.0,0.0,0.0,0.0,0.0,0.0,0.0,0.0,
1.1906,3.575169318815872,3.575169318815872,3.699051990009488,0.0,0.0,0.0,3.6164635425470775,0.0,0.0,0.0,0.0,0.0,0.0,0.0,0.0,0.0,0.0,0.0,0.0,0.0,0.0,
1.2044,3.5766102667896393,3.5766102667896393,3.7006477348962394,0.0,0.0,0.0,3.6179560894918392,0.0,0.0,0.0,0.0,0.0,0.0,0.0,0.0,0.0,0.0,0.0,0.0,0.0,0.0,
1.2183,3.578080931436585,3.578080931436585,3.702276653447156,0.0,0.0,0.0,3.619479505440109,0.0,0.0,0.0,0.0,0.0,0.0,0.0,0.0,0.0,0.0,0.0,0.0,0.0,0.0,
1.2321,3.5795602452789654,3.5795602452789654,3.703915422201988,0.0,0.0,0.0,3.621011970919973,0.0,0.0,0.0,0.0,0.0,0.0,0.0,0.0,0.0,0.0,0.0,0.0,0.0,0.0,
1.246,3.5810697432944014,3.5810697432944014,3.70558790876406,0.0,0.0,0.0,3.622575798450954,0.0,0.0,0.0,0.0,0.0,0.0,0.0,0.0,0.0,0.0,0.0,0.0,0.0,0.0,
1.2598,3.582587802403259,3.582587802403259,3.7072701668053543,0.0,0.0,0.0,3.6241485905372905,0.0,0.0,0.0,0.0,0.0,0.0,0.0,0.0,0.0,0.0,0.0,0.0,0.0,0.0,
1.2737,3.5841365223329587,3.5841365223329587,3.7089866983163335,0.0,0.0,0.0,3.62575324766075,0.0,0.0,0.0,0.0,0.0,0.0,0.0,0.0,0.0,0.0,0.0,0.0,0.0,0.0,
1.2875,3.585693718895732,3.585693718895732,3.7107129273566706,0.0,0.0,0.0,3.627366788382711,0.0,0.0,0.0,0.0,0.0,0.0,0.0,0.0,0.0,0.0,0.0,0.0,0.0,0.0,
1.3013,3.587270563971375,3.587270563971375,3.7124612474945358,0.0,0.0,0.0,3.6290007918124285,0.0,0.0,0.0,0.0,0.0,0.0,0.0,0.0,0.0,0.0,0.0,0.0,0.0,0.0,
1.3152,3.588878801678939,3.588878801678939,3.7142446959370052,0.0,0.0,0.0,3.6306674330982944,0.0,0.0,0.0,0.0,0.0,0.0,0.0,0.0,0.0,0.0,0.0,0.0,0.0,0.0,
1.329,3.590495396474193,3.590495396474193,3.7160377403278875,0.0,0.0,0.0,3.6323428444254247,0.0,0.0,0.0,0.0,0.0,0.0,0.0,0.0,0.0,0.0,0.0,0.0,0.0,0.0,
1.3429,3.592143884581901,3.592143884581901,3.71786649906443,0.0,0.0,0.0,3.634051422742744,0.0,0.0,0.0,0.0,0.0,0.0,0.0,0.0,0.0,0.0,0.0,0.0,0.0,0.0,
1.3567,3.5938006547793324,3.5938006547793324,3.719704792292059,0.0,0.0,0.0,3.6357687006169077,0.0,0.0,0.0,0.0,0.0,0.0,0.0,0.0,0.0,0.0,0.0,0.0,0.0,0.0,
1.3706,3.59548982909014,3.59548982909014,3.721579398749037,0.0,0.0,0.0,3.6375196856431056,0.0,0.0,0.0,0.0,0.0,0.0,0.0,0.0,0.0,0.0,0.0,0.0,0.0,0.0,
1.3844,3.5971872144412207,3.5971872144412207,3.7234634834888687,0.0,0.0,0.0,3.63927930412377,0.0,0.0,0.0,0.0,0.0,0.0,0.0,0.0,0.0,0.0,0.0,0.0,0.0,0.0,
1.3983,3.5989175251303336,3.5989175251303336,3.7253844935997087,0.0,0.0,0.0,3.6410731812867922,0.0,0.0,0.0,0.0,0.0,0.0,0.0,0.0,0.0,0.0,0.0,0.0,0.0,0.0,
1.4121,3.600655979859857,3.600655979859857,3.727314931190301,0.0,0.0,0.0,3.6428756303033385,0.0,0.0,0.0,0.0,0.0,0.0,0.0,0.0,0.0,0.0,0.0,0.0,0.0,0.0,
1.4259,3.6024150692735946,3.6024150692735946,3.729268676988679,0.0,0.0,0.0,3.644699605178623,0.0,0.0,0.0,0.0,0.0,0.0,0.0,0.0,0.0,0.0,0.0,0.0,0.0,0.0,
1.4398,3.6042078851201502,3.6042078851201502,3.731260291027945,0.0,0.0,0.0,3.6465586870894153,0.0,0.0,0.0,0.0,0.0,0.0,0.0,0.0,0.0,0.0,0.0,0.0,0.0,0.0,
1.4536,3.606008752443093,3.606008752443093,3.7332612669142917,0.0,0.0,0.0,3.648426257266826,0.0,0.0,0.0,0.0,0.0,0.0,0.0,0.0,0.0,0.0,0.0,0.0,0.0,0.0,
1.4675,3.6078438948707565,3.6078438948707565,3.735300758240918,0.0,0.0,0.0,3.650329515994144,0.0,0.0,0.0,0.0,0.0,0.0,0.0,0.0,0.0,0.0,0.0,0.0,0.0,0.0,
1.4813,3.6096870323764105,3.6096870323764105,3.7373495748633556,0.0,0.0,0.0,3.6522412132053925,0.0,0.0,0.0,0.0,0.0,0.0,0.0,0.0,0.0,0.0,0.0,0.0,0.0,0.0,
1.4952,3.611565005243601,3.611565005243601,3.7394375689860495,0.0,0.0,0.0,3.6541891931577504,0.0,0.0,0.0,0.0,0.0,0.0,0.0,0.0,0.0,0.0,0.0,0.0,0.0,0.0,
1.509,3.613450921246723,3.613450921246723,3.7415348578869385,0.0,0.0,0.0,3.656145566793462,0.0,0.0,0.0,0.0,0.0,0.0,0.0,0.0,0.0,0.0,0.0,0.0,0.0,0.0,
1.5229,3.615372244816599,3.615372244816599,3.7436720017136516,0.0,0.0,0.0,3.6581388304489497,0.0,0.0,0.0,0.0,0.0,0.0,0.0,0.0,0.0,0.0,0.0,0.0,0.0,0.0,
1.5367,3.6173014641697305,3.6173014641697305,3.745818416040489,0.0,0.0,0.0,3.66014044812665,0.0,0.0,0.0,0.0,0.0,0.0,0.0,0.0,0.0,0.0,0.0,0.0,0.0,0.0,
1.5505,3.6192524581862155,3.6192524581862155,3.747989555074941,0.0,0.0,0.0,3.662164823815791,0.0,0.0,0.0,0.0,0.0,0.0,0.0,0.0,0.0,0.0,0.0,0.0,0.0,0.0,
1.5644,3.6212397402350383,3.6212397402350383,3.7502015938648774,0.0,0.0,0.0,3.664227024778318,0.0,0.0,0.0,0.0,0.0,0.0,0.0,0.0,0.0,0.0,0.0,0.0,0.0,0.0,
1.5782,3.6232348560226937,3.6232348560226937,3.752422878939584,0.0,0.0,0.0,3.6662975303283236,0.0,0.0,0.0,0.0,0.0,0.0,0.0,0.0,0.0,0.0,0.0,0.0,0.0,0.0,
1.5921,3.625266863586977,3.625266863586977,3.754685781942736,0.0,0.0,0.0,3.668406503038897,0.0,0.0,0.0,0.0,0.0,0.0,0.0,0.0,0.0,0.0,0.0,0.0,0.0,0.0,
1.6059,3.6273066696389042,3.6273066696389042,3.75695792352677,0.0,0.0,0.0,3.6705237542681926,0.0,0.0,0.0,0.0,0.0,0.0,0.0,0.0,0.0,0.0,0.0,0.0,0.0,0.0,
1.6198,3.629383984556782,3.629383984556782,3.7592724185344752,0.0,0.0,0.0,3.672680129216013,0.0,0.0,0.0,0.0,0.0,0.0,0.0,0.0,0.0,0.0,0.0,0.0,0.0,0.0,
1.6336,3.631469067833682,3.631469067833682,3.76159615148639,0.0,0.0,0.0,3.6748447623845846,0.0,0.0,0.0,0.0,0.0,0.0,0.0,0.0,0.0,0.0,0.0,0.0,0.0,0.0,
1.6474,3.6335769329518643,3.6335769329518643,3.763945869064036,0.0,0.0,0.0,3.677033244989255,0.0,0.0,0.0,0.0,0.0,0.0,0.0,0.0,0.0,0.0,0.0,0.0,0.0,0.0,
1.6613,3.63572325739222,3.63572325739222,3.7663390757570734,0.0,0.0,0.0,3.679261863513838,0.0,0.0,0.0,0.0,0.0,0.0,0.0,0.0,0.0,0.0,0.0,0.0,0.0,0.0,
1.6751,3.637877315021766,3.637877315021766,3.7687415332615894,0.0,0.0,0.0,3.681498721101707,0.0,0.0,0.0,0.0,0.0,0.0,0.0,0.0,0.0,0.0,0.0,0.0,0.0,0.0,
1.689,3.6400704843603537,3.6400704843603537,3.7711882614228482,0.0,0.0,0.0,3.6837764100478516,0.0,0.0,0.0,0.0,0.0,0.0,0.0,0.0,0.0,0.0,0.0,0.0,0.0,0.0,
1.7028,3.642271370339843,3.642271370339843,3.7736442586352132,0.0,0.0,0.0,3.686062333104966,0.0,0.0,0.0,0.0,0.0,0.0,0.0,0.0,0.0,0.0,0.0,0.0,0.0,0.0,
1.7167,3.6445120353813225,3.6445120353813225,3.776145327668008,0.0,0.0,0.0,3.688389799476884,0.0,0.0,0.0,0.0,0.0,0.0,0.0,0.0,0.0,0.0,0.0,0.0,0.0,0.0,
1.7305,3.646760406293992,3.646760406293992,3.7786556920831886,0.0,0.0,0.0,3.6907255015570577,0.0,0.0,0.0,0.0,0.0,0.0,0.0,0.0,0.0,0.0,0.0,0.0,0.0,0.0,
1.7444,3.649049239098558,3.649049239098558,3.7812119498356203,0.0,0.0,0.0,3.693103476010912,0.0,0.0,0.0,0.0,0.0,0.0,0.0,0.0,0.0,0.0,0.0,0.0,0.0,0.0,
1.7582,3.6513457729970575,3.6513457729970575,3.7837775377290175,0.0,0.0,0.0,3.6954896945743774,0.0,0.0,0.0,0.0,0.0,0.0,0.0,0.0,0.0,0.0,0.0,0.0,0.0,0.0,
1.772,3.653666561376525,3.653666561376525,3.7863709664872442,0.0,0.0,0.0,3.697901363080098,0.0,0.0,0.0,0.0,0.0,0.0,0.0,0.0,0.0,0.0,0.0,0.0,0.0,0.0,
1.7859,3.656028864795951,3.656028864795951,3.7890115591484568,0.0,0.0,0.0,3.7003564295801197,0.0,0.0,0.0,0.0,0.0,0.0,0.0,0.0,0.0,0.0,0.0,0.0,0.0,0.0,
1.7997,3.65839887386511,3.65839887386511,3.7916615505814057,0.0,0.0,0.0,3.7028197661038753,0.0,0.0,0.0,0.0,0.0,0.0,0.0,0.0,0.0,0.0,0.0,0.0,0.0,0.0,
1.8136,3.660811121856826,3.660811121856826,3.794359581717583,0.0,0.0,0.0,3.7053272751437447,0.0,0.0,0.0,0.0,0.0,0.0,0.0,0.0,0.0,0.0,0.0,0.0,0.0,0.0,
