energies(eV),real_xx,real_yy,real_zz,real_xy,real_yz,real_xz,real_ave,imag_xx,imag_yy,imag_zz,imag_xy,imag_yz,imag_xz,imag_ave,absorption_xx,absorption_yy,absorption_zz,absorption_xy,absorption_yz,absorption_xz,absorption_ave,band_gap
0.0,4.838263743414785,4.950264657950605,4.8111859378353605,0.0,0.0,0.0,4.8665714464002505,0.0,0.0,0.0,0.0,0.0,0.0,0.0,0.0,0.0,0.0,0.0,0.0,0.0,0.0,3.4751999999999996
0.0156,4.838284577368455,4.950285961058865,4.811206258629793,0.0,0.0,0.0,4.866592265685704,0.0,0.0,0.0,0.0,0.0,0.0,0.0,0.0,0.0,0.0,0.0,0.0,0.0,0.0,
0.0311,4.8383465480006755,4.950349327162408,4.811266702848569,0.0,0.0,0.0,4.866654192670551,0.0,0.0,0.0,0.0,0.0,0.0,0.0,0.0,0.0,0.0,0.0,0.0,0.0,0.0,
0.0467,4.838450461338188,4.950455580348221,4.811368056603321,0.0,0.0,0.0,4.866758032763244,0.0,0.0,0.0,0.0,0.0,0.0,0.0,0.0,0.0,0.0,0.0,0.0,0.0,0.0,
0.0623,4.838596061863876,4.950604459194307,4.811510070567355,0.0,0.0,0.0,4.866903530541846,0.0,0.0,0.0,0.0,0.0,0.0,0.0,0.0,0.0,0.0,0.0,0.0,0.0,0.0,
0.0778,4.838782031115399,4.9507946153443765,4.811691458613847,0.0,0.0,0.0,4.867089368357874,0.0,0.0,0.0,0.0,0.0,0.0,0.0,0.0,0.0,0.0,0.0,0.0,0.0,0.0,
0.0934,4.839010787931001,4.951028521823417,4.811914579809715,0.0,0.0,0.0,4.867317963188045,0.0,0.0,0.0,0.0,0.0,0.0,0.0,0.0,0.0,0.0,0.0,0.0,0.0,0.0,
0.109,4.83928128983135,4.951305112347601,4.8121784171278446,0.0,0.0,0.0,4.867588273102265,0.0,0.0,0.0,0.0,0.0,0.0,0.0,0.0,0.0,0.0,0.0,0.0,0.0,0.0,
0.1246,4.8395935647858686,4.951624415121746,4.812482997579269,0.0,0.0,0.0,4.867900325828962,0.0,0.0,0.0,0.0,0.0,0.0,0.0,0.0,0.0,0.0,0.0,0.0,0.0,0.0,
0.1401,4.839945242145527,4.951984005703608,4.812826008626769,0.0,0.0,0.0,4.868251752158635,0.0,0.0,0.0,0.0,0.0,0.0,0.0,0.0,0.0,0.0,0.0,0.0,0.0,0.0,
0.1557,4.84034089612291,4.952388560717635,4.8132119114105105,0.0,0.0,0.0,4.868647122750352,0.0,0.0,0.0,0.0,0.0,0.0,0.0,0.0,0.0,0.0,0.0,0.0,0.0,0.0,
0.1713,4.840778432837883,4.952835938585354,4.813638663251521,0.0,0.0,0.0,4.869084344891586,0.0,0.0,0.0,0.0,0.0,0.0,0.0,0.0,0.0,0.0,0.0,0.0,0.0,0.0,
0.1868,4.841254690519484,4.953322905805804,4.814103179894277,0.0,0.0,0.0,4.869560258739855,0.0,0.0,0.0,0.0,0.0,0.0,0.0,0.0,0.0,0.0,0.0,0.0,0.0,0.0,
0.2024,4.8417758638801,4.9538557956914735,4.814611502858007,0.0,0.0,0.0,4.870081054143193,0.0,0.0,0.0,0.0,0.0,0.0,0.0,0.0,0.0,0.0,0.0,0.0,0.0,0.0,
0.218,4.842339068826936,4.954431658520797,4.815160818623154,0.0,0.0,0.0,4.870643848656962,0.0,0.0,0.0,0.0,0.0,0.0,0.0,0.0,0.0,0.0,0.0,0.0,0.0,0.0,
0.2335,4.842940349611929,4.955046448853136,4.815747268457874,0.0,0.0,0.0,4.871244688974312,0.0,0.0,0.0,0.0,0.0,0.0,0.0,0.0,0.0,0.0,0.0,0.0,0.0,0.0,
0.2491,4.843587527300221,4.955708162588446,4.816378479911927,0.0,0.0,0.0,4.871891389933531,0.0,0.0,0.0,0.0,0.0,0.0,0.0,0.0,0.0,0.0,0.0,0.0,0.0,0.0,
0.2647,4.844276925008637,4.956413039260278,4.817050866134805,0.0,0.0,0.0,4.87258027680124,0.0,0.0,0.0,0.0,0.0,0.0,0.0,0.0,0.0,0.0,0.0,0.0,0.0,0.0,
0.2802,4.845003789433488,4.957156217877618,4.817759790461917,0.0,0.0,0.0,4.873306599257674,0.0,0.0,0.0,0.0,0.0,0.0,0.0,0.0,0.0,0.0,0.0,0.0,0.0,0.0,
0.2958,4.845777575402858,4.957947364396356,4.818514473628283,0.0,0.0,0.0,4.874079804475833,0.0,0.0,0.0,0.0,0.0,0.0,0.0,0.0,0.0,0.0,0.0,0.0,0.0,0.0,
0.3114,4.84659380994569,4.9587819042773,4.819310552267128,0.0,0.0,0.0,4.874895422163372,0.0,0.0,0.0,0.0,0.0,0.0,0.0,0.0,0.0,0.0,0.0,0.0,0.0,0.0,
0.327,4.847452578458373,4.959659923611148,4.820148108840023,0.0,0.0,0.0,4.875753536969849,0.0,0.0,0.0,0.0,0.0,0.0,0.0,0.0,0.0,0.0,0.0,0.0,0.0,0.0,
0.3425,4.848348056819155,4.9605754665215755,4.821021462275009,0.0,0.0,0.0,4.87664832853858,0.0,0.0,0.0,0.0,0.0,0.0,0.0,0.0,0.0,0.0,0.0,0.0,0.0,0.0,
0.3581,4.849291893644949,4.961540441281073,4.82194197247135,0.0,0.0,0.0,4.877591435799125,0.0,0.0,0.0,0.0,0.0,0.0,0.0,0.0,0.0,0.0,0.0,0.0,0.0,0.0,
0.3737,4.850278547550271,4.9625491808848174,4.822904233974725,0.0,0.0,0.0,4.878577320803271,0.0,0.0,0.0,0.0,0.0,0.0,0.0,0.0,0.0,0.0,0.0,0.0,0.0,0.0,
0.3892,4.851301385632436,4.963594902580715,4.823901776937726,0.0,0.0,0.0,4.879599355050292,0.0,0.0,0.0,0.0,0.0,0.0,0.0,0.0,0.0,0.0,0.0,0.0,0.0,0.0,
0.4048,4.852373713756422,4.964691208363675,4.824947577119535,0.0,0.0,0.0,4.8806708330798765,0.0,0.0,0.0,0.0,0.0,0.0,0.0,0.0,0.0,0.0,0.0,0.0,0.0,0.0,
0.4204,4.8534891838990175,4.965831606510266,4.826035442358709,0.0,0.0,0.0,4.881785410922664,0.0,0.0,0.0,0.0,0.0,0.0,0.0,0.0,0.0,0.0,0.0,0.0,0.0,0.0,
0.4359,4.854640348304782,4.967008481267872,4.827158108167907,0.0,0.0,0.0,4.882935645913521,0.0,0.0,0.0,0.0,0.0,0.0,0.0,0.0,0.0,0.0,0.0,0.0,0.0,0.0,
0.4515,4.8558421828719345,4.9682371412351705,4.828330178509342,0.0,0.0,0.0,4.884136500872149,0.0,0.0,0.0,0.0,0.0,0.0,0.0,0.0,0.0,0.0,0.0,0.0,0.0,0.0,
0.4671,4.857087527167719,4.969510264146854,4.829544668939377,0.0,0.0,0.0,4.88538082008465,0.0,0.0,0.0,0.0,0.0,0.0,0.0,0.0,0.0,0.0,0.0,0.0,0.0,0.0,
0.4826,4.858368111732021,4.970819394338664,4.830793513713125,0.0,0.0,0.0,4.8866603399279365,0.0,0.0,0.0,0.0,0.0,0.0,0.0,0.0,0.0,0.0,0.0,0.0,0.0,0.0,
0.4982,4.859700596967288,4.97218156159099,4.8320929589657196,0.0,0.0,0.0,4.8879917058413325,0.0,0.0,0.0,0.0,0.0,0.0,0.0,0.0,0.0,0.0,0.0,0.0,0.0,0.0,
0.5138,4.861077003487214,4.973588606494918,4.833435221650612,0.0,0.0,0.0,4.889366943877581,0.0,0.0,0.0,0.0,0.0,0.0,0.0,0.0,0.0,0.0,0.0,0.0,0.0,0.0,
0.5294,4.862497478746953,4.975040677618804,4.834820444125381,0.0,0.0,0.0,4.890786200163713,0.0,0.0,0.0,0.0,0.0,0.0,0.0,0.0,0.0,0.0,0.0,0.0,0.0,0.0,
0.5449,4.8639526450401105,4.976528186661156,4.836239480089045,0.0,0.0,0.0,4.892240103930104,0.0,0.0,0.0,0.0,0.0,0.0,0.0,0.0,0.0,0.0,0.0,0.0,0.0,0.0,
0.5605,4.865461435506093,4.978070485252637,4.837710791056189,0.0,0.0,0.0,4.893747570604973,0.0,0.0,0.0,0.0,0.0,0.0,0.0,0.0,0.0,0.0,0.0,0.0,0.0,0.0,
0.5761,4.867014766677359,4.979658285536784,4.839225517442861,0.0,0.0,0.0,4.895299523219001,0.0,0.0,0.0,0.0,0.0,0.0,0.0,0.0,0.0,0.0,0.0,0.0,0.0,0.0,
0.5916,4.868602420002992,4.981281140000016,4.840773693206853,0.0,0.0,0.0,4.896885751069953,0.0,0.0,0.0,0.0,0.0,0.0,0.0,0.0,0.0,0.0,0.0,0.0,0.0,0.0,
0.6072,4.87024505371809,4.982960162334514,4.84237546121747,0.0,0.0,0.0,4.898526892423358,0.0,0.0,0.0,0.0,0.0,0.0,0.0,0.0,0.0,0.0,0.0,0.0,0.0,0.0,
0.6228,4.871932747017041,4.984685208998114,4.8440211455324,0.0,0.0,0.0,4.900213033849185,0.0,0.0,0.0,0.0,0.0,0.0,0.0,0.0,0.0,0.0,0.0,0.0,0.0,0.0,
0.6383,4.873654430900382,4.986444963583187,4.845699951094147,0.0,0.0,0.0,4.9019331151925725,0.0,0.0,0.0,0.0,0.0,0.0,0.0,0.0,0.0,0.0,0.0,0.0,0.0,0.0,
0.6539,4.875432509138099,4.988262322421271,4.847433721853939,0.0,0.0,0.0,4.903709517804436,0.0,0.0,0.0,0.0,0.0,0.0,0.0,0.0,0.0,0.0,0.0,0.0,0.0,0.0,
0.6695,4.87725621432464,4.990126276945764,4.849211956566964,0.0,0.0,0.0,4.9055314826124565,0.0,0.0,0.0,0.0,0.0,0.0,0.0,0.0,0.0,0.0,0.0,0.0,0.0,0.0,
0.685,4.879113616527758,4.992024631287308,4.851023021037168,0.0,0.0,0.0,4.907387089617411,0.0,0.0,0.0,0.0,0.0,0.0,0.0,0.0,0.0,0.0,0.0,0.0,0.0,0.0,
0.7006,4.881028887408775,4.993982086920419,4.852890481873719,0.0,0.0,0.0,4.90930048540097,0.0,0.0,0.0,0.0,0.0,0.0,0.0,0.0,0.0,0.0,0.0,0.0,0.0,0.0,
0.7162,4.882990402833198,4.995986760042386,4.85480300274835,0.0,0.0,0.0,4.911260055207978,0.0,0.0,0.0,0.0,0.0,0.0,0.0,0.0,0.0,0.0,0.0,0.0,0.0,0.0,
0.7318,4.884998380626843,4.998038869929134,4.856760793888446,0.0,0.0,0.0,4.913266014814808,0.0,0.0,0.0,0.0,0.0,0.0,0.0,0.0,0.0,0.0,0.0,0.0,0.0,0.0,
0.7473,4.887039724429252,5.000125029426547,4.8587510843622965,0.0,0.0,0.0,4.915305279406032,0.0,0.0,0.0,0.0,0.0,0.0,0.0,0.0,0.0,0.0,0.0,0.0,0.0,0.0,
0.7629,4.88914100260971,5.002272386653697,4.86079977580425,0.0,0.0,0.0,4.9174043883558864,0.0,0.0,0.0,0.0,0.0,0.0,0.0,0.0,0.0,0.0,0.0,0.0,0.0,0.0,
0.7785,4.891289430792042,5.004467872739691,4.862894401117137,0.0,0.0,0.0,4.91955056821629,0.0,0.0,0.0,0.0,0.0,0.0,0.0,0.0,0.0,0.0,0.0,0.0,0.0,0.0,
0.794,4.893471023610244,5.006697192782871,4.865021323128035,0.0,0.0,0.0,4.92172984650705,0.0,0.0,0.0,0.0,0.0,0.0,0.0,0.0,0.0,0.0,0.0,0.0,0.0,0.0,
0.8096,4.895714177379105,5.00898936046914,4.867208224078082,0.0,0.0,0.0,4.923970587308776,0.0,0.0,0.0,0.0,0.0,0.0,0.0,0.0,0.0,0.0,0.0,0.0,0.0,0.0,
0.8252,4.898005223808981,5.011330404295035,4.869441775539572,0.0,0.0,0.0,4.926259134547863,0.0,0.0,0.0,0.0,0.0,0.0,0.0,0.0,0.0,0.0,0.0,0.0,0.0,0.0,
0.8407,4.900329274872229,5.0137051078565555,4.871707460915986,0.0,0.0,0.0,4.928580614548257,0.0,0.0,0.0,0.0,0.0,0.0,0.0,0.0,0.0,0.0,0.0,0.0,0.0,0.0,
0.8563,4.902716584132981,5.01614437987771,4.874034771327205,0.0,0.0,0.0,4.930965245112632,0.0,0.0,0.0,0.0,0.0,0.0,0.0,0.0,0.0,0.0,0.0,0.0,0.0,0.0,
0.8719,4.905152586141702,5.018633332877504,4.876409504227034,0.0,0.0,0.0,4.933398474415413,0.0,0.0,0.0,0.0,0.0,0.0,0.0,0.0,0.0,0.0,0.0,0.0,0.0,0.0,
0.8874,4.907621475517995,5.021155814155922,4.878816249415017,0.0,0.0,0.0,4.935864513029645,0.0,0.0,0.0,0.0,0.0,0.0,0.0,0.0,0.0,0.0,0.0,0.0,0.0,0.0,
0.903,4.910155394660338,5.023744659231235,4.881286337359434,0.0,0.0,0.0,4.938395463750336,0.0,0.0,0.0,0.0,0.0,0.0,0.0,0.0,0.0,0.0,0.0,0.0,0.0,0.0,
0.9186,4.91273886669811,5.026384050280839,4.883804677629094,0.0,0.0,0.0,4.940975864869348,0.0,0.0,0.0,0.0,0.0,0.0,0.0,0.0,0.0,0.0,0.0,0.0,0.0,0.0,
0.9342,4.915372192835808,5.029074290143476,4.88637156079213,0.0,0.0,0.0,4.943606014590471,0.0,0.0,0.0,0.0,0.0,0.0,0.0,0.0,0.0,0.0,0.0,0.0,0.0,0.0,
0.9497,4.918038319153174,5.031797952143184,4.8889703606536745,0.0,0.0,0.0,4.946268877316678,0.0,0.0,0.0,0.0,0.0,0.0,0.0,0.0,0.0,0.0,0.0,0.0,0.0,0.0,
0.9653,4.920771961166129,5.034590495825282,4.891634912892683,0.0,0.0,0.0,4.948999123294698,0.0,0.0,0.0,0.0,0.0,0.0,0.0,0.0,0.0,0.0,0.0,0.0,0.0,0.0,
0.9809,4.9235564020852,5.037434838041233,4.8943489193939715,0.0,0.0,0.0,4.951780053173468,0.0,0.0,0.0,0.0,0.0,0.0,0.0,0.0,0.0,0.0,0.0,0.0,0.0,0.0,
0.9964,4.926373632059006,5.040312576989727,4.897094823127988,0.0,0.0,0.0,4.95459367739224,0.0,0.0,0.0,0.0,0.0,0.0,0.0,0.0,0.0,0.0,0.0,0.0,0.0,0.0,
1.012,4.929260338658281,5.043261182634619,4.8999083793873455,0.0,0.0,0.0,4.9574766335600815,0.0,0.0,0.0,0.0,0.0,0.0,0.0,0.0,0.0,0.0,0.0,0.0,0.0,0.0,
1.0276,4.932198856187641,5.046262603747629,4.902772365993116,0.0,0.0,0.0,4.960411275309462,0.0,0.0,0.0,0.0,0.0,0.0,0.0,0.0,0.0,0.0,0.0,0.0,0.0,0.0,
1.0431,4.935170200372489,5.049297444798885,4.9056682772385996,0.0,0.0,0.0,4.963378640803325,0.0,0.0,0.0,0.0,0.0,0.0,0.0,0.0,0.0,0.0,0.0,0.0,0.0,0.0,
1.0587,4.938213070865679,5.0524052263685615,4.908633826627286,0.0,0.0,0.0,4.966417374620509,0.0,0.0,0.0,0.0,0.0,0.0,0.0,0.0,0.0,0.0,0.0,0.0,0.0,0.0,
1.0743,4.941308835086689,5.055566911056398,4.911650850567007,0.0,0.0,0.0,4.969508865570031,0.0,0.0,0.0,0.0,0.0,0.0,0.0,0.0,0.0,0.0,0.0,0.0,0.0,0.0,
1.0899,4.944457871174613,5.058782878599035,4.914719713685447,0.0,0.0,0.0,4.972653487819699,0.0,0.0,0.0,0.0,0.0,0.0,0.0,0.0,0.0,0.0,0.0,0.0,0.0,0.0,
1.1054,4.947639863945646,5.062032376627843,4.917820614804301,0.0,0.0,0.0,4.975830951792597,0.0,0.0,0.0,0.0,0.0,0.0,0.0,0.0,0.0,0.0,0.0,0.0,0.0,0.0,
1.121,4.950896264496318,5.06535772883005,4.9209939445924356,0.0,0.0,0.0,4.979082645972935,0.0,0.0,0.0,0.0,0.0,0.0,0.0,0.0,0.0,0.0,0.0,0.0,0.0,0.0,
1.1366,4.9542071202445435,5.068738551895041,4.924220254495265,0.0,0.0,0.0,4.982388642211617,0.0,0.0,0.0,0.0,0.0,0.0,0.0,0.0,0.0,0.0,0.0,0.0,0.0,0.0,
1.1521,4.957551093396253,5.07215305127579,4.927478748171264,0.0,0.0,0.0,4.9857276309477685,0.0,0.0,0.0,0.0,0.0,0.0,0.0,0.0,0.0,0.0,0.0,0.0,0.0,0.0,
1.1677,4.960971751834778,5.075645706354928,4.930811875439887,0.0,0.0,0.0,4.989143111209864,0.0,0.0,0.0,0.0,0.0,0.0,0.0,0.0,0.0,0.0,0.0,0.0,0.0,0.0,
1.1833,4.964448129226721,5.079195100514106,4.934199201116591,0.0,0.0,0.0,4.992614143619139,0.0,0.0,0.0,0.0,0.0,0.0,0.0,0.0,0.0,0.0,0.0,0.0,0.0,0.0,
1.1988,4.967957842201523,5.082778373949829,4.937618911545787,0.0,0.0,0.0,4.996118375899046,0.0,0.0,0.0,0.0,0.0,0.0,0.0,0.0,0.0,0.0,0.0,0.0,0.0,0.0,
1.2144,4.97154662553168,5.086442211985332,4.941115563985422,0.0,0.0,0.0,4.999701467167478,0.0,0.0,0.0,0.0,0.0,0.0,0.0,0.0,0.0,0.0,0.0,0.0,0.0,0.0,
1.23,4.975192476793029,5.090164142239265,4.9446677150723755,0.0,0.0,0.0,5.003341444701556,0.0,0.0,0.0,0.0,0.0,0.0,0.0,0.0,0.0,0.0,0.0,0.0,0.0,0.0,
1.2455,4.978871942567702,5.093920215071125,4.948252510238021,0.0,0.0,0.0,5.007014889292282,0.0,0.0,0.0,0.0,0.0,0.0,0.0,0.0,0.0,0.0,0.0,0.0,0.0,0.0,
1.2611,4.982632978041914,5.097759375396777,4.951916665756471,0.0,0.0,0.0,5.010769673065053,0.0,0.0,0.0,0.0,0.0,0.0,0.0,0.0,0.0,0.0,0.0,0.0,0.0,0.0,
1.2767,4.986452520899033,5.101658071154996,4.955637707129307,0.0,0.0,0.0,5.014582766394446,0.0,0.0,0.0,0.0,0.0,0.0,0.0,0.0,0.0,0.0,0.0,0.0,0.0,0.0,
1.2923,4.9903310731248105,5.10561680548094,4.959416118065802,0.0,0.0,0.0,5.018454665557184,0.0,0.0,0.0,0.0,0.0,0.0,0.0,0.0,0.0,0.0,0.0,0.0,0.0,0.0,
1.3078,4.994243712941733,5.109610133809554,4.963227615967195,0.0,0.0,0.0,5.022360487572827,0.0,0.0,0.0,0.0,0.0,0.0,0.0,0.0,0.0,0.0,0.0,0.0,0.0,0.0,
1.3234,4.998241447335303,5.113690105285197,4.96712188371982,0.0,0.0,0.0,5.026351145446774,0.0,0.0,0.0,0.0,0.0,0.0,0.0,0.0,0.0,0.0,0.0,0.0,0.0,0.0,
1.339,5.0022997602988,5.117831687584792,4.971075032916195,0.0,0.0,0.0,5.030402160266595,0.0,0.0,0.0,0.0,0.0,0.0,0.0,0.0,0.0,0.0,0.0,0.0,0.0,0.0,
1.3545,5.006392596531104,5.122008282590129,4.975061678845973,0.0,0.0,0.0,5.034487519322402,0.0,0.0,0.0,0.0,0.0,0.0,0.0,0.0,0.0,0.0,0.0,0.0,0.0,0.0,
1.3701,5.010573322939709,5.126274338756602,4.979133797801701,0.0,0.0,0.0,5.038660486499338,0.0,0.0,0.0,0.0,0.0,0.0,0.0,0.0,0.0,0.0,0.0,0.0,0.0,0.0,
1.3857,5.014816301899798,5.130603682098896,4.983266410721409,0.0,0.0,0.0,5.042895464906701,0.0,0.0,0.0,0.0,0.0,0.0,0.0,0.0,0.0,0.0,0.0,0.0,0.0,0.0,
1.4012,5.019094314423466,5.13496853069032,4.987433001709672,0.0,0.0,0.0,5.047165282274485,0.0,0.0,0.0,0.0,0.0,0.0,0.0,0.0,0.0,0.0,0.0,0.0,0.0,0.0,
1.4168,5.023463153970786,5.139425798967302,4.99168790462981,0.0,0.0,0.0,5.0515256191893,0.0,0.0,0.0,0.0,0.0,0.0,0.0,0.0,0.0,0.0,0.0,0.0,0.0,0.0,
1.4324,5.027896031979308,5.143948141861055,4.996005021500748,0.0,0.0,0.0,5.0559497317803705,0.0,0.0,0.0,0.0,0.0,0.0,0.0,0.0,0.0,0.0,0.0,0.0,0.0,0.0,
1.4479,5.032364533667571,5.148506561446714,5.000356674300418,0.0,0.0,0.0,5.0604092564715675,0.0,0.0,0.0,0.0,0.0,0.0,0.0,0.0,0.0,0.0,0.0,0.0,0.0,0.0,
1.4635,5.0369269502115595,5.153160509304596,5.004799622977319,0.0,0.0,0.0,5.064962360831157,0.0,0.0,0.0,0.0,0.0,0.0,0.0,0.0,0.0,0.0,0.0,0.0,0.0,0.0,
1.4791,5.041555310913325,5.1578814379901825,5.0093066205606185,0.0,0.0,0.0,5.069581123154709,0.0,0.0,0.0,0.0,0.0,0.0,0.0,0.0,0.0,0.0,0.0,0.0,0.0,0.0,
1.4947,5.046250280531085,5.162670012172219,5.0138783070366415,0.0,0.0,0.0,5.074266199913315,0.0,0.0,0.0,0.0,0.0,0.0,0.0,0.0,0.0,0.0,0.0,0.0,0.0,0.0,
1.5102,5.050981795450157,5.167495558030079,5.0184854024184515,0.0,0.0,0.0,5.078987585299562,0.0,0.0,0.0,0.0,0.0,0.0,0.0,0.0,0.0,0.0,0.0,0.0,0.0,0.0,
1.5258,5.055811598172705,5.17242103098383,5.023188017952523,0.0,0.0,0.0,5.083806882369686,0.0,0.0,0.0,0.0,0.0,0.0,0.0,0.0,0.0,0.0,0.0,0.0,0.0,0.0,
1.5414,5.060710088929415,5.177416227385718,5.027957323704316,0.0,0.0,0.0,5.08869454667315,0.0,0.0,0.0,0.0,0.0,0.0,0.0,0.0,0.0,0.0,0.0,0.0,0.0,0.0,
1.5569,5.065645925074785,5.182449174035743,5.032762797368331,0.0,0.0,0.0,5.093619298826287,0.0,0.0,0.0,0.0,0.0,0.0,0.0,0.0,0.0,0.0,0.0,0.0,0.0,0.0,
1.5725,5.0706835324765525,5.187585548943078,5.0376671549422705,0.0,0.0,0.0,5.098645412120633,0.0,0.0,0.0,0.0,0.0,0.0,0.0,0.0,0.0,0.0,0.0,0.0,0.0,0.0,
1.5881,5.075792048409911,5.192793865084395,5.042640339623884,0.0,0.0,0.0,5.10374208437273,0.0,0.0,0.0,0.0,0.0,0.0,0.0,0.0,0.0,0.0,0.0,0.0,0.0,0.0,
1.6036,5.080938811625445,5.198040810273903,5.047650548675962,0.0,0.0,0.0,5.108876723525103,0.0,0.0,0.0,0.0,0.0,0.0,0.0,0.0,0.0,0.0,0.0,0.0,0.0,0.0,
1.6192,5.086191020210596,5.203394873764106,5.052763188322217,0.0,0.0,0.0,5.11411636076564,0.0,0.0,0.0,0.0,0.0,0.0,0.0,0.0,0.0,0.0,0.0,0.0,0.0,0.0,
1.6348,5.0915165100958,5.20882324671355,5.057946937911861,0.0,0.0,0.0,5.119428898240404,0.0,0.0,0.0,0.0,0.0,0.0,0.0,0.0,0.0,0.0,0.0,0.0,0.0,0.0,
1.6503,5.096881259268315,5.214291235779277,5.0631686736798445,0.0,0.0,0.0,5.124780389575812,0.0,0.0,0.0,0.0,0.0,0.0,0.0,0.0,0.0,0.0,0.0,0.0,0.0,0.0,
1.6659,5.102355333121263,5.219870236258346,5.068496583519666,0.0,0.0,0.0,5.130240717633091,0.0,0.0,0.0,0.0,0.0,0.0,0.0,0.0,0.0,0.0,0.0,0.0,0.0,0.0,
1.6815,5.107905225369078,5.225526076584368,5.073898043567363,0.0,0.0,0.0,5.135776448506936,0.0,0.0,0.0,0.0,0.0,0.0,0.0,0.0,0.0,0.0,0.0,0.0,0.0,0.0,
1.6971,5.113531822412033,5.2312596403699745,5.079373906231284,0.0,0.0,0.0,5.141388456337764,0.0,0.0,0.0,0.0,0.0,0.0,0.0,0.0,0.0,0.0,0.0,0.0,0.0,0.0,
1.7126,5.119199216448357,5.237034321304546,5.0848892175959834,0.0,0.0,0.0,5.147040918449629,0.0,0.0,0.0,0.0,0.0,0.0,0.0,0.0,0.0,0.0,0.0,0.0,0.0,0.0,
1.7282,5.124981457778983,5.242925550651519,5.090516030047261,0.0,0.0,0.0,5.152807679492587,0.0,0.0,0.0,0.0,0.0,0.0,0.0,0.0,0.0,0.0,0.0,0.0,0.0,0.0,
1.7438,5.13084318128269,5.248897270632415,5.096219915447453,0.0,0.0,0.0,5.158653455787519,0.0,0.0,0.0,0.0,0.0,0.0,0.0,0.0,0.0,0.0,0.0,0.0,0.0,0.0,
1.7593,5.136747008837215,5.254911384304282,5.10196449339784,0.0,0.0,0.0,5.164540962179779,0.0,0.0,0.0,0.0,0.0,0.0,0.0,0.0,0.0,0.0,0.0,0.0,0.0,0.0,
1.7749,5.1427701072236225,5.261046477060897,5.1078248374569934,0.0,0.0,0.0,5.170547140580505,0.0,0.0,0.0,0.0,0.0,0.0,0.0,0.0,0.0,0.0,0.0,0.0,0.0,0.0,
1.7905,5.148875663035327,5.267265022338783,5.113765114148808,0.0,0.0,0.0,5.176635266507639,0.0,0.0,0.0,0.0,0.0,0.0,0.0,0.0,0.0,0.0,0.0,0.0,0.0,0.0,
1.806,5.155024775582075,5.27352738040927,5.119747466318757,0.0,0.0,0.0,5.182766540770033,0.0,0.0,0.0,0.0,0.0,0.0,0.0,0.0,0.0,0.0,0.0,0.0,0.0,0.0,
1.8216,5.161297848034016,5.279915410009734,5.125850103888516,0.0,0.0,0.0,5.189021120644089,0.0,0.0,0.0,0.0,0.0,0.0,0.0,0.0,0.0,0.0,0.0,0.0,0.0,0.0,
1.8372,5.167656568190881,5.286390065336742,5.132035739429695,0.0,0.0,0.0,5.195360790985773,0.0,0.0,0.0,0.0,0.0,0.0,0.0,0.0,0.0,0.0,0.0,0.0,0.0,0.0,
1.8527,5.174060457001656,5.292910108221582,5.138264985361217,0.0,0.0,0.0,5.2017451835281525,0.0,0.0,0.0,0.0,0.0,0.0,0.0,0.0,0.0,0.0,0.0,0.0,0.0,0.0,
1.8683,5.1805932828559484,5.299560798707075,5.144619311682497,0.0,0.0,0.0,5.208257797748507,0.0,0.0,0.0,0.0,0.0,0.0,0.0,0.0,0.0,0.0,0.0,0.0,0.0,0.0,
1.8839,5.187215180881518,5.306301517961963,5.151059925166479,0.0,0.0,0.0,5.214858874669987,0.0,0.0,0.0,0.0,0.0,0.0,0.0,0.0,0.0,0.0,0.0,0.0,0.0,0.0,
1.8995,5.193927350838979,5.313133457495154,5.157587977897619,0.0,0.0,0.0,5.2215495954105835,0.0,0.0,0.0,0.0,0.0,0.0,0.0,0.0,0.0,0.0,0.0,0.0,0.0,0.0,
1.915,5.200687114538326,5.320013153517813,5.164161950685246,0.0,0.0,0.0,5.228287406247128,0.0,0.0,0.0,0.0,0.0,0.0,0.0,0.0,0.0,0.0,0.0,0.0,0.0,0.0,
1.9306,5.207582947309693,5.327030619444827,5.170867871471579,0.0,0.0,0.0,5.235160479408699,0.0,0.0,0.0,0.0,0.0,0.0,0.0,0.0,0.0,0.0,0.0,0.0,0.0,0.0,
1.9462,5.21457282274111,5.334143047965659,5.17766485144432,0.0,0.0,0.0,5.242126907383696,0.0,0.0,0.0,0.0,0.0,0.0,0.0,0.0,0.0,0.0,0.0,0.0,0.0,0.0,
1.9617,5.221612338614762,5.341305231722228,5.184509700920457,0.0,0.0,0.0,5.249142423752482,0.0,0.0,0.0,0.0,0.0,0.0,0.0,0.0,0.0,0.0,0.0,0.0,0.0,0.0,
1.9773,5.2287936757609454,5.348610922835237,5.191492034460141,0.0,0.0,0.0,5.256298877685441,0.0,0.0,0.0,0.0,0.0,0.0,0.0,0.0,0.0,0.0,0.0,0.0,0.0,0.0,
1.9929,5.2360731147213775,5.356015600981588,5.198569322422916,0.0,0.0,0.0,5.263552679375294,0.0,0.0,0.0,0.0,0.0,0.0,0.0,0.0,0.0,0.0,0.0,0.0,0.0,0.0,
2.0084,5.243404459417118,5.3634722457451085,5.205696637515157,0.0,0.0,0.0,5.27085778089246,0.0,0.0,0.0,0.0,0.0,0.0,0.0,0.0,0.0,0.0,0.0,0.0,0.0,0.0,
2.024,5.2508837613807975,5.37107851145851,5.212967339328084,0.0,0.0,0.0,5.278309870722464,0.0,0.0,0.0,0.0,0.0,0.0,0.0,0.0,0.0,0.0,0.0,0.0,0.0,0.0,
2.0396,5.258465540970784,5.378788097910132,5.220337192836402,0.0,0.0,0.0,5.285863610572439,0.0,0.0,0.0,0.0,0.0,0.0,0.0,0.0,0.0,0.0,0.0,0.0,0.0,0.0,
2.0551,5.2661017334077735,5.38655209721469,5.227759461226751,0.0,0.0,0.0,5.293471097283071,0.0,0.0,0.0,0.0,0.0,0.0,0.0,0.0,0.0,0.0,0.0,0.0,0.0,0.0,
