energies(eV),real_xx,real_yy,real_zz,real_xy,real_yz,real_xz,real_ave,imag_xx,imag_yy,imag_zz,imag_xy,imag_yz,imag_xz,imag_ave,absorption_xx,absorption_yy,absorption_zz,absorption_xy,absorption_yz,absorption_xz,absorption_ave,band_gap
0.0,2.5074996741262128,2.611587653339632,2.618983824840936,0.0,0.0,0.0,2.579357050768927,0.0,0.0,0.0,0.0,0.0,0.0,0.0,0.0,0.0,0.0,0.0,0.0,0.0,0.0,5.503
0.015,2.5075019555781943,2.611590175160376,2.618986432161412,0.0,0.0,0.0,2.5793595209666607,0.0,0.0,0.0,0.0,0.0,0.0,0.0,0.0,0.0,0.0,0.0,0.0,0.0,0.0,
0.0301,2.5075088609393212,2.611597808053507,2.6189943238425375,0.0,0.0,0.0,2.5793669976117886,0.0,0.0,0.0,0.0,0.0,0.0,0.0,0.0,0.0,0.0,0.0,0.0,0.0,0.0,
0.0451,2.5075202989416274,2.6116104511303204,2.6190073955828725,0.0,0.0,0.0,2.5793793818849404,0.0,0.0,0.0,0.0,0.0,0.0,0.0,0.0,0.0,0.0,0.0,0.0,0.0,0.0,
0.0601,2.5075363004271907,2.6116281384742086,2.6190256826342906,0.0,0.0,0.0,2.5793967071785633,0.0,0.0,0.0,0.0,0.0,0.0,0.0,0.0,0.0,0.0,0.0,0.0,0.0,0.0,
0.0751,2.5075568658455385,2.6116508705705543,2.619049185516759,0.0,0.0,0.0,2.579418973977617,0.0,0.0,0.0,0.0,0.0,0.0,0.0,0.0,0.0,0.0,0.0,0.0,0.0,0.0,
0.0902,2.5075821786252517,2.6116788501580808,2.619078113867154,0.0,0.0,0.0,2.5794463808834958,0.0,0.0,0.0,0.0,0.0,0.0,0.0,0.0,0.0,0.0,0.0,0.0,0.0,0.0,
0.1052,2.5076119042081824,2.61171170741337,2.6191120853503094,0.0,0.0,0.0,2.5794785656572876,0.0,0.0,0.0,0.0,0.0,0.0,0.0,0.0,0.0,0.0,0.0,0.0,0.0,0.0,
0.1202,2.5076461958481797,2.6117496117150165,2.6191512751217756,0.0,0.0,0.0,2.579515694228324,0.0,0.0,0.0,0.0,0.0,0.0,0.0,0.0,0.0,0.0,0.0,0.0,0.0,0.0,
0.1352,2.5076850545090403,2.611792564103706,2.6191956842963906,0.0,0.0,0.0,2.5795577676363792,0.0,0.0,0.0,0.0,0.0,0.0,0.0,0.0,0.0,0.0,0.0,0.0,0.0,0.0,
0.1503,2.5077287861262008,2.6118409027159695,2.6192456625246217,0.0,0.0,0.0,2.5796051171222643,0.0,0.0,0.0,0.0,0.0,0.0,0.0,0.0,0.0,0.0,0.0,0.0,0.0,0.0,
0.1653,2.507776812701187,2.611893988631503,2.6193005492638974,0.0,0.0,0.0,2.5796571168655293,0.0,0.0,0.0,0.0,0.0,0.0,0.0,0.0,0.0,0.0,0.0,0.0,0.0,0.0,
0.1803,2.5078294099697223,2.6119521265996637,2.619360659654415,0.0,0.0,0.0,2.579714065407934,0.0,0.0,0.0,0.0,0.0,0.0,0.0,0.0,0.0,0.0,0.0,0.0,0.0,0.0,
0.1954,2.5078869758867572,2.612015756457076,2.6194264485173475,0.0,0.0,0.0,2.5797763936203935,0.0,0.0,0.0,0.0,0.0,0.0,0.0,0.0,0.0,0.0,0.0,0.0,0.0,0.0,
0.2104,2.5079487496079276,2.61208403717117,2.6194970463485356,0.0,0.0,0.0,2.579843277709211,0.0,0.0,0.0,0.0,0.0,0.0,0.0,0.0,0.0,0.0,0.0,0.0,0.0,0.0,
0.2254,2.5080150988609597,2.6121573751616376,2.6195728734270034,0.0,0.0,0.0,2.5799151158165334,0.0,0.0,0.0,0.0,0.0,0.0,0.0,0.0,0.0,0.0,0.0,0.0,0.0,0.0,
0.2404,2.5080860255140873,2.612235772445401,2.6196539319134553,0.0,0.0,0.0,2.579991909957648,0.0,0.0,0.0,0.0,0.0,0.0,0.0,0.0,0.0,0.0,0.0,0.0,0.0,0.0,
0.2555,2.5081620503099638,2.6123198045598395,2.619740816967279,0.0,0.0,0.0,2.580074223945694,0.0,0.0,0.0,0.0,0.0,0.0,0.0,0.0,0.0,0.0,0.0,0.0,0.0,0.0,
0.2705,2.5082421684375538,2.612408360806855,2.6198323802678223,0.0,0.0,0.0,2.58016096983741,0.0,0.0,0.0,0.0,0.0,0.0,0.0,0.0,0.0,0.0,0.0,0.0,0.0,0.0,
0.2855,2.508326870363873,2.6125019832545187,2.6199291823762563,0.0,0.0,0.0,2.5802526786648827,0.0,0.0,0.0,0.0,0.0,0.0,0.0,0.0,0.0,0.0,0.0,0.0,0.0,0.0,
0.3005,2.5084161584776834,2.612600674481281,2.6200312260549694,0.0,0.0,0.0,2.5803493530046446,0.0,0.0,0.0,0.0,0.0,0.0,0.0,0.0,0.0,0.0,0.0,0.0,0.0,0.0,
0.3156,2.5085106765472505,2.612705145981859,2.6201392470765104,0.0,0.0,0.0,2.5804516898685397,0.0,0.0,0.0,0.0,0.0,0.0,0.0,0.0,0.0,0.0,0.0,0.0,0.0,0.0,
0.3306,2.5086091753427775,2.612814016904302,2.620251817780664,0.0,0.0,0.0,2.5805583366759146,0.0,0.0,0.0,0.0,0.0,0.0,0.0,0.0,0.0,0.0,0.0,0.0,0.0,0.0,
0.3456,2.5087122682950027,2.612927965207038,2.6203696392700686,0.0,0.0,0.0,2.5806699575907026,0.0,0.0,0.0,0.0,0.0,0.0,0.0,0.0,0.0,0.0,0.0,0.0,0.0,0.0,
0.3607,2.5088206916830424,2.613047804614677,2.6204935530557227,0.0,0.0,0.0,2.580787349784481,0.0,0.0,0.0,0.0,0.0,0.0,0.0,0.0,0.0,0.0,0.0,0.0,0.0,0.0,
0.3757,2.508933012497628,2.613171951154699,2.6206219214357467,0.0,0.0,0.0,2.5809089616960246,0.0,0.0,0.0,0.0,0.0,0.0,0.0,0.0,0.0,0.0,0.0,0.0,0.0,0.0,
0.3907,2.5090499366250083,2.6133011849555743,2.6207555511871385,0.0,0.0,0.0,2.58103555758924,0.0,0.0,0.0,0.0,0.0,0.0,0.0,0.0,0.0,0.0,0.0,0.0,0.0,0.0,
0.4057,2.5091714673748697,2.613435509588405,2.6208944461361274,0.0,0.0,0.0,2.5811671410331343,0.0,0.0,0.0,0.0,0.0,0.0,0.0,0.0,0.0,0.0,0.0,0.0,0.0,0.0,
0.4208,2.509298464605479,2.613575875331894,2.621039589046373,0.0,0.0,0.0,2.581304642994582,0.0,0.0,0.0,0.0,0.0,0.0,0.0,0.0,0.0,0.0,0.0,0.0,0.0,0.0,
0.4358,2.5094292498297452,2.61372042691607,2.6211890616514326,0.0,0.0,0.0,2.581446246132416,0.0,0.0,0.0,0.0,0.0,0.0,0.0,0.0,0.0,0.0,0.0,0.0,0.0,0.0,
0.4508,2.509564652427377,2.6138700809307336,2.6213438118816628,0.0,0.0,0.0,2.581592848413258,0.0,0.0,0.0,0.0,0.0,0.0,0.0,0.0,0.0,0.0,0.0,0.0,0.0,0.0,
0.4658,2.509704676241217,2.614024841521151,2.621503844178798,0.0,0.0,0.0,2.5817444539803884,0.0,0.0,0.0,0.0,0.0,0.0,0.0,0.0,0.0,0.0,0.0,0.0,0.0,0.0,
0.4809,2.5098503051041385,2.614185795946221,2.6216702830158933,0.0,0.0,0.0,2.5819021280220844,0.0,0.0,0.0,0.0,0.0,0.0,0.0,0.0,0.0,0.0,0.0,0.0,0.0,0.0,
0.4959,2.5099996142916474,2.6143508168185567,2.621840928683448,0.0,0.0,0.0,2.582063786597884,0.0,0.0,0.0,0.0,0.0,0.0,0.0,0.0,0.0,0.0,0.0,0.0,0.0,0.0,
0.5109,2.510153557058476,2.614520957600516,2.6220168707059672,0.0,0.0,0.0,2.5822304617883196,0.0,0.0,0.0,0.0,0.0,0.0,0.0,0.0,0.0,0.0,0.0,0.0,0.0,0.0,
0.526,2.5103132105648274,2.614697408660742,2.6221993402379487,0.0,0.0,0.0,2.582403319821173,0.0,0.0,0.0,0.0,0.0,0.0,0.0,0.0,0.0,0.0,0.0,0.0,0.0,0.0,
0.541,2.5104764647383186,2.6148778377982644,2.6223859257144855,0.0,0.0,0.0,2.5825800760836892,0.0,0.0,0.0,0.0,0.0,0.0,0.0,0.0,0.0,0.0,0.0,0.0,0.0,0.0,
0.556,2.5106443660772055,2.615063401494588,2.622577823244464,0.0,0.0,0.0,2.5827618636054193,0.0,0.0,0.0,0.0,0.0,0.0,0.0,0.0,0.0,0.0,0.0,0.0,0.0,0.0,
0.571,2.510816919373265,2.615254104915522,2.6227750383639847,0.0,0.0,0.0,2.5829486875509238,0.0,0.0,0.0,0.0,0.0,0.0,0.0,0.0,0.0,0.0,0.0,0.0,0.0,0.0,
0.5861,2.510995326594392,2.6154512763072493,2.6229789448988305,0.0,0.0,0.0,2.583141849266824,0.0,0.0,0.0,0.0,0.0,0.0,0.0,0.0,0.0,0.0,0.0,0.0,0.0,0.0,
0.6011,2.511177229826266,2.615652309620062,2.623186847986039,0.0,0.0,0.0,2.583338795810789,0.0,0.0,0.0,0.0,0.0,0.0,0.0,0.0,0.0,0.0,0.0,0.0,0.0,0.0,
0.6161,2.5113638002507916,2.6158584990789677,2.623400086262193,0.0,0.0,0.0,2.5835407951973175,0.0,0.0,0.0,0.0,0.0,0.0,0.0,0.0,0.0,0.0,0.0,0.0,0.0,0.0,
0.6311,2.511555043212355,2.616069850443237,2.623618665900037,0.0,0.0,0.0,2.58374785318521,0.0,0.0,0.0,0.0,0.0,0.0,0.0,0.0,0.0,0.0,0.0,0.0,0.0,0.0,
0.6462,2.511752286044439,2.61628783043723,2.6238441040404896,0.0,0.0,0.0,2.5839614068407197,0.0,0.0,0.0,0.0,0.0,0.0,0.0,0.0,0.0,0.0,0.0,0.0,0.0,0.0,
0.6612,2.5119529219144736,2.61650955800166,2.6240734212786383,0.0,0.0,0.0,2.584178633731591,0.0,0.0,0.0,0.0,0.0,0.0,0.0,0.0,0.0,0.0,0.0,0.0,0.0,0.0,
0.6762,2.512158247231577,2.6167364656902423,2.624308099406139,0.0,0.0,0.0,2.5844009374426524,0.0,0.0,0.0,0.0,0.0,0.0,0.0,0.0,0.0,0.0,0.0,0.0,0.0,0.0,
0.6913,2.512369683808465,2.616970124577107,2.624549763574775,0.0,0.0,0.0,2.5846298573201154,0.0,0.0,0.0,0.0,0.0,0.0,0.0,0.0,0.0,0.0,0.0,0.0,0.0,0.0,
0.7063,2.5125844372423067,2.6172074463926425,2.6247952199559017,0.0,0.0,0.0,2.5848623678636167,0.0,0.0,0.0,0.0,0.0,0.0,0.0,0.0,0.0,0.0,0.0,0.0,0.0,0.0,
0.7213,2.512803898308169,2.6174499679179792,2.6250460582209194,0.0,0.0,0.0,2.585099974815689,0.0,0.0,0.0,0.0,0.0,0.0,0.0,0.0,0.0,0.0,0.0,0.0,0.0,0.0,
0.7363,2.5130280733397106,2.617697695972952,2.625302285680739,0.0,0.0,0.0,2.5853426849978005,0.0,0.0,0.0,0.0,0.0,0.0,0.0,0.0,0.0,0.0,0.0,0.0,0.0,0.0,
0.7514,2.5132585106384555,2.6179523413183716,2.6255656720980047,0.0,0.0,0.0,2.585592174684944,0.0,0.0,0.0,0.0,0.0,0.0,0.0,0.0,0.0,0.0,0.0,0.0,0.0,0.0,
0.7664,2.5134921647135795,2.6182105383363243,2.6258327365956378,0.0,0.0,0.0,2.5858451465485137,0.0,0.0,0.0,0.0,0.0,0.0,0.0,0.0,0.0,0.0,0.0,0.0,0.0,0.0,
0.7814,2.5137305526651192,2.618473963317669,2.626105213266435,0.0,0.0,0.0,2.5861032430830746,0.0,0.0,0.0,0.0,0.0,0.0,0.0,0.0,0.0,0.0,0.0,0.0,0.0,0.0,
0.7964,2.513973681406127,2.618742623702308,2.626383110086965,0.0,0.0,0.0,2.5863664717318,0.0,0.0,0.0,0.0,0.0,0.0,0.0,0.0,0.0,0.0,0.0,0.0,0.0,0.0,
0.8115,2.5142232264544724,2.6190183707197123,2.6266683422694808,0.0,0.0,0.0,2.586636646481222,0.0,0.0,0.0,0.0,0.0,0.0,0.0,0.0,0.0,0.0,0.0,0.0,0.0,0.0,
0.8265,2.5144758898249093,2.6192975598888513,2.6269571402646514,0.0,0.0,0.0,2.586910196659471,0.0,0.0,0.0,0.0,0.0,0.0,0.0,0.0,0.0,0.0,0.0,0.0,0.0,0.0,
0.8415,2.5147333156549676,2.6195820077763314,2.627251383408117,0.0,0.0,0.0,2.5871889022798054,0.0,0.0,0.0,0.0,0.0,0.0,0.0,0.0,0.0,0.0,0.0,0.0,0.0,0.0,
0.8565,2.5149955114488582,2.6198717224536896,2.627551080354802,0.0,0.0,0.0,2.5874727714191166,0.0,0.0,0.0,0.0,0.0,0.0,0.0,0.0,0.0,0.0,0.0,0.0,0.0,0.0,
0.8716,2.515264280732037,2.620168696469361,2.6278582926785106,0.0,0.0,0.0,2.5877637566266363,0.0,0.0,0.0,0.0,0.0,0.0,0.0,0.0,0.0,0.0,0.0,0.0,0.0,0.0,
0.8866,2.515536071494382,2.6204690048313806,2.6281689603911422,0.0,0.0,0.0,2.5880580122389683,0.0,0.0,0.0,0.0,0.0,0.0,0.0,0.0,0.0,0.0,0.0,0.0,0.0,0.0,
0.9016,2.5158126556870073,2.620774605216119,2.6284851089656307,0.0,0.0,0.0,2.588357456622919,0.0,0.0,0.0,0.0,0.0,0.0,0.0,0.0,0.0,0.0,0.0,0.0,0.0,0.0,
0.9167,2.516095933453286,2.6210875968202507,2.628808910451654,0.0,0.0,0.0,2.588664146908397,0.0,0.0,0.0,0.0,0.0,0.0,0.0,0.0,0.0,0.0,0.0,0.0,0.0,0.0,
0.9317,2.516382161077355,2.621403842988326,2.629136085663619,0.0,0.0,0.0,2.588974029909767,0.0,0.0,0.0,0.0,0.0,0.0,0.0,0.0,0.0,0.0,0.0,0.0,0.0,0.0,
0.9467,2.5166732069724596,2.6217254078769887,2.6294687703703485,0.0,0.0,0.0,2.5892891284065986,0.0,0.0,0.0,0.0,0.0,0.0,0.0,0.0,0.0,0.0,0.0,0.0,0.0,0.0,
0.9617,2.516969079709182,2.6220523006945515,2.6298069744483246,0.0,0.0,0.0,2.5896094516173527,0.0,0.0,0.0,0.0,0.0,0.0,0.0,0.0,0.0,0.0,0.0,0.0,0.0,0.0,
0.9768,2.5172718089816106,2.622386763613341,2.630153018085876,0.0,0.0,0.0,2.5899371968936094,0.0,0.0,0.0,0.0,0.0,0.0,0.0,0.0,0.0,0.0,0.0,0.0,0.0,0.0,
0.9918,2.5175773940632338,2.622724376255012,2.630502328214658,0.0,0.0,0.0,2.590268032844301,0.0,0.0,0.0,0.0,0.0,0.0,0.0,0.0,0.0,0.0,0.0,0.0,0.0,0.0,
1.0068,2.517887832696588,2.623067345513229,2.630857188486357,0.0,0.0,0.0,2.5906041222320577,0.0,0.0,0.0,0.0,0.0,0.0,0.0,0.0,0.0,0.0,0.0,0.0,0.0,0.0,
1.0218,2.5182031340815736,2.6234156812655254,2.631217609497001,0.0,0.0,0.0,2.5909454749480334,0.0,0.0,0.0,0.0,0.0,0.0,0.0,0.0,0.0,0.0,0.0,0.0,0.0,0.0,
1.0369,2.518525458437571,2.6237717697050194,2.6315860606950183,0.0,0.0,0.0,2.591294429612536,0.0,0.0,0.0,0.0,0.0,0.0,0.0,0.0,0.0,0.0,0.0,0.0,0.0,0.0,
1.0519,2.5188505461413624,2.624130904703435,2.6319576729552745,0.0,0.0,0.0,2.591646374600024,0.0,0.0,0.0,0.0,0.0,0.0,0.0,0.0,0.0,0.0,0.0,0.0,0.0,0.0,
1.0669,2.5191805252231205,2.624495436919343,2.6323348789152856,0.0,0.0,0.0,2.5920036136859164,0.0,0.0,0.0,0.0,0.0,0.0,0.0,0.0,0.0,0.0,0.0,0.0,0.0,0.0,
1.082,2.5195176545324083,2.624867861352218,2.6327202608150193,0.0,0.0,0.0,2.5923685922332154,0.0,0.0,0.0,0.0,0.0,0.0,0.0,0.0,0.0,0.0,0.0,0.0,0.0,0.0,
1.097,2.519857478845903,2.625243256024789,2.633108725842913,0.0,0.0,0.0,2.592736486904535,0.0,0.0,0.0,0.0,0.0,0.0,0.0,0.0,0.0,0.0,0.0,0.0,0.0,0.0,
1.112,2.520202224634809,2.6256240801984223,2.6335028192096948,0.0,0.0,0.0,2.5931097080143086,0.0,0.0,0.0,0.0,0.0,0.0,0.0,0.0,0.0,0.0,0.0,0.0,0.0,0.0,
1.127,2.520551902240531,2.6260103449612346,2.6339025528136046,0.0,0.0,0.0,2.59348826667179,0.0,0.0,0.0,0.0,0.0,0.0,0.0,0.0,0.0,0.0,0.0,0.0,0.0,0.0,
1.1421,2.5209089029127574,2.626404691342106,2.634310660310397,0.0,0.0,0.0,2.5938747515217533,0.0,0.0,0.0,0.0,0.0,0.0,0.0,0.0,0.0,0.0,0.0,0.0,0.0,0.0,
1.1571,2.5212685089027964,2.6268019077176934,2.6347217486521997,0.0,0.0,0.0,2.5942640550908966,0.0,0.0,0.0,0.0,0.0,0.0,0.0,0.0,0.0,0.0,0.0,0.0,0.0,0.0,
1.1721,2.5216330788150474,2.6272045990916295,2.635138514157627,0.0,0.0,0.0,2.5946587306881015,0.0,0.0,0.0,0.0,0.0,0.0,0.0,0.0,0.0,0.0,0.0,0.0,0.0,0.0,
1.1871,2.5220026236682367,2.6276127772682987,2.6355609694958804,0.0,0.0,0.0,2.5950587901441384,0.0,0.0,0.0,0.0,0.0,0.0,0.0,0.0,0.0,0.0,0.0,0.0,0.0,0.0,
1.2022,2.5223796682831265,2.6280292305589574,2.6359920010835842,0.0,0.0,0.0,2.5954669666418897,0.0,0.0,0.0,0.0,0.0,0.0,0.0,0.0,0.0,0.0,0.0,0.0,0.0,0.0,
1.2172,2.5227592301193784,2.6284484552634657,2.6364259130283543,0.0,0.0,0.0,2.5958778661370663,0.0,0.0,0.0,0.0,0.0,0.0,0.0,0.0,0.0,0.0,0.0,0.0,0.0,0.0,
1.2322,2.5231438010682203,2.6288732033624007,2.636865554082074,0.0,0.0,0.0,2.596294186170898,0.0,0.0,0.0,0.0,0.0,0.0,0.0,0.0,0.0,0.0,0.0,0.0,0.0,0.0,
1.2473,2.5235360069986523,2.6293063745608265,2.637313926230523,0.0,0.0,0.0,2.596718769263334,0.0,0.0,0.0,0.0,0.0,0.0,0.0,0.0,0.0,0.0,0.0,0.0,0.0,0.0,
1.2623,2.523930665090499,2.629742244290459,2.637765104509288,0.0,0.0,0.0,2.597146004630082,0.0,0.0,0.0,0.0,0.0,0.0,0.0,0.0,0.0,0.0,0.0,0.0,0.0,0.0,
1.2773,2.524330368058263,2.6301836756840578,2.638222052980165,0.0,0.0,0.0,2.5975786989074954,0.0,0.0,0.0,0.0,0.0,0.0,0.0,0.0,0.0,0.0,0.0,0.0,0.0,0.0,
1.2923,2.5247351281557178,2.6306306818478973,2.638684785714408,0.0,0.0,0.0,2.598016865239341,0.0,0.0,0.0,0.0,0.0,0.0,0.0,0.0,0.0,0.0,0.0,0.0,0.0,0.0,
1.3074,2.525147707055492,2.631086312155357,2.639156460020635,0.0,0.0,0.0,2.5984634930771615,0.0,0.0,0.0,0.0,0.0,0.0,0.0,0.0,0.0,0.0,0.0,0.0,0.0,0.0,
1.3224,2.5255626528257404,2.6315445453333437,2.6396308431227267,0.0,0.0,0.0,2.59891268042727,0.0,0.0,0.0,0.0,0.0,0.0,0.0,0.0,0.0,0.0,0.0,0.0,0.0,0.0,
1.3374,2.5259826936687384,2.6320083938439955,2.640111054041654,0.0,0.0,0.0,2.5993673805181294,0.0,0.0,0.0,0.0,0.0,0.0,0.0,0.0,0.0,0.0,0.0,0.0,0.0,0.0,
1.3524,2.526407842574944,2.6324778715675334,2.6405971076826855,0.0,0.0,0.0,2.599827607275054,0.0,0.0,0.0,0.0,0.0,0.0,0.0,0.0,0.0,0.0,0.0,0.0,0.0,0.0,
1.3675,2.526840998404621,2.632956179022737,2.6410923182637354,0.0,0.0,0.0,2.6002964985636976,0.0,0.0,0.0,0.0,0.0,0.0,0.0,0.0,0.0,0.0,0.0,0.0,0.0,0.0,
1.3825,2.527276437436784,2.633436995366999,2.6415901421215233,0.0,0.0,0.0,2.6007678583084357,0.0,0.0,0.0,0.0,0.0,0.0,0.0,0.0,0.0,0.0,0.0,0.0,0.0,0.0,
1.3975,2.5277170247267806,2.6339234838490624,2.6420938548012787,0.0,0.0,0.0,2.601244787792374,0.0,0.0,0.0,0.0,0.0,0.0,0.0,0.0,0.0,0.0,0.0,0.0,0.0,0.0,
1.4126,2.5281657630410885,2.63441895943145,2.6426068893658705,0.0,0.0,0.0,2.6017305372794697,0.0,0.0,0.0,0.0,0.0,0.0,0.0,0.0,0.0,0.0,0.0,0.0,0.0,0.0,
1.4276,2.5286167228501446,2.63491687448835,2.6431224667296567,0.0,0.0,0.0,2.602218688022717,0.0,0.0,0.0,0.0,0.0,0.0,0.0,0.0,0.0,0.0,0.0,0.0,0.0,0.0,
1.4426,2.5290728728517156,2.635420506429621,2.643643980979448,0.0,0.0,0.0,2.6027124534202613,0.0,0.0,0.0,0.0,0.0,0.0,0.0,0.0,0.0,0.0,0.0,0.0,0.0,0.0,
1.4576,2.5295342273865224,2.6359298705489955,2.644171448544642,0.0,0.0,0.0,2.6032118488267195,0.0,0.0,0.0,0.0,0.0,0.0,0.0,0.0,0.0,0.0,0.0,0.0,0.0,0.0,
1.4727,2.5300039290311513,2.6364484357486924,2.6447084623996107,0.0,0.0,0.0,2.603720275726485,0.0,0.0,0.0,0.0,0.0,0.0,0.0,0.0,0.0,0.0,0.0,0.0,0.0,0.0,
1.4877,2.5304757713955888,2.6369693494151907,2.6452479267528988,0.0,0.0,0.0,2.6042310158545594,0.0,0.0,0.0,0.0,0.0,0.0,0.0,0.0,0.0,0.0,0.0,0.0,0.0,0.0,
1.5027,2.530952862618732,2.6374960425031513,2.6457933951788304,0.0,0.0,0.0,2.604747433433571,0.0,0.0,0.0,0.0,0.0,0.0,0.0,0.0,0.0,0.0,0.0,0.0,0.0,0.0,
1.5177,2.5314352178507713,2.6380285311504794,2.6463448850175704,0.0,0.0,0.0,2.6052695446729404,0.0,0.0,0.0,0.0,0.0,0.0,0.0,0.0,0.0,0.0,0.0,0.0,0.0,0.0,
1.5328,2.5319261210958848,2.638570439919879,2.646906151004264,0.0,0.0,0.0,2.605800904006676,0.0,0.0,0.0,0.0,0.0,0.0,0.0,0.0,0.0,0.0,0.0,0.0,0.0,0.0,
1.5478,2.5324190859770823,2.6391146078747054,2.6474697770587308,0.0,0.0,0.0,2.606334490303506,0.0,0.0,0.0,0.0,0.0,0.0,0.0,0.0,0.0,0.0,0.0,0.0,0.0,0.0,
1.5628,2.53291736167137,2.639664621213548,2.648039478068733,0.0,0.0,0.0,2.6068738203178836,0.0,0.0,0.0,0.0,0.0,0.0,0.0,0.0,0.0,0.0,0.0,0.0,0.0,0.0,
1.5779,2.5334243394292972,2.6402242224959416,2.6486191314329703,0.0,0.0,0.0,2.6074225644527362,0.0,0.0,0.0,0.0,0.0,0.0,0.0,0.0,0.0,0.0,0.0,0.0,0.0,0.0,
1.5929,2.533933320609149,2.640786017114902,2.649201078250467,0.0,0.0,0.0,2.607973471991506,0.0,0.0,0.0,0.0,0.0,0.0,0.0,0.0,0.0,0.0,0.0,0.0,0.0,0.0,
1.6079,2.534447661328033,2.6413537089386736,2.649789155721111,0.0,0.0,0.0,2.6085301753292724,0.0,0.0,0.0,0.0,0.0,0.0,0.0,0.0,0.0,0.0,0.0,0.0,0.0,0.0,
1.6229,2.534967378227416,2.6419273156540846,2.6503833828571635,0.0,0.0,0.0,2.609092692246221,0.0,0.0,0.0,0.0,0.0,0.0,0.0,0.0,0.0,0.0,0.0,0.0,0.0,0.0,
1.638,2.5354960070374997,2.642510738722013,2.6509878023021702,0.0,0.0,0.0,2.6096648493538943,0.0,0.0,0.0,0.0,0.0,0.0,0.0,0.0,0.0,0.0,0.0,0.0,0.0,0.0,
1.653,2.5360265632334906,2.64309626893278,2.6515944281185453,0.0,0.0,0.0,2.6102390867616054,0.0,0.0,0.0,0.0,0.0,0.0,0.0,0.0,0.0,0.0,0.0,0.0,0.0,0.0,
1.668,2.5365625469848347,2.6436877685999525,2.6522072622611557,0.0,0.0,0.0,2.6108191926153146,0.0,0.0,0.0,0.0,0.0,0.0,0.0,0.0,0.0,0.0,0.0,0.0,0.0,0.0,
1.683,2.5371039758314917,2.6442852563396197,2.6528263247459534,0.0,0.0,0.0,2.611405185639022,0.0,0.0,0.0,0.0,0.0,0.0,0.0,0.0,0.0,0.0,0.0,0.0,0.0,0.0,
1.6981,2.537654531859301,2.6448927945022866,2.653455825599508,0.0,0.0,0.0,2.612001050653699,0.0,0.0,0.0,0.0,0.0,0.0,0.0,0.0,0.0,0.0,0.0,0.0,0.0,0.0,
1.7131,2.5382069410385,2.6455023554248664,2.6540874477084535,0.0,0.0,0.0,2.61259891472394,0.0,0.0,0.0,0.0,0.0,0.0,0.0,0.0,0.0,0.0,0.0,0.0,0.0,0.0,
1.7281,2.5387648494441897,2.646117961830844,2.654725359895175,0.0,0.0,0.0,2.613202723723403,0.0,0.0,0.0,0.0,0.0,0.0,0.0,0.0,0.0,0.0,0.0,0.0,0.0,0.0,
1.7432,2.5393320502827272,2.6467437981732536,2.6553738992650233,0.0,0.0,0.0,2.613816582573668,0.0,0.0,0.0,0.0,0.0,0.0,0.0,0.0,0.0,0.0,0.0,0.0,0.0,0.0,
1.7582,2.5399010497802417,2.647371595167191,2.6560244973365905,0.0,0.0,0.0,2.614432380761341,0.0,0.0,0.0,0.0,0.0,0.0,0.0,0.0,0.0,0.0,0.0,0.0,0.0,0.0,
1.7732,2.5404756047792327,2.6480054972626808,2.656681449606912,0.0,0.0,0.0,2.615054183882942,0.0,0.0,0.0,0.0,0.0,0.0,0.0,0.0,0.0,0.0,0.0,0.0,0.0,0.0,
1.7882,2.5410557344832325,2.6486455247886136,2.657344777942973,0.0,0.0,0.0,2.6156820124049394,0.0,0.0,0.0,0.0,0.0,0.0,0.0,0.0,0.0,0.0,0.0,0.0,0.0,0.0,
1.8033,2.5416453819844547,2.6492960268211747,2.6580189908494534,0.0,0.0,0.0,2.616320133218361,0.0,0.0,0.0,0.0,0.0,0.0,0.0,0.0,0.0,0.0,0.0,0.0,0.0,0.0,
1.8183,2.542236757193557,2.6499484083951663,2.658695180898185,0.0,0.0,0.0,2.6169601154956363,0.0,0.0,0.0,0.0,0.0,0.0,0.0,0.0,0.0,0.0,0.0,0.0,0.0,0.0,
1.8333,2.542833766346965,2.650606978060606,2.6593778144231193,0.0,0.0,0.0,2.617606186276897,0.0,0.0,0.0,0.0,0.0,0.0,0.0,0.0,0.0,0.0,0.0,0.0,0.0,0.0,
1.8483,2.5434364296555136,2.6512717571785416,2.6600669144072526,0.0,0.0,0.0,2.618258367080436,0.0,0.0,0.0,0.0,0.0,0.0,0.0,0.0,0.0,0.0,0.0,0.0,0.0,0.0,
1.8634,2.544048842262497,2.6519472617331674,2.6607671632133494,0.0,0.0,0.0,2.6189210890696715,0.0,0.0,0.0,0.0,0.0,0.0,0.0,0.0,0.0,0.0,0.0,0.0,0.0,0.0,
1.8784,2.5446629135892636,2.6526245666589805,2.661469309712051,0.0,0.0,0.0,2.619585596653432,0.0,0.0,0.0,0.0,0.0,0.0,0.0,0.0,0.0,0.0,0.0,0.0,0.0,0.0,
1.8934,2.5452827014061254,2.653308146864685,2.6621779935046876,0.0,0.0,0.0,2.6202562805918324,0.0,0.0,0.0,0.0,0.0,0.0,0.0,0.0,0.0,0.0,0.0,0.0,0.0,0.0,
1.9085,2.545912416448559,2.6540026451553307,2.6628980291101807,0.0,0.0,0.0,2.62093769690469,0.0,0.0,0.0,0.0,0.0,0.0,0.0,0.0,0.0,0.0,0.0,0.0,0.0,0.0,
1.9235,2.5465437397743047,2.6546988857162734,2.663619904213263,0.0,0.0,0.0,2.6216208432346138,0.0,0.0,0.0,0.0,0.0,0.0,0.0,0.0,0.0,0.0,0.0,0.0,0.0,0.0,
1.9385,2.5471808443404917,2.655401469847094,2.6643483901088985,0.0,0.0,0.0,2.6223102347654947,0.0,0.0,0.0,0.0,0.0,0.0,0.0,0.0,0.0,0.0,0.0,0.0,0.0,0.0,
1.9535,2.5478237522323233,2.656110420819759,2.6650835118472784,0.0,0.0,0.0,2.6230058949664534,0.0,0.0,0.0,0.0,0.0,0.0,0.0,0.0,0.0,0.0,0.0,0.0,0.0,0.0,
