energies(eV),real_xx,real_yy,real_zz,real_xy,real_yz,real_xz,real_ave,imag_xx,imag_yy,imag_zz,imag_xy,imag_yz,imag_xz,imag_ave,absorption_xx,absorption_yy,absorption_zz,absorption_xy,absorption_yz,absorption_xz,absorption_ave,band_gap
0.0,3.0658333772917667,3.0658333772917667,2.8873365736910905,0.0,0.0,0.0,3.006334442758208,0.0,0.0,0.0,0.0,0.0,0.0,0.0,0.0,0.0,0.0,0.0,0.0,0.0,0.0,6.8263
0.0195,3.065839604314549,3.065839604314549,2.8873416836839643,0.0,0.0,0.0,3.006340297437687,0.0,0.0,0.0,0.0,0.0,0.0,0.0,0.0,0.0,0.0,0.0,0.0,0.0,0.0,
0.039,3.0658582856953758,3.0658582856953758,2.887357013896052,0.0,0.0,0.0,3.006357861762268,0.0,0.0,0.0,0.0,0.0,0.0,0.0,0.0,0.0,0.0,0.0,0.0,0.0,0.0,
0.0585,3.065889422371857,3.065889422371857,2.88738256502771,0.0,0.0,0.0,3.0063871365904746,0.0,0.0,0.0,0.0,0.0,0.0,0.0,0.0,0.0,0.0,0.0,0.0,0.0,0.0,
0.078,3.0659330159067917,3.0659330159067917,2.8874183382463094,0.0,0.0,0.0,3.0064281233532975,0.0,0.0,0.0,0.0,0.0,0.0,0.0,0.0,0.0,0.0,0.0,0.0,0.0,0.0,
0.0975,3.0659890684884368,3.0659890684884368,2.887464335186392,0.0,0.0,0.0,3.0064808240544223,0.0,0.0,0.0,0.0,0.0,0.0,0.0,0.0,0.0,0.0,0.0,0.0,0.0,0.0,
0.117,3.066057582930785,3.066057582930785,2.887520557949912,0.0,0.0,0.0,3.006545241270494,0.0,0.0,0.0,0.0,0.0,0.0,0.0,0.0,0.0,0.0,0.0,0.0,0.0,0.0,
0.1364,3.066138115588251,3.066138115588251,2.8875866422342145,0.0,0.0,0.0,3.006620957803572,0.0,0.0,0.0,0.0,0.0,0.0,0.0,0.0,0.0,0.0,0.0,0.0,0.0,0.0,
0.1559,3.0662315007423513,3.0662315007423513,2.887663272344041,0.0,0.0,0.0,3.006708757942915,0.0,0.0,0.0,0.0,0.0,0.0,0.0,0.0,0.0,0.0,0.0,0.0,0.0,0.0,
0.1754,3.0663373599326267,3.0663373599326267,2.8877501373714347,0.0,0.0,0.0,3.0068082857455622,0.0,0.0,0.0,0.0,0.0,0.0,0.0,0.0,0.0,0.0,0.0,0.0,0.0,0.0,
0.1949,3.0664556984779963,3.0664556984779963,2.8878472412889846,0.0,0.0,0.0,3.0069195460816593,0.0,0.0,0.0,0.0,0.0,0.0,0.0,0.0,0.0,0.0,0.0,0.0,0.0,0.0,
0.2144,3.06658652232605,3.06658652232605,2.8879545885386584,0.0,0.0,0.0,3.0070425443969193,0.0,0.0,0.0,0.0,0.0,0.0,0.0,0.0,0.0,0.0,0.0,0.0,0.0,0.0,
0.2339,3.066729838053988,3.066729838053988,2.8880721840325325,0.0,0.0,0.0,3.007177286713503,0.0,0.0,0.0,0.0,0.0,0.0,0.0,0.0,0.0,0.0,0.0,0.0,0.0,0.0,
0.2534,3.066885652869582,3.066885652869582,2.8882000331533346,0.0,0.0,0.0,3.0073237796308327,0.0,0.0,0.0,0.0,0.0,0.0,0.0,0.0,0.0,0.0,0.0,0.0,0.0,0.0,
0.2729,3.067053974612242,3.067053974612242,2.8883381417552734,0.0,0.0,0.0,3.0074820303265857,0.0,0.0,0.0,0.0,0.0,0.0,0.0,0.0,0.0,0.0,0.0,0.0,0.0,0.0,
0.2924,3.067234811754168,3.067234811754168,2.8884865161647193,0.0,0.0,0.0,3.0076520465576855,0.0,0.0,0.0,0.0,0.0,0.0,0.0,0.0,0.0,0.0,0.0,0.0,0.0,0.0,
0.3119,3.067428173401545,3.067428173401545,2.8886451631811765,0.0,0.0,0.0,3.0078338366614226,0.0,0.0,0.0,0.0,0.0,0.0,0.0,0.0,0.0,0.0,0.0,0.0,0.0,0.0,
0.3314,3.067634069295939,3.067634069295939,2.888814090078146,0.0,0.0,0.0,3.008027409556675,0.0,0.0,0.0,0.0,0.0,0.0,0.0,0.0,0.0,0.0,0.0,0.0,0.0,0.0,
0.3509,3.0678525098157285,3.0678525098157285,2.8889933046040706,0.0,0.0,0.0,3.008232774745176,0.0,0.0,0.0,0.0,0.0,0.0,0.0,0.0,0.0,0.0,0.0,0.0,0.0,0.0,
0.3704,3.0680835059775626,3.0680835059775626,2.8891828149834984,0.0,0.0,0.0,3.008449942312874,0.0,0.0,0.0,0.0,0.0,0.0,0.0,0.0,0.0,0.0,0.0,0.0,0.0,0.0,
0.3899,3.0683270694380824,3.0683270694380824,2.8893826299180834,0.0,0.0,0.0,3.0086789229314164,0.0,0.0,0.0,0.0,0.0,0.0,0.0,0.0,0.0,0.0,0.0,0.0,0.0,0.0,
0.4093,3.068581866829777,3.068581866829777,2.8895916546788865,0.0,0.0,0.0,3.00891846277948,0.0,0.0,0.0,0.0,0.0,0.0,0.0,0.0,0.0,0.0,0.0,0.0,0.0,0.0,
0.4288,3.068850537814755,3.068850537814755,2.889812053777493,0.0,0.0,0.0,3.0091710431356677,0.0,0.0,0.0,0.0,0.0,0.0,0.0,0.0,0.0,0.0,0.0,0.0,0.0,0.0,
0.4483,3.0691318148542956,3.0691318148542956,2.89004278635817,0.0,0.0,0.0,3.009435472022254,0.0,0.0,0.0,0.0,0.0,0.0,0.0,0.0,0.0,0.0,0.0,0.0,0.0,0.0,
0.4678,3.0694257121795903,3.0694257121795903,2.890283863041232,0.0,0.0,0.0,3.009711762466804,0.0,0.0,0.0,0.0,0.0,0.0,0.0,0.0,0.0,0.0,0.0,0.0,0.0,0.0,
0.4873,3.069732244671393,3.069732244671393,2.8905352949307264,0.0,0.0,0.0,3.0099999280911707,0.0,0.0,0.0,0.0,0.0,0.0,0.0,0.0,0.0,0.0,0.0,0.0,0.0,0.0,
0.5068,3.0700514278621296,3.0700514278621296,2.8907970936159586,0.0,0.0,0.0,3.0102999831134056,0.0,0.0,0.0,0.0,0.0,0.0,0.0,0.0,0.0,0.0,0.0,0.0,0.0,0.0,
0.5263,3.0703832779381988,3.0703832779381988,2.89106927117305,0.0,0.0,0.0,3.0106119423498163,0.0,0.0,0.0,0.0,0.0,0.0,0.0,0.0,0.0,0.0,0.0,0.0,0.0,0.0,
0.5458,3.070727811742458,3.070727811742458,2.8913518401666347,0.0,0.0,0.0,3.0109358212171835,0.0,0.0,0.0,0.0,0.0,0.0,0.0,0.0,0.0,0.0,0.0,0.0,0.0,0.0,
0.5653,3.0710850467766715,3.0710850467766715,2.8916448136515247,0.0,0.0,0.0,3.0112716357349556,0.0,0.0,0.0,0.0,0.0,0.0,0.0,0.0,0.0,0.0,0.0,0.0,0.0,0.0,
0.5848,3.0714550012041286,3.0714550012041286,2.8919482051745478,0.0,0.0,0.0,3.0116194025276015,0.0,0.0,0.0,0.0,0.0,0.0,0.0,0.0,0.0,0.0,0.0,0.0,0.0,0.0,
0.6043,3.071837693852333,3.071837693852333,2.8922620287764005,0.0,0.0,0.0,3.0119791388270216,0.0,0.0,0.0,0.0,0.0,0.0,0.0,0.0,0.0,0.0,0.0,0.0,0.0,0.0,
0.6238,3.0722331442158537,3.0722331442158537,2.892586298993572,0.0,0.0,0.0,3.012350862475093,0.0,0.0,0.0,0.0,0.0,0.0,0.0,0.0,0.0,0.0,0.0,0.0,0.0,0.0,
0.6433,3.0726413724592403,3.0726413724592403,2.8929210308603532,0.0,0.0,0.0,3.0127345919262782,0.0,0.0,0.0,0.0,0.0,0.0,0.0,0.0,0.0,0.0,0.0,0.0,0.0,0.0,
0.6628,3.0730623994199946,3.0730623994199946,2.8932662399109037,0.0,0.0,0.0,3.0131303462502976,0.0,0.0,0.0,0.0,0.0,0.0,0.0,0.0,0.0,0.0,0.0,0.0,0.0,0.0,
0.6822,3.0734939890132167,3.0734939890132167,2.893620091271641,0.0,0.0,0.0,3.0135360230993578,0.0,0.0,0.0,0.0,0.0,0.0,0.0,0.0,0.0,0.0,0.0,0.0,0.0,0.0,
0.7017,3.0739406127126463,3.0739406127126463,2.893986249363288,0.0,0.0,0.0,3.013955824929527,0.0,0.0,0.0,0.0,0.0,0.0,0.0,0.0,0.0,0.0,0.0,0.0,0.0,0.0,
0.7212,3.0744001015927327,3.0744001015927327,2.894362934173584,0.0,0.0,0.0,3.0143877124530163,0.0,0.0,0.0,0.0,0.0,0.0,0.0,0.0,0.0,0.0,0.0,0.0,0.0,0.0,
0.7407,3.0748724792117597,3.0748724792117597,2.8947501632558037,0.0,0.0,0.0,3.0148317072264406,0.0,0.0,0.0,0.0,0.0,0.0,0.0,0.0,0.0,0.0,0.0,0.0,0.0,0.0,
0.7602,3.0753577698176997,3.0753577698176997,2.8951479546745524,0.0,0.0,0.0,3.0152878314366505,0.0,0.0,0.0,0.0,0.0,0.0,0.0,0.0,0.0,0.0,0.0,0.0,0.0,0.0,
0.7797,3.0758559983519285,3.0758559983519285,2.8955563270082836,0.0,0.0,0.0,3.0157561079040467,0.0,0.0,0.0,0.0,0.0,0.0,0.0,0.0,0.0,0.0,0.0,0.0,0.0,0.0,
0.7992,3.07636719045295,3.07636719045295,2.8959752993519277,0.0,0.0,0.0,3.0162365600859427,0.0,0.0,0.0,0.0,0.0,0.0,0.0,0.0,0.0,0.0,0.0,0.0,0.0,0.0,
0.8187,3.076891372460287,3.076891372460287,2.8964048913195026,0.0,0.0,0.0,3.0167292120800258,0.0,0.0,0.0,0.0,0.0,0.0,0.0,0.0,0.0,0.0,0.0,0.0,0.0,0.0,
0.8382,3.077428571418549,3.077428571418549,2.8968451230469645,0.0,0.0,0.0,3.017234088628021,0.0,0.0,0.0,0.0,0.0,0.0,0.0,0.0,0.0,0.0,0.0,0.0,0.0,0.0,
0.8577,3.077978815081522,3.077978815081522,2.897296015194909,0.0,0.0,0.0,3.017751215119318,0.0,0.0,0.0,0.0,0.0,0.0,0.0,0.0,0.0,0.0,0.0,0.0,0.0,0.0,
0.8772,3.078542131916391,3.078542131916391,2.897757588951577,0.0,0.0,0.0,3.0182806175947863,0.0,0.0,0.0,0.0,0.0,0.0,0.0,0.0,0.0,0.0,0.0,0.0,0.0,0.0,
0.8967,3.079118551108186,3.079118551108186,2.898229866035786,0.0,0.0,0.0,3.018822322750719,0.0,0.0,0.0,0.0,0.0,0.0,0.0,0.0,0.0,0.0,0.0,0.0,0.0,0.0,
0.9162,3.079708102564162,3.079708102564162,2.8987128687000605,0.0,0.0,0.0,3.019376357942795,0.0,0.0,0.0,0.0,0.0,0.0,0.0,0.0,0.0,0.0,0.0,0.0,0.0,0.0,
0.9357,3.080310816918493,3.080310816918493,2.8992066197337047,0.0,0.0,0.0,3.0199427511902304,0.0,0.0,0.0,0.0,0.0,0.0,0.0,0.0,0.0,0.0,0.0,0.0,0.0,0.0,
0.9551,3.0809235333191043,3.0809235333191043,2.899708527651687,0.0,0.0,0.0,3.0205185314299654,0.0,0.0,0.0,0.0,0.0,0.0,0.0,0.0,0.0,0.0,0.0,0.0,0.0,0.0,
0.9746,3.0815526003932194,3.0815526003932194,2.900223790531881,0.0,0.0,0.0,3.0211096637727732,0.0,0.0,0.0,0.0,0.0,0.0,0.0,0.0,0.0,0.0,0.0,0.0,0.0,0.0,
0.9941,3.0821949265070177,3.0821949265070177,2.9007498732765082,0.0,0.0,0.0,3.0217132420968476,0.0,0.0,0.0,0.0,0.0,0.0,0.0,0.0,0.0,0.0,0.0,0.0,0.0,0.0,
1.0136,3.082850545246895,3.082850545246895,2.9012868008525228,0.0,0.0,0.0,3.022329297115437,0.0,0.0,0.0,0.0,0.0,0.0,0.0,0.0,0.0,0.0,0.0,0.0,0.0,0.0,
1.0331,3.0835194909509416,3.0835194909509416,2.901834598780763,0.0,0.0,0.0,3.022957860227549,0.0,0.0,0.0,0.0,0.0,0.0,0.0,0.0,0.0,0.0,0.0,0.0,0.0,0.0,
1.0526,3.084201798714405,3.084201798714405,2.902393293139502,0.0,0.0,0.0,3.0235989635227707,0.0,0.0,0.0,0.0,0.0,0.0,0.0,0.0,0.0,0.0,0.0,0.0,0.0,0.0,
1.0721,3.0848975043951588,3.0848975043951588,2.902962910568296,0.0,0.0,0.0,3.0242526397862046,0.0,0.0,0.0,0.0,0.0,0.0,0.0,0.0,0.0,0.0,0.0,0.0,0.0,0.0,
1.0916,3.0856066446192574,3.0856066446192574,2.903543478271786,0.0,0.0,0.0,3.0249189225034336,0.0,0.0,0.0,0.0,0.0,0.0,0.0,0.0,0.0,0.0,0.0,0.0,0.0,0.0,
1.1111,3.086329256786869,3.086329256786869,2.9041350240236348,0.0,0.0,0.0,3.025597845865791,0.0,0.0,0.0,0.0,0.0,0.0,0.0,0.0,0.0,0.0,0.0,0.0,0.0,0.0,
1.1306,3.0870653790779636,3.0870653790779636,2.904737576170567,0.0,0.0,0.0,3.026289444775498,0.0,0.0,0.0,0.0,0.0,0.0,0.0,0.0,0.0,0.0,0.0,0.0,0.0,0.0,
1.1501,3.0878150504586026,3.0878150504586026,2.905351163636491,0.0,0.0,0.0,3.026993754851232,0.0,0.0,0.0,0.0,0.0,0.0,0.0,0.0,0.0,0.0,0.0,0.0,0.0,0.0,
1.1696,3.088578310686898,3.088578310686898,2.905975815926725,0.0,0.0,0.0,3.0277108124335066,0.0,0.0,0.0,0.0,0.0,0.0,0.0,0.0,0.0,0.0,0.0,0.0,0.0,0.0,
1.1891,3.0893552003194644,3.0893552003194644,2.906611563132294,0.0,0.0,0.0,3.028440654590408,0.0,0.0,0.0,0.0,0.0,0.0,0.0,0.0,0.0,0.0,0.0,0.0,0.0,0.0,
1.2086,3.090145760717921,3.090145760717921,2.9072584359343194,0.0,0.0,0.0,3.029183319123387,0.0,0.0,0.0,0.0,0.0,0.0,0.0,0.0,0.0,0.0,0.0,0.0,0.0,0.0,
1.228,3.090945874523152,3.090945874523152,2.907913062582992,0.0,0.0,0.0,3.0299349372097653,0.0,0.0,0.0,0.0,0.0,0.0,0.0,0.0,0.0,0.0,0.0,0.0,0.0,0.0,
1.2475,3.091763833136976,3.091763833136976,2.908582223544057,0.0,0.0,0.0,3.030703296606003,0.0,0.0,0.0,0.0,0.0,0.0,0.0,0.0,0.0,0.0,0.0,0.0,0.0,0.0,
1.267,3.09259559127142,3.09259559127142,2.909262605563355,0.0,0.0,0.0,3.031484596035398,0.0,0.0,0.0,0.0,0.0,0.0,0.0,0.0,0.0,0.0,0.0,0.0,0.0,0.0,
1.2865,3.093441193571452,3.093441193571452,2.909954241725523,0.0,0.0,0.0,3.032278876289476,0.0,0.0,0.0,0.0,0.0,0.0,0.0,0.0,0.0,0.0,0.0,0.0,0.0,0.0,
1.306,3.094300685521551,3.094300685521551,2.9106571657289093,0.0,0.0,0.0,3.033086178924004,0.0,0.0,0.0,0.0,0.0,0.0,0.0,0.0,0.0,0.0,0.0,0.0,0.0,0.0,
1.3255,3.0951741134532282,3.0951741134532282,2.911371411890606,0.0,0.0,0.0,3.0339065462656873,0.0,0.0,0.0,0.0,0.0,0.0,0.0,0.0,0.0,0.0,0.0,0.0,0.0,0.0,
1.345,3.0960615245525434,3.0960615245525434,2.912097015151515,0.0,0.0,0.0,3.0347400214188673,0.0,0.0,0.0,0.0,0.0,0.0,0.0,0.0,0.0,0.0,0.0,0.0,0.0,0.0,
1.3645,3.096962966867836,3.096962966867836,2.912834011081671,0.0,0.0,0.0,3.0355866482724476,0.0,0.0,0.0,0.0,0.0,0.0,0.0,0.0,0.0,0.0,0.0,0.0,0.0,0.0,
1.384,3.0978784893176217,3.0978784893176217,2.9135824358855666,0.0,0.0,0.0,3.036446471506937,0.0,0.0,0.0,0.0,0.0,0.0,0.0,0.0,0.0,0.0,0.0,0.0,0.0,0.0,
1.4035,3.098808141698622,3.098808141698622,2.9143423264076387,0.0,0.0,0.0,3.0373195366016277,0.0,0.0,0.0,0.0,0.0,0.0,0.0,0.0,0.0,0.0,0.0,0.0,0.0,0.0,
1.423,3.0997519746941324,3.0997519746941324,2.9151137201378226,0.0,0.0,0.0,3.038205889842029,0.0,0.0,0.0,0.0,0.0,0.0,0.0,0.0,0.0,0.0,0.0,0.0,0.0,0.0,
1.4425,3.100710039882253,3.100710039882253,2.9158966552173275,0.0,0.0,0.0,3.0391055783272782,0.0,0.0,0.0,0.0,0.0,0.0,0.0,0.0,0.0,0.0,0.0,0.0,0.0,0.0,
1.462,3.1016823897446706,3.1016823897446706,2.916691170444396,0.0,0.0,0.0,3.0400186499779127,0.0,0.0,0.0,0.0,0.0,0.0,0.0,0.0,0.0,0.0,0.0,0.0,0.0,0.0,
1.4815,3.102669077675298,3.102669077675298,2.917497305280294,0.0,0.0,0.0,3.04094515354363,0.0,0.0,0.0,0.0,0.0,0.0,0.0,0.0,0.0,0.0,0.0,0.0,0.0,0.0,
1.5009,3.103664987436516,3.103664987436516,2.918310876224626,0.0,0.0,0.0,3.041880283699219,0.0,0.0,0.0,0.0,0.0,0.0,0.0,0.0,0.0,0.0,0.0,0.0,0.0,0.0,
1.5204,3.104680441146585,3.104680441146585,2.919140311236357,0.0,0.0,0.0,3.042833731176509,0.0,0.0,0.0,0.0,0.0,0.0,0.0,0.0,0.0,0.0,0.0,0.0,0.0,0.0,
1.5399,3.1057103983804106,3.1057103983804106,2.9199814880655017,0.0,0.0,0.0,3.043800761608774,0.0,0.0,0.0,0.0,0.0,0.0,0.0,0.0,0.0,0.0,0.0,0.0,0.0,0.0,
1.5594,3.106754916267701,3.106754916267701,2.920834448883725,0.0,0.0,0.0,3.044781427139709,0.0,0.0,0.0,0.0,0.0,0.0,0.0,0.0,0.0,0.0,0.0,0.0,0.0,0.0,
1.5789,3.107814052897148,3.107814052897148,2.9216992365572736,0.0,0.0,0.0,3.045775780783856,0.0,0.0,0.0,0.0,0.0,0.0,0.0,0.0,0.0,0.0,0.0,0.0,0.0,0.0,
1.5984,3.1088878673263607,3.1088878673263607,2.922575894653686,0.0,0.0,0.0,3.046783876435469,0.0,0.0,0.0,0.0,0.0,0.0,0.0,0.0,0.0,0.0,0.0,0.0,0.0,0.0,
1.6179,3.1099764195919906,3.1099764195919906,2.9234644674486465,0.0,0.0,0.0,3.047805768877543,0.0,0.0,0.0,0.0,0.0,0.0,0.0,0.0,0.0,0.0,0.0,0.0,0.0,0.0,
1.6374,3.1110797707201434,3.1110797707201434,2.9243649999329593,0.0,0.0,0.0,3.048841513791082,0.0,0.0,0.0,0.0,0.0,0.0,0.0,0.0,0.0,0.0,0.0,0.0,0.0,0.0,
1.6569,3.1121979827368818,3.1121979827368818,2.92527753781969,0.0,0.0,0.0,3.049891167764484,0.0,0.0,0.0,0.0,0.0,0.0,0.0,0.0,0.0,0.0,0.0,0.0,0.0,0.0,
1.6764,3.1133311186790293,3.1133311186790293,2.926202127551445,0.0,0.0,0.0,3.050954788303168,0.0,0.0,0.0,0.0,0.0,0.0,0.0,0.0,0.0,0.0,0.0,0.0,0.0,0.0,
1.6959,3.114479242605235,3.114479242605235,2.9271388163077265,0.0,0.0,0.0,3.0520324338393987,0.0,0.0,0.0,0.0,0.0,0.0,0.0,0.0,0.0,0.0,0.0,0.0,0.0,0.0,
1.7154,3.1156424196071373,3.1156424196071373,2.9280876520125707,0.0,0.0,0.0,3.053124163742282,0.0,0.0,0.0,0.0,0.0,0.0,0.0,0.0,0.0,0.0,0.0,0.0,0.0,0.0,
1.7349,3.1168207158208654,3.1168207158208654,2.9290486833422094,0.0,0.0,0.0,3.05423003832798,0.0,0.0,0.0,0.0,0.0,0.0,0.0,0.0,0.0,0.0,0.0,0.0,0.0,0.0,
1.7544,3.1180141984387175,3.1180141984387175,2.9300219597329686,0.0,0.0,0.0,3.0553501188701344,0.0,0.0,0.0,0.0,0.0,0.0,0.0,0.0,0.0,0.0,0.0,0.0,0.0,0.0,
1.7738,3.1192166980372686,3.1192166980372686,2.931002445724872,0.0,0.0,0.0,3.056478613933136,0.0,0.0,0.0,0.0,0.0,0.0,0.0,0.0,0.0,0.0,0.0,0.0,0.0,0.0,
1.7933,3.1204406805615226,3.1204406805615226,2.932000300181958,0.0,0.0,0.0,3.0576272204350006,0.0,0.0,0.0,0.0,0.0,0.0,0.0,0.0,0.0,0.0,0.0,0.0,0.0,0.0,
1.8128,3.121680057160423,3.121680057160423,2.933010552383137,0.0,0.0,0.0,3.058790222234661,0.0,0.0,0.0,0.0,0.0,0.0,0.0,0.0,0.0,0.0,0.0,0.0,0.0,0.0,
1.8323,3.122934899367111,3.122934899367111,2.934033254882772,0.0,0.0,0.0,3.059967684538998,0.0,0.0,0.0,0.0,0.0,0.0,0.0,0.0,0.0,0.0,0.0,0.0,0.0,0.0,
1.8518,3.124205279832992,3.124205279832992,2.935068461037019,0.0,0.0,0.0,3.0611596735676674,0.0,0.0,0.0,0.0,0.0,0.0,0.0,0.0,0.0,0.0,0.0,0.0,0.0,0.0,
1.8713,3.125491272340911,3.125491272340911,2.936116225012589,0.0,0.0,0.0,3.062366256564804,0.0,0.0,0.0,0.0,0.0,0.0,0.0,0.0,0.0,0.0,0.0,0.0,0.0,0.0,
1.8908,3.126792951818667,3.126792951818667,2.937176601795869,0.0,0.0,0.0,3.0635875018110674,0.0,0.0,0.0,0.0,0.0,0.0,0.0,0.0,0.0,0.0,0.0,0.0,0.0,0.0,
1.9103,3.128110394352718,3.128110394352718,2.93824964720205,0.0,0.0,0.0,3.064823478635829,0.0,0.0,0.0,0.0,0.0,0.0,0.0,0.0,0.0,0.0,0.0,0.0,0.0,0.0,
1.9298,3.1294436772022434,3.1294436772022434,2.939335417884538,0.0,0.0,0.0,3.066074257429675,0.0,0.0,0.0,0.0,0.0,0.0,0.0,0.0,0.0,0.0,0.0,0.0,0.0,0.0,
1.9493,3.130792878813408,3.130792878813408,2.940433971344468,0.0,0.0,0.0,3.0673399096570946,0.0,0.0,0.0,0.0,0.0,0.0,0.0,0.0,0.0,0.0,0.0,0.0,0.0,0.0,
1.9688,3.1321580788339443,3.1321580788339443,2.941545365940533,0.0,0.0,0.0,3.0686205078694737,0.0,0.0,0.0,0.0,0.0,0.0,0.0,0.0,0.0,0.0,0.0,0.0,0.0,0.0,
1.9883,3.1335393581280595,3.1335393581280595,2.9426696608988525,0.0,0.0,0.0,3.069916125718324,0.0,0.0,0.0,0.0,0.0,0.0,0.0,0.0,0.0,0.0,0.0,0.0,0.0,0.0,
2.0078,3.1349367987916446,3.1349367987916446,2.9438069163231697,0.0,0.0,0.0,3.0712268379688195,0.0,0.0,0.0,0.0,0.0,0.0,0.0,0.0,0.0,0.0,0.0,0.0,0.0,0.0,
2.0273,3.136350484167762,3.136350484167762,2.94495719320511,0.0,0.0,0.0,3.0725527205135443,0.0,0.0,0.0,0.0,0.0,0.0,0.0,0.0,0.0,0.0,0.0,0.0,0.0,0.0,
2.0467,3.137773123653252,3.137773123653252,2.946114554003783,0.0,0.0,0.0,3.0738869337700954,0.0,0.0,0.0,0.0,0.0,0.0,0.0,0.0,0.0,0.0,0.0,0.0,0.0,0.0,
2.0662,3.1392194691497566,3.1392194691497566,2.9472909928026687,0.0,0.0,0.0,3.075243310367394,0.0,0.0,0.0,0.0,0.0,0.0,0.0,0.0,0.0,0.0,0.0,0.0,0.0,0.0,
2.0857,3.1406823165802242,3.1406823165802242,2.94848064113904,0.0,0.0,0.0,3.076615091433163,0.0,0.0,0.0,0.0,0.0,0.0,0.0,0.0,0.0,0.0,0.0,0.0,0.0,0.0,
2.1052,3.1421617544309313,3.1421617544309313,2.94968356365891,0.0,0.0,0.0,3.0780023575069237,0.0,0.0,0.0,0.0,0.0,0.0,0.0,0.0,0.0,0.0,0.0,0.0,0.0,0.0,
2.1247,3.143657872517594,3.143657872517594,2.950899825951023,0.0,0.0,0.0,3.0794051903287367,0.0,0.0,0.0,0.0,0.0,0.0,0.0,0.0,0.0,0.0,0.0,0.0,0.0,0.0,
2.1442,3.145170762002853,3.145170762002853,2.9521294945583865,0.0,0.0,0.0,3.0808236728546974,0.0,0.0,0.0,0.0,0.0,0.0,0.0,0.0,0.0,0.0,0.0,0.0,0.0,0.0,
2.1637,3.1467005154140546,3.1467005154140546,2.953372636990167,0.0,0.0,0.0,3.082257889272759,0.0,0.0,0.0,0.0,0.0,0.0,0.0,0.0,0.0,0.0,0.0,0.0,0.0,0.0,
2.1832,3.1482472266615162,3.1482472266615162,2.954629321733761,0.0,0.0,0.0,3.083707925018931,0.0,0.0,0.0,0.0,0.0,0.0,0.0,0.0,0.0,0.0,0.0,0.0,0.0,0.0,
2.2027,3.1498109910570906,3.1498109910570906,2.9558996182670656,0.0,0.0,0.0,3.085173866793749,0.0,0.0,0.0,0.0,0.0,0.0,0.0,0.0,0.0,0.0,0.0,0.0,0.0,0.0,
2.2222,3.151391905333107,3.151391905333107,2.9571835970711087,0.0,0.0,0.0,3.0866558025791075,0.0,0.0,0.0,0.0,0.0,0.0,0.0,0.0,0.0,0.0,0.0,0.0,0.0,0.0,
2.2417,3.1529900676617477,3.1529900676617477,2.95848132964281,0.0,0.0,0.0,3.0881538216554354,0.0,0.0,0.0,0.0,0.0,0.0,0.0,0.0,0.0,0.0,0.0,0.0,0.0,0.0,
2.2612,3.1546055776747925,3.1546055776747925,2.959792888508086,0.0,0.0,0.0,3.0896680146192232,0.0,0.0,0.0,0.0,0.0,0.0,0.0,0.0,0.0,0.0,0.0,0.0,0.0,0.0,
2.2807,3.1562385364837384,3.1562385364837384,2.9611183472350935,0.0,0.0,0.0,3.0911984734008566,0.0,0.0,0.0,0.0,0.0,0.0,0.0,0.0,0.0,0.0,0.0,0.0,0.0,0.0,
2.3002,3.1578890467003755,3.1578890467003755,2.9624577804479264,0.0,0.0,0.0,3.0927452912828923,0.0,0.0,0.0,0.0,0.0,0.0,0.0,0.0,0.0,0.0,0.0,0.0,0.0,0.0,
2.3196,3.15954861254459,3.15954861254459,2.9638042869288084,0.0,0.0,0.0,3.0943005040059965,0.0,0.0,0.0,0.0,0.0,0.0,0.0,0.0,0.0,0.0,0.0,0.0,0.0,0.0,
2.3391,3.1612344481632864,3.1612344481632864,2.96517182463496,0.0,0.0,0.0,3.0958802403205112,0.0,0.0,0.0,0.0,0.0,0.0,0.0,0.0,0.0,0.0,0.0,0.0,0.0,0.0,
2.3586,3.1629381516850383,3.1629381516850383,2.966553566772215,0.0,0.0,0.0,3.0974766233807642,0.0,0.0,0.0,0.0,0.0,0.0,0.0,0.0,0.0,0.0,0.0,0.0,0.0,0.0,
2.3781,3.164659831928955,3.164659831928955,2.9679495923238037,0.0,0.0,0.0,3.0990897520605714,0.0,0.0,0.0,0.0,0.0,0.0,0.0,0.0,0.0,0.0,0.0,0.0,0.0,0.0,
2.3976,3.1663995993237566,3.1663995993237566,2.9693599814008618,0.0,0.0,0.0,3.1007197266827915,0.0,0.0,0.0,0.0,0.0,0.0,0.0,0.0,0.0,0.0,0.0,0.0,0.0,0.0,
2.4171,3.1681575659309518,3.1681575659309518,2.970784815257738,0.0,0.0,0.0,3.102366649039881,0.0,0.0,0.0,0.0,0.0,0.0,0.0,0.0,0.0,0.0,0.0,0.0,0.0,0.0,
2.4366,3.169933845468672,3.169933845468672,2.972224176307588,0.0,0.0,0.0,3.1040306224149767,0.0,0.0,0.0,0.0,0.0,0.0,0.0,0.0,0.0,0.0,0.0,0.0,0.0,0.0,
2.4561,3.171728553335889,3.171728553335889,2.973678148138342,0.0,0.0,0.0,3.105711751603373,0.0,0.0,0.0,0.0,0.0,0.0,0.0,0.0,0.0,0.0,0.0,0.0,0.0,0.0,
2.4756,3.1735418066370484,3.1735418066370484,2.9751468155288987,0.0,0.0,0.0,3.107410142934332,0.0,0.0,0.0,0.0,0.0,0.0,0.0,0.0,0.0,0.0,0.0,0.0,0.0,0.0,
2.4951,3.1753737242075366,3.1753737242075366,2.97663026446567,0.0,0.0,0.0,3.109125904293581,0.0,0.0,0.0,0.0,0.0,0.0,0.0,0.0,0.0,0.0,0.0,0.0,0.0,0.0,
2.5146,3.1772244266393592,3.1772244266393592,2.9781285821595684,0.0,0.0,0.0,3.1108591451460956,0.0,0.0,0.0,0.0,0.0,0.0,0.0,0.0,0.0,0.0,0.0,0.0,0.0,0.0,
2.5341,3.179094036307485,3.179094036307485,2.979641857063212,0.0,0.0,0.0,3.112609976559394,0.0,0.0,0.0,0.0,0.0,0.0,0.0,0.0,0.0,0.0,0.0,0.0,0.0,0.0,
