energies(eV),real_xx,real_yy,real_zz,real_xy,real_yz,real_xz,real_ave,imag_xx,imag_yy,imag_zz,imag_xy,imag_yz,imag_xz,imag_ave,absorption_xx,absorption_yy,absorption_zz,absorption_xy,absorption_yz,absorption_xz,absorption_ave,band_gap
0.0,3.3191838882583804,3.3191838882583804,2.953321923927335,0.0,0.0,0.0,3.197229900148032,0.0,0.0,0.0,0.0,0.0,0.0,0.0,0.0,0.0,0.0,0.0,0.0,0.0,0.0,6.0812
0.0196,3.3191923902491283,3.3191923902491283,2.9533280755595976,0.0,0.0,0.0,3.1972376186859512,0.0,0.0,0.0,0.0,0.0,0.0,0.0,0.0,0.0,0.0,0.0,0.0,0.0,0.0,
0.0391,3.3192177234664584,3.3192177234664584,2.9533464054124634,0.0,0.0,0.0,3.1972606174484604,0.0,0.0,0.0,0.0,0.0,0.0,0.0,0.0,0.0,0.0,0.0,0.0,0.0,0.0,
0.0587,3.3192601493491853,3.3192601493491853,2.953377102509023,0.0,0.0,0.0,3.197299133735798,0.0,0.0,0.0,0.0,0.0,0.0,0.0,0.0,0.0,0.0,0.0,0.0,0.0,0.0,
0.0782,3.3193192376463685,3.3193192376463685,2.9534198553092597,0.0,0.0,0.0,3.197352776867332,0.0,0.0,0.0,0.0,0.0,0.0,0.0,0.0,0.0,0.0,0.0,0.0,0.0,0.0,
0.0978,3.319395598150141,3.319395598150141,2.953475104693643,0.0,0.0,0.0,3.1974221003313086,0.0,0.0,0.0,0.0,0.0,0.0,0.0,0.0,0.0,0.0,0.0,0.0,0.0,0.0,
0.1174,3.3194889760897355,3.3194889760897355,2.953542665899211,0.0,0.0,0.0,3.197506872692894,0.0,0.0,0.0,0.0,0.0,0.0,0.0,0.0,0.0,0.0,0.0,0.0,0.0,0.0,
0.1369,3.319598770912783,3.319598770912783,2.95362210390221,0.0,0.0,0.0,3.197606548575925,0.0,0.0,0.0,0.0,0.0,0.0,0.0,0.0,0.0,0.0,0.0,0.0,0.0,0.0,
0.1565,3.3197261157079048,3.3197261157079048,2.953714237895073,0.0,0.0,0.0,3.1977221564369613,0.0,0.0,0.0,0.0,0.0,0.0,0.0,0.0,0.0,0.0,0.0,0.0,0.0,0.0,
0.1761,3.319870498957329,3.319870498957329,2.9538186970750795,0.0,0.0,0.0,3.1978532316632458,0.0,0.0,0.0,0.0,0.0,0.0,0.0,0.0,0.0,0.0,0.0,0.0,0.0,0.0,
0.1956,3.3200310629371663,3.3200310629371663,2.953934860108462,0.0,0.0,0.0,3.1979989953275982,0.0,0.0,0.0,0.0,0.0,0.0,0.0,0.0,0.0,0.0,0.0,0.0,0.0,0.0,
0.2152,3.320209464686588,3.320209464686588,2.9540639249148626,0.0,0.0,0.0,3.198160951429346,0.0,0.0,0.0,0.0,0.0,0.0,0.0,0.0,0.0,0.0,0.0,0.0,0.0,0.0,
0.2347,3.3204038950148984,3.3204038950148984,2.954204581649675,0.0,0.0,0.0,3.1983374572264904,0.0,0.0,0.0,0.0,0.0,0.0,0.0,0.0,0.0,0.0,0.0,0.0,0.0,0.0,
0.2543,3.3206163604766634,3.3206163604766634,2.9543582808274866,0.0,0.0,0.0,3.198530333926938,0.0,0.0,0.0,0.0,0.0,0.0,0.0,0.0,0.0,0.0,0.0,0.0,0.0,0.0,
0.2739,3.320845921089588,3.320845921089588,2.954524341238562,0.0,0.0,0.0,3.1987387278059125,0.0,0.0,0.0,0.0,0.0,0.0,0.0,0.0,0.0,0.0,0.0,0.0,0.0,0.0,
0.2934,3.321091289520245,3.321091289520245,2.9547018304134207,0.0,0.0,0.0,3.19896146981797,0.0,0.0,0.0,0.0,0.0,0.0,0.0,0.0,0.0,0.0,0.0,0.0,0.0,0.0,
0.313,3.321354998038366,3.321354998038366,2.95489257871367,0.0,0.0,0.0,3.1992008582634672,0.0,0.0,0.0,0.0,0.0,0.0,0.0,0.0,0.0,0.0,0.0,0.0,0.0,0.0,
0.3326,3.3216358488421562,3.3216358488421562,2.9550957182046886,0.0,0.0,0.0,3.1994558052963336,0.0,0.0,0.0,0.0,0.0,0.0,0.0,0.0,0.0,0.0,0.0,0.0,0.0,0.0,
0.3521,3.3219322958267625,3.3219322958267625,2.9553101290865875,0.0,0.0,0.0,3.199724906913371,0.0,0.0,0.0,0.0,0.0,0.0,0.0,0.0,0.0,0.0,0.0,0.0,0.0,0.0,
0.3717,3.3222473984441008,3.3222473984441008,2.9555380224986108,0.0,0.0,0.0,3.200010939795604,0.0,0.0,0.0,0.0,0.0,0.0,0.0,0.0,0.0,0.0,0.0,0.0,0.0,0.0,
0.3912,3.3225779613007345,3.3225779613007345,2.9557770856655114,0.0,0.0,0.0,3.2003110027556603,0.0,0.0,0.0,0.0,0.0,0.0,0.0,0.0,0.0,0.0,0.0,0.0,0.0,0.0,
0.4108,3.3229273959702903,3.3229273959702903,2.9560297839749303,0.0,0.0,0.0,3.200628191971837,0.0,0.0,0.0,0.0,0.0,0.0,0.0,0.0,0.0,0.0,0.0,0.0,0.0,0.0,
0.4304,3.3232940735460788,3.3232940735460788,2.9562949373993956,0.0,0.0,0.0,3.200961028163851,0.0,0.0,0.0,0.0,0.0,0.0,0.0,0.0,0.0,0.0,0.0,0.0,0.0,0.0,
0.4499,3.323676014786263,3.323676014786263,2.9565711127539642,0.0,0.0,0.0,3.20130771410883,0.0,0.0,0.0,0.0,0.0,0.0,0.0,0.0,0.0,0.0,0.0,0.0,0.0,0.0,
0.4695,3.3240771615787135,3.3240771615787135,2.956861158190012,0.0,0.0,0.0,3.2016718271158133,0.0,0.0,0.0,0.0,0.0,0.0,0.0,0.0,0.0,0.0,0.0,0.0,0.0,0.0,
0.489,3.3244934460831055,3.3244934460831055,2.9571621302462114,0.0,0.0,0.0,3.202049674137474,0.0,0.0,0.0,0.0,0.0,0.0,0.0,0.0,0.0,0.0,0.0,0.0,0.0,0.0,
0.5086,3.3249291646845887,3.3249291646845887,2.9574771328282106,0.0,0.0,0.0,3.2024451540657957,0.0,0.0,0.0,0.0,0.0,0.0,0.0,0.0,0.0,0.0,0.0,0.0,0.0,0.0,
0.5282,3.3253822548447953,3.3253822548447953,2.9578046722036238,0.0,0.0,0.0,3.202856393964405,0.0,0.0,0.0,0.0,0.0,0.0,0.0,0.0,0.0,0.0,0.0,0.0,0.0,0.0,
0.5477,3.3258503010923195,3.3258503010923195,2.9581429998317237,0.0,0.0,0.0,3.2032812006721207,0.0,0.0,0.0,0.0,0.0,0.0,0.0,0.0,0.0,0.0,0.0,0.0,0.0,0.0,
0.5673,3.3263381341316154,3.3263381341316154,2.9584956049197544,0.0,0.0,0.0,3.203723957727662,0.0,0.0,0.0,0.0,0.0,0.0,0.0,0.0,0.0,0.0,0.0,0.0,0.0,0.0,
0.5869,3.3268434296578246,3.3268434296578246,2.9588608044925575,0.0,0.0,0.0,3.204182554602736,0.0,0.0,0.0,0.0,0.0,0.0,0.0,0.0,0.0,0.0,0.0,0.0,0.0,0.0,
0.6064,3.327363508596895,3.327363508596895,2.9592366596005393,0.0,0.0,0.0,3.204654558931443,0.0,0.0,0.0,0.0,0.0,0.0,0.0,0.0,0.0,0.0,0.0,0.0,0.0,0.0,
0.626,3.327903738803626,3.327903738803626,2.9596270465453616,0.0,0.0,0.0,3.2051448413842043,0.0,0.0,0.0,0.0,0.0,0.0,0.0,0.0,0.0,0.0,0.0,0.0,0.0,0.0,
0.6455,3.3284586423719165,3.3284586423719165,2.9600280037529214,0.0,0.0,0.0,3.2056484294989183,0.0,0.0,0.0,0.0,0.0,0.0,0.0,0.0,0.0,0.0,0.0,0.0,0.0,0.0,
0.6651,3.3290339466834094,3.3290339466834094,2.9604436664640823,0.0,0.0,0.0,3.2061705199436337,0.0,0.0,0.0,0.0,0.0,0.0,0.0,0.0,0.0,0.0,0.0,0.0,0.0,0.0,
0.6847,3.3296268883224256,3.3296268883224256,2.9608720345065187,0.0,0.0,0.0,3.2067086037171233,0.0,0.0,0.0,0.0,0.0,0.0,0.0,0.0,0.0,0.0,0.0,0.0,0.0,0.0,
0.7042,3.330234345573969,3.330234345573969,2.961310849493171,0.0,0.0,0.0,3.2072598468803695,0.0,0.0,0.0,0.0,0.0,0.0,0.0,0.0,0.0,0.0,0.0,0.0,0.0,0.0,
0.7238,3.330862588414466,3.330862588414466,2.961764637204336,0.0,0.0,0.0,3.207829938011089,0.0,0.0,0.0,0.0,0.0,0.0,0.0,0.0,0.0,0.0,0.0,0.0,0.0,0.0,
0.7434,3.3315085878313786,3.3315085878313786,2.962231205785195,0.0,0.0,0.0,3.208416127149318,0.0,0.0,0.0,0.0,0.0,0.0,0.0,0.0,0.0,0.0,0.0,0.0,0.0,0.0,
0.7629,3.3321689541052937,3.3321689541052937,2.962708103639609,0.0,0.0,0.0,3.209015337283399,0.0,0.0,0.0,0.0,0.0,0.0,0.0,0.0,0.0,0.0,0.0,0.0,0.0,0.0,
0.7825,3.3328505035213642,3.3328505035213642,2.9632002494352836,0.0,0.0,0.0,3.2096337521593377,0.0,0.0,0.0,0.0,0.0,0.0,0.0,0.0,0.0,0.0,0.0,0.0,0.0,0.0,
0.802,3.333546325721589,3.333546325721589,2.963702649265942,0.0,0.0,0.0,3.2102651002363736,0.0,0.0,0.0,0.0,0.0,0.0,0.0,0.0,0.0,0.0,0.0,0.0,0.0,0.0,
0.8216,3.3342636031161783,3.3342636031161783,2.964220484909794,0.0,0.0,0.0,3.2109158970473834,0.0,0.0,0.0,0.0,0.0,0.0,0.0,0.0,0.0,0.0,0.0,0.0,0.0,0.0,
0.8412,3.3349988602773815,3.3349988602773815,2.964751242665929,0.0,0.0,0.0,3.2115829877402304,0.0,0.0,0.0,0.0,0.0,0.0,0.0,0.0,0.0,0.0,0.0,0.0,0.0,0.0,
0.8607,3.3357482565649343,3.3357482565649343,2.9652921462379003,0.0,0.0,0.0,3.212262886455923,0.0,0.0,0.0,0.0,0.0,0.0,0.0,0.0,0.0,0.0,0.0,0.0,0.0,0.0,
0.8803,3.3365195276500574,3.3365195276500574,2.965848774682362,0.0,0.0,0.0,3.212962609994159,0.0,0.0,0.0,0.0,0.0,0.0,0.0,0.0,0.0,0.0,0.0,0.0,0.0,0.0,
0.8999,3.3373089275582584,3.3373089275582584,2.9664184194681966,0.0,0.0,0.0,3.2136787581949045,0.0,0.0,0.0,0.0,0.0,0.0,0.0,0.0,0.0,0.0,0.0,0.0,0.0,0.0,
0.9194,3.338112342093781,3.338112342093781,2.966998107564761,0.0,0.0,0.0,3.214407597250774,0.0,0.0,0.0,0.0,0.0,0.0,0.0,0.0,0.0,0.0,0.0,0.0,0.0,0.0,
0.939,3.338938064832923,3.338938064832923,2.967593818237021,0.0,0.0,0.0,3.215156649300956,0.0,0.0,0.0,0.0,0.0,0.0,0.0,0.0,0.0,0.0,0.0,0.0,0.0,0.0,
0.9585,3.33977772439912,3.33977772439912,2.968199507133097,0.0,0.0,0.0,3.2159183186437788,0.0,0.0,0.0,0.0,0.0,0.0,0.0,0.0,0.0,0.0,0.0,0.0,0.0,0.0,
0.9781,3.340639988744497,3.340639988744497,2.9688214218336135,0.0,0.0,0.0,3.2167004664408694,0.0,0.0,0.0,0.0,0.0,0.0,0.0,0.0,0.0,0.0,0.0,0.0,0.0,0.0,
0.9977,3.3415206562630195,3.3415206562630195,2.969456526106274,0.0,0.0,0.0,3.217499279544105,0.0,0.0,0.0,0.0,0.0,0.0,0.0,0.0,0.0,0.0,0.0,0.0,0.0,0.0,
1.0172,3.3424151515902163,3.3424151515902163,2.9701015157193,0.0,0.0,0.0,3.218310606299911,0.0,0.0,0.0,0.0,0.0,0.0,0.0,0.0,0.0,0.0,0.0,0.0,0.0,0.0,
1.0368,3.343332709132971,3.343332709132971,2.9707630438490735,0.0,0.0,0.0,3.2191428207050055,0.0,0.0,0.0,0.0,0.0,0.0,0.0,0.0,0.0,0.0,0.0,0.0,0.0,0.0,
1.0563,3.3442640271057145,3.3442640271057145,2.97143439869344,0.0,0.0,0.0,3.219987484301623,0.0,0.0,0.0,0.0,0.0,0.0,0.0,0.0,0.0,0.0,0.0,0.0,0.0,0.0,
1.0759,3.3452187203328463,3.3452187203328463,2.9721225055484286,0.0,0.0,0.0,3.2208533154047068,0.0,0.0,0.0,0.0,0.0,0.0,0.0,0.0,0.0,0.0,0.0,0.0,0.0,0.0,
1.0955,3.3461921247983173,3.3461921247983173,2.9728239961816163,0.0,0.0,0.0,3.2217360819260836,0.0,0.0,0.0,0.0,0.0,0.0,0.0,0.0,0.0,0.0,0.0,0.0,0.0,0.0,
1.115,3.3471791965109023,3.3471791965109023,2.9735352304379408,0.0,0.0,0.0,3.2226312078199153,0.0,0.0,0.0,0.0,0.0,0.0,0.0,0.0,0.0,0.0,0.0,0.0,0.0,0.0,
1.1346,3.3481901263531704,3.3481901263531704,2.9742635452504373,0.0,0.0,0.0,3.2235479326522594,0.0,0.0,0.0,0.0,0.0,0.0,0.0,0.0,0.0,0.0,0.0,0.0,0.0,0.0,
1.1542,3.349219969172546,3.349219969172546,2.9750053708412283,0.0,0.0,0.0,3.2244817697287735,0.0,0.0,0.0,0.0,0.0,0.0,0.0,0.0,0.0,0.0,0.0,0.0,0.0,0.0,
1.1737,3.350263395770941,3.350263395770941,2.9757568629444062,0.0,0.0,0.0,3.2254278848287625,0.0,0.0,0.0,0.0,0.0,0.0,0.0,0.0,0.0,0.0,0.0,0.0,0.0,0.0,
1.1933,3.351331179379514,3.351331179379514,2.9765257740817646,0.0,0.0,0.0,3.226396044280264,0.0,0.0,0.0,0.0,0.0,0.0,0.0,0.0,0.0,0.0,0.0,0.0,0.0,0.0,
1.2128,3.3524124966497006,3.3524124966497006,2.9773043037319002,0.0,0.0,0.0,3.2273764323437675,0.0,0.0,0.0,0.0,0.0,0.0,0.0,0.0,0.0,0.0,0.0,0.0,0.0,0.0,
1.2324,3.3535185124064215,3.3535185124064215,2.978100483556586,0.0,0.0,0.0,3.2283791694564763,0.0,0.0,0.0,0.0,0.0,0.0,0.0,0.0,0.0,0.0,0.0,0.0,0.0,0.0,
1.252,3.354643806514757,3.354643806514757,2.9789104038206577,0.0,0.0,0.0,3.2293993389500577,0.0,0.0,0.0,0.0,0.0,0.0,0.0,0.0,0.0,0.0,0.0,0.0,0.0,0.0,
1.2715,3.355782567423191,3.355782567423191,2.9797298756626915,0.0,0.0,0.0,3.230431670169691,0.0,0.0,0.0,0.0,0.0,0.0,0.0,0.0,0.0,0.0,0.0,0.0,0.0,0.0,
1.2911,3.3569465537017584,3.3569465537017584,2.9805673534808994,0.0,0.0,0.0,3.2314868202948053,0.0,0.0,0.0,0.0,0.0,0.0,0.0,0.0,0.0,0.0,0.0,0.0,0.0,0.0,
1.3107,3.3581300558677483,3.3581300558677483,2.981418720804623,0.0,0.0,0.0,3.2325596108467067,0.0,0.0,0.0,0.0,0.0,0.0,0.0,0.0,0.0,0.0,0.0,0.0,0.0,0.0,
1.3302,3.359326968230655,3.359326968230655,2.982279579026781,0.0,0.0,0.0,3.233644505162697,0.0,0.0,0.0,0.0,0.0,0.0,0.0,0.0,0.0,0.0,0.0,0.0,0.0,0.0,
1.3498,3.36054965051704,3.36054965051704,2.983158809922683,0.0,0.0,0.0,3.2347527036522545,0.0,0.0,0.0,0.0,0.0,0.0,0.0,0.0,0.0,0.0,0.0,0.0,0.0,0.0,
1.3693,3.3617857111108886,3.3617857111108886,2.984047494831664,0.0,0.0,0.0,3.2358729723511472,0.0,0.0,0.0,0.0,0.0,0.0,0.0,0.0,0.0,0.0,0.0,0.0,0.0,0.0,
1.3889,3.3630479145003696,3.3630479145003696,2.984954802913654,0.0,0.0,0.0,3.237016877304798,0.0,0.0,0.0,0.0,0.0,0.0,0.0,0.0,0.0,0.0,0.0,0.0,0.0,0.0,
1.4085,3.3643300613839306,3.3643300613839306,2.98587626837723,0.0,0.0,0.0,3.238178797048364,0.0,0.0,0.0,0.0,0.0,0.0,0.0,0.0,0.0,0.0,0.0,0.0,0.0,0.0,
1.428,3.365625547628806,3.365625547628806,2.9868071378860326,0.0,0.0,0.0,3.2393527443812147,0.0,0.0,0.0,0.0,0.0,0.0,0.0,0.0,0.0,0.0,0.0,0.0,0.0,0.0,
1.4476,3.3669477522262756,3.3669477522262756,2.9877570163190126,0.0,0.0,0.0,3.2405508402571876,0.0,0.0,0.0,0.0,0.0,0.0,0.0,0.0,0.0,0.0,0.0,0.0,0.0,0.0,
1.4671,3.368283276317284,3.368283276317284,2.988716269180876,0.0,0.0,0.0,3.241760940605148,0.0,0.0,0.0,0.0,0.0,0.0,0.0,0.0,0.0,0.0,0.0,0.0,0.0,0.0,
1.4867,3.3696459129751037,3.3696459129751037,2.9896947945539223,0.0,0.0,0.0,3.2429955401680437,0.0,0.0,0.0,0.0,0.0,0.0,0.0,0.0,0.0,0.0,0.0,0.0,0.0,0.0,
1.5063,3.371028962574987,3.371028962574987,2.990687770713299,0.0,0.0,0.0,3.2442485652877573,0.0,0.0,0.0,0.0,0.0,0.0,0.0,0.0,0.0,0.0,0.0,0.0,0.0,0.0,
1.5258,3.3724253111960087,3.3724253111960087,2.9916900824665205,0.0,0.0,0.0,3.2455135682861793,0.0,0.0,0.0,0.0,0.0,0.0,0.0,0.0,0.0,0.0,0.0,0.0,0.0,0.0,
1.5454,3.373849381074144,3.373849381074144,2.992712072755541,0.0,0.0,0.0,3.24680361163461,0.0,0.0,0.0,0.0,0.0,0.0,0.0,0.0,0.0,0.0,0.0,0.0,0.0,0.0,
1.565,3.3752941668250753,3.3752941668250753,2.9937487027898917,0.0,0.0,0.0,3.248112345480014,0.0,0.0,0.0,0.0,0.0,0.0,0.0,0.0,0.0,0.0,0.0,0.0,0.0,0.0,
1.5845,3.3767522426618912,3.3767522426618912,2.9947946364977103,0.0,0.0,0.0,3.249433040607164,0.0,0.0,0.0,0.0,0.0,0.0,0.0,0.0,0.0,0.0,0.0,0.0,0.0,0.0,
1.6041,3.378238669446921,3.378238669446921,2.995860667569435,0.0,0.0,0.0,3.2507793354877585,0.0,0.0,0.0,0.0,0.0,0.0,0.0,0.0,0.0,0.0,0.0,0.0,0.0,0.0,
1.6236,3.379738386952081,3.379738386952081,2.996935984985055,0.0,0.0,0.0,3.252137586296406,0.0,0.0,0.0,0.0,0.0,0.0,0.0,0.0,0.0,0.0,0.0,0.0,0.0,0.0,
1.6432,3.381266886936116,3.381266886936116,2.9980316861006715,0.0,0.0,0.0,3.253521819990968,0.0,0.0,0.0,0.0,0.0,0.0,0.0,0.0,0.0,0.0,0.0,0.0,0.0,0.0,
1.6628,3.3828166447516157,3.3828166447516157,2.999142364304018,0.0,0.0,0.0,3.2549252179357495,0.0,0.0,0.0,0.0,0.0,0.0,0.0,0.0,0.0,0.0,0.0,0.0,0.0,0.0,
1.6823,3.3843797044264514,3.3843797044264514,3.0002623088943956,0.0,0.0,0.0,3.256340572582433,0.0,0.0,0.0,0.0,0.0,0.0,0.0,0.0,0.0,0.0,0.0,0.0,0.0,0.0,
1.7019,3.385972213284198,3.385972213284198,3.001403078493502,0.0,0.0,0.0,3.2577825016873,0.0,0.0,0.0,0.0,0.0,0.0,0.0,0.0,0.0,0.0,0.0,0.0,0.0,0.0,
1.7215,3.387586328717221,3.387586328717221,3.002559041779623,0.0,0.0,0.0,3.259243899738022,0.0,0.0,0.0,0.0,0.0,0.0,0.0,0.0,0.0,0.0,0.0,0.0,0.0,0.0,
1.741,3.3892137697666893,3.3892137697666893,3.003724258972733,0.0,0.0,0.0,3.260717266168704,0.0,0.0,0.0,0.0,0.0,0.0,0.0,0.0,0.0,0.0,0.0,0.0,0.0,0.0,
1.7606,3.3908713502258245,3.3908713502258245,3.0049107567156836,0.0,0.0,0.0,3.2622178190557776,0.0,0.0,0.0,0.0,0.0,0.0,0.0,0.0,0.0,0.0,0.0,0.0,0.0,0.0,
1.7801,3.392542279359411,3.392542279359411,3.0061065043223723,0.0,0.0,0.0,3.2637303543470644,0.0,0.0,0.0,0.0,0.0,0.0,0.0,0.0,0.0,0.0,0.0,0.0,0.0,0.0,
1.7997,3.394243821232592,3.394243821232592,3.007323844103656,0.0,0.0,0.0,3.265270495522947,0.0,0.0,0.0,0.0,0.0,0.0,0.0,0.0,0.0,0.0,0.0,0.0,0.0,0.0,
1.8193,3.3959675921837493,3.3959675921837493,3.008556763291149,0.0,0.0,0.0,3.2668306492195494,0.0,0.0,0.0,0.0,0.0,0.0,0.0,0.0,0.0,0.0,0.0,0.0,0.0,0.0,
1.8388,3.3977047576610855,3.3977047576610855,3.0097989328782453,0.0,0.0,0.0,3.2684028160668053,0.0,0.0,0.0,0.0,0.0,0.0,0.0,0.0,0.0,0.0,0.0,0.0,0.0,0.0,
1.8584,3.399473267674338,3.399473267674338,3.011063175232305,0.0,0.0,0.0,3.2700032368603273,0.0,0.0,0.0,0.0,0.0,0.0,0.0,0.0,0.0,0.0,0.0,0.0,0.0,0.0,
1.878,3.4012644066021824,3.4012644066021824,3.012343244140412,0.0,0.0,0.0,3.2716240191149257,0.0,0.0,0.0,0.0,0.0,0.0,0.0,0.0,0.0,0.0,0.0,0.0,0.0,0.0,
1.8975,3.4030689998814516,3.4030689998814516,3.0136325721675634,0.0,0.0,0.0,3.2732568573101553,0.0,0.0,0.0,0.0,0.0,0.0,0.0,0.0,0.0,0.0,0.0,0.0,0.0,0.0,
1.9171,3.4049056959821877,3.4049056959821877,3.014944469452827,0.0,0.0,0.0,3.2749186204724006,0.0,0.0,0.0,0.0,0.0,0.0,0.0,0.0,0.0,0.0,0.0,0.0,0.0,0.0,
1.9366,3.4067558943268805,3.4067558943268805,3.0162656363569234,0.0,0.0,0.0,3.2765924750035613,0.0,0.0,0.0,0.0,0.0,0.0,0.0,0.0,0.0,0.0,0.0,0.0,0.0,0.0,
1.9562,3.408638715895549,3.408638715895549,3.017609712394556,0.0,0.0,0.0,3.2782957147285514,0.0,0.0,0.0,0.0,0.0,0.0,0.0,0.0,0.0,0.0,0.0,0.0,0.0,0.0,
1.9758,3.410544879063911,3.410544879063911,3.018970054373712,0.0,0.0,0.0,3.280019937500511,0.0,0.0,0.0,0.0,0.0,0.0,0.0,0.0,0.0,0.0,0.0,0.0,0.0,0.0,
1.9953,3.4124646289186926,3.4124646289186926,3.020339689022188,0.0,0.0,0.0,3.2817563156198575,0.0,0.0,0.0,0.0,0.0,0.0,0.0,0.0,0.0,0.0,0.0,0.0,0.0,0.0,
2.0149,3.414417807221596,3.414417807221596,3.02173275734951,0.0,0.0,0.0,3.2835227905975675,0.0,0.0,0.0,0.0,0.0,0.0,0.0,0.0,0.0,0.0,0.0,0.0,0.0,0.0,
2.0344,3.416384637103901,3.416384637103901,3.0231351387059866,0.0,0.0,0.0,3.285301470971263,0.0,0.0,0.0,0.0,0.0,0.0,0.0,0.0,0.0,0.0,0.0,0.0,0.0,0.0,
2.054,3.418385448345919,3.418385448345919,3.0245613129950635,0.0,0.0,0.0,3.2871107365623007,0.0,0.0,0.0,0.0,0.0,0.0,0.0,0.0,0.0,0.0,0.0,0.0,0.0,0.0,
2.0736,3.4204103759661857,3.4204103759661857,3.0260042292819995,0.0,0.0,0.0,3.2889416604047903,0.0,0.0,0.0,0.0,0.0,0.0,0.0,0.0,0.0,0.0,0.0,0.0,0.0,0.0,
2.0931,3.422449066103255,3.422449066103255,3.0274564969576767,0.0,0.0,0.0,3.2907848763880625,0.0,0.0,0.0,0.0,0.0,0.0,0.0,0.0,0.0,0.0,0.0,0.0,0.0,0.0,
2.1127,3.4245225936043013,3.4245225936043013,3.028933112298617,0.0,0.0,0.0,3.292659433169073,0.0,0.0,0.0,0.0,0.0,0.0,0.0,0.0,0.0,0.0,0.0,0.0,0.0,0.0,
2.1323,3.4266207344099344,3.4266207344099344,3.030426774108267,0.0,0.0,0.0,3.2945560809760455,0.0,0.0,0.0,0.0,0.0,0.0,0.0,0.0,0.0,0.0,0.0,0.0,0.0,0.0,
2.1518,3.4287327655844493,3.4287327655844493,3.031929835381475,0.0,0.0,0.0,3.296465122183458,0.0,0.0,0.0,0.0,0.0,0.0,0.0,0.0,0.0,0.0,0.0,0.0,0.0,0.0,
2.1714,3.4308805226282844,3.4308805226282844,3.03345781828884,0.0,0.0,0.0,3.29840628784847,0.0,0.0,0.0,0.0,0.0,0.0,0.0,0.0,0.0,0.0,0.0,0.0,0.0,0.0,
2.1909,3.43304226499902,3.43304226499902,3.034995238286228,0.0,0.0,0.0,3.3003599227614226,0.0,0.0,0.0,0.0,0.0,0.0,0.0,0.0,0.0,0.0,0.0,0.0,0.0,0.0,
2.2105,3.4352403439112145,3.4352403439112145,3.036557973355043,0.0,0.0,0.0,3.3023462203924905,0.0,0.0,0.0,0.0,0.0,0.0,0.0,0.0,0.0,0.0,0.0,0.0,0.0,0.0,
2.2301,3.437463921056761,3.437463921056761,3.0381382954751763,0.0,0.0,0.0,3.304355379196233,0.0,0.0,0.0,0.0,0.0,0.0,0.0,0.0,0.0,0.0,0.0,0.0,0.0,0.0,
2.2496,3.4397016414564603,3.4397016414564603,3.039728119929913,0.0,0.0,0.0,3.3063771342809445,0.0,0.0,0.0,0.0,0.0,0.0,0.0,0.0,0.0,0.0,0.0,0.0,0.0,0.0,
2.2692,3.4419766447542948,3.4419766447542948,3.0413438675096156,0.0,0.0,0.0,3.308432385672735,0.0,0.0,0.0,0.0,0.0,0.0,0.0,0.0,0.0,0.0,0.0,0.0,0.0,0.0,
2.2888,3.444277713783388,3.444277713783388,3.0429775477465153,0.0,0.0,0.0,3.3105109917710975,0.0,0.0,0.0,0.0,0.0,0.0,0.0,0.0,0.0,0.0,0.0,0.0,0.0,0.0,
2.3083,3.4465931032985004,3.4465931032985004,3.044620806517663,0.0,0.0,0.0,3.312602337704888,0.0,0.0,0.0,0.0,0.0,0.0,0.0,0.0,0.0,0.0,0.0,0.0,0.0,0.0,
2.3279,3.448946759199267,3.448946759199267,3.0462906182433507,0.0,0.0,0.0,3.3147280455472945,0.0,0.0,0.0,0.0,0.0,0.0,0.0,0.0,0.0,0.0,0.0,0.0,0.0,0.0,
2.3474,3.4513148648597296,3.4513148648597296,3.0479700656013717,0.0,0.0,0.0,3.3168665984402765,0.0,0.0,0.0,0.0,0.0,0.0,0.0,0.0,0.0,0.0,0.0,0.0,0.0,0.0,
2.367,3.4537219135702033,3.4537219135702033,3.049676498049967,0.0,0.0,0.0,3.3190401083967913,0.0,0.0,0.0,0.0,0.0,0.0,0.0,0.0,0.0,0.0,0.0,0.0,0.0,0.0,
2.3866,3.4561560387489854,3.4561560387489854,3.051401476694265,0.0,0.0,0.0,3.3212378513974117,0.0,0.0,0.0,0.0,0.0,0.0,0.0,0.0,0.0,0.0,0.0,0.0,0.0,0.0,
2.4061,3.4586048254278965,3.4586048254278965,3.0531361866353395,0.0,0.0,0.0,3.323448612497044,0.0,0.0,0.0,0.0,0.0,0.0,0.0,0.0,0.0,0.0,0.0,0.0,0.0,0.0,
2.4257,3.4610936049278926,3.4610936049278926,3.054898550184773,0.0,0.0,0.0,3.325695253346853,0.0,0.0,0.0,0.0,0.0,0.0,0.0,0.0,0.0,0.0,0.0,0.0,0.0,0.0,
2.4452,3.4635971992457066,3.4635971992457066,3.0566707156405184,0.0,0.0,0.0,3.3279550380439775,0.0,0.0,0.0,0.0,0.0,0.0,0.0,0.0,0.0,0.0,0.0,0.0,0.0,0.0,
2.4648,3.466141509169612,3.466141509169612,3.0584709936792955,0.0,0.0,0.0,3.3302513373395066,0.0,0.0,0.0,0.0,0.0,0.0,0.0,0.0,0.0,0.0,0.0,0.0,0.0,0.0,
2.4844,3.4687139943026692,3.4687139943026692,3.0602904820593753,0.0,0.0,0.0,3.3325728235549046,0.0,0.0,0.0,0.0,0.0,0.0,0.0,0.0,0.0,0.0,0.0,0.0,0.0,0.0,
2.5039,3.4713015437974333,3.4713015437974333,3.0621198891738963,0.0,0.0,0.0,3.334907658922921,0.0,0.0,0.0,0.0,0.0,0.0,0.0,0.0,0.0,0.0,0.0,0.0,0.0,0.0,
2.5235,3.473930931052207,3.473930931052207,3.063978119381259,0.0,0.0,0.0,3.337279993828558,0.0,0.0,0.0,0.0,0.0,0.0,0.0,0.0,0.0,0.0,0.0,0.0,0.0,0.0,
2.5431,3.4765891986759363,3.4765891986759363,3.0658559846779116,0.0,0.0,0.0,3.339678127343261,0.0,0.0,0.0,0.0,0.0,0.0,0.0,0.0,0.0,0.0,0.0,0.0,0.0,0.0,
