energies(eV),real_xx,real_yy,real_zz,real_xy,real_yz,real_xz,real_ave,imag_xx,imag_yy,imag_zz,imag_xy,imag_yz,imag_xz,imag_ave,absorption_xx,absorption_yy,absorption_zz,absorption_xy,absorption_yz,absorption_xz,absorption_ave,band_gap
0.0,4.0461959032562245,4.004757880626746,3.863457789915022,0.0,0.0,0.10571311128559385,3.971470524599331,0.0,0.0,0.0,0.0,0.0,0.0,0.0,0.0,0.0,0.0,0.0,0.0,0.0,0.0,2.3617000000000004
0.015,4.046215985750398,4.0047770300270225,3.863475923968065,0.0,0.0,0.10571328272078348,3.9714896465818286,0.0,0.0,0.0,0.0,0.0,0.0,0.0,0.0,0.0,0.0,0.0,0.0,0.0,0.0,
0.03,4.046276235816163,4.004834480388194,3.863530328351669,0.0,0.0,0.10571379695266864,3.9715470148520082,0.0,0.0,0.0,0.0,0.0,0.0,0.0,0.0,0.0,0.0,0.0,0.0,0.0,0.0,
0.045,4.04637666120431,4.004930238191895,3.8636210097401245,0.0,0.0,0.10571465376016195,3.971642636378777,0.0,0.0,0.0,0.0,0.0,0.0,0.0,0.0,0.0,0.0,0.0,0.0,0.0,0.0,
0.0599,4.046516204307472,4.005063293495933,3.8637470126107165,0.0,0.0,0.1057158436492008,3.971775503471374,0.0,0.0,0.0,0.0,0.0,0.0,0.0,0.0,0.0,0.0,0.0,0.0,0.0,0.0,
0.0749,4.0466967561673295,4.005235447311223,3.86391004375895,0.0,0.0,0.10571738207850258,3.9719474157458343,0.0,0.0,0.0,0.0,0.0,0.0,0.0,0.0,0.0,0.0,0.0,0.0,0.0,0.0,
0.0899,4.046917537477066,4.005445953825836,3.86410939851876,0.0,0.0,0.10571926153917093,3.972157629940554,0.0,0.0,0.0,0.0,0.0,0.0,0.0,0.0,0.0,0.0,0.0,0.0,0.0,0.0,
0.1049,4.047178576675817,4.0056948368129826,3.8643451013756134,0.0,0.0,0.10572148121964646,3.9724061716214716,0.0,0.0,0.0,0.0,0.0,0.0,0.0,0.0,0.0,0.0,0.0,0.0,0.0,0.0,
0.1199,4.047479907407117,4.005982124391817,3.8646171812941525,0.0,0.0,0.10572404015967483,3.972693071031028,0.0,0.0,0.0,0.0,0.0,0.0,0.0,0.0,0.0,0.0,0.0,0.0,0.0,0.0,
0.1349,4.047821568532754,4.006307849036643,3.864925671728963,0.0,0.0,0.10572693724983165,3.9730183630994538,0.0,0.0,0.0,0.0,0.0,0.0,0.0,0.0,0.0,0.0,0.0,0.0,0.0,0.0,
0.1498,4.048200923454451,4.006669492117597,3.865268190268627,0.0,0.0,0.10573014855862008,3.9733795352802246,0.0,0.0,0.0,0.0,0.0,0.0,0.0,0.0,0.0,0.0,0.0,0.0,0.0,0.0,
0.1648,4.048623113241549,4.007071948878972,3.8656493767009805,0.0,0.0,0.10573371578966499,3.973781479607167,0.0,0.0,0.0,0.0,0.0,0.0,0.0,0.0,0.0,0.0,0.0,0.0,0.0,0.0,
0.1798,4.049085781106061,4.007512966055028,3.8660671007597394,0.0,0.0,0.10573761695250099,3.974221949306943,0.0,0.0,0.0,0.0,0.0,0.0,0.0,0.0,0.0,0.0,0.0,0.0,0.0,0.0,
0.1948,4.049588986928313,4.007992593632046,3.866521413972562,0.0,0.0,0.1057418503357294,3.9747009981776404,0.0,0.0,0.0,0.0,0.0,0.0,0.0,0.0,0.0,0.0,0.0,0.0,0.0,0.0,
0.2098,4.050132795908106,4.008510886018874,3.8670123724373617,0.0,0.0,0.10574641407526279,3.975218684788114,0.0,0.0,0.0,0.0,0.0,0.0,0.0,0.0,0.0,0.0,0.0,0.0,0.0,0.0,
0.2248,4.050717278591698,4.009067902064851,3.8675400368436255,0.0,0.0,0.10575130615340002,3.975775072500058,0.0,0.0,0.0,0.0,0.0,0.0,0.0,0.0,0.0,0.0,0.0,0.0,0.0,0.0,
0.2398,4.051342510900966,4.009663705079355,3.8681044724954816,0.0,0.0,0.10575652439781666,3.976370229491934,0.0,0.0,0.0,0.0,0.0,0.0,0.0,0.0,0.0,0.0,0.0,0.0,0.0,0.0,
0.2547,4.052003998359493,4.0102940029917535,3.868701618677622,0.0,0.0,0.10576202846638946,3.9769998733429563,0.0,0.0,0.0,0.0,0.0,0.0,0.0,0.0,0.0,0.0,0.0,0.0,0.0,0.0,
0.2697,4.052710706264058,4.010967328053956,3.869339564955625,0.0,0.0,0.10576788976866294,3.9776725330912135,0.0,0.0,0.0,0.0,0.0,0.0,0.0,0.0,0.0,0.0,0.0,0.0,0.0,0.0,
0.2847,4.053458423507256,4.011679656461598,3.8700145057937716,0.0,0.0,0.10577406979949801,3.978384195254209,0.0,0.0,0.0,0.0,0.0,0.0,0.0,0.0,0.0,0.0,0.0,0.0,0.0,0.0,
0.2997,4.054247247814971,4.012431069557465,3.8707265251907836,0.0,0.0,0.10578056575759834,3.979134947521073,0.0,0.0,0.0,0.0,0.0,0.0,0.0,0.0,0.0,0.0,0.0,0.0,0.0,0.0,
0.3147,4.055077282469574,4.0132216532637806,3.871475711902883,0.0,0.0,0.10578737468089773,3.9799248825454128,0.0,0.0,0.0,0.0,0.0,0.0,0.0,0.0,0.0,0.0,0.0,0.0,0.0,0.0,
0.3297,4.055948636353064,4.014051498111009,3.8722621594780144,0.0,0.0,0.10579449344509359,3.980754097980696,0.0,0.0,0.0,0.0,0.0,0.0,0.0,0.0,0.0,0.0,0.0,0.0,0.0,0.0,
0.3447,4.056861423993287,4.0149206992679805,3.873085966292045,0.0,0.0,0.10580191876210918,3.9816226965177712,0.0,0.0,0.0,0.0,0.0,0.0,0.0,0.0,0.0,0.0,0.0,0.0,0.0,0.0,
0.3596,4.057809265471012,4.015823167987204,3.8739413695140277,0.0,0.0,0.10580959465997666,3.982524600990748,0.0,0.0,0.0,0.0,0.0,0.0,0.0,0.0,0.0,0.0,0.0,0.0,0.0,0.0,
0.3746,4.058805008739835,4.016771121889767,3.874839958598322,0.0,0.0,0.10581762057097105,3.9834720297426416,0.0,0.0,0.0,0.0,0.0,0.0,0.0,0.0,0.0,0.0,0.0,0.0,0.0,0.0,
0.3896,4.05984256282308,4.01775874502105,3.8757762306381056,0.0,0.0,0.10582594219716548,3.984459179494079,0.0,0.0,0.0,0.0,0.0,0.0,0.0,0.0,0.0,0.0,0.0,0.0,0.0,0.0,
0.4046,4.060922065303014,4.0187861514062835,3.8767503036896604,0.0,0.0,0.10583455557956935,3.985486173466319,0.0,0.0,0.0,0.0,0.0,0.0,0.0,0.0,0.0,0.0,0.0,0.0,0.0,0.0,
0.4196,4.062043659675939,4.019853459884882,3.87776230084808,0.0,0.0,0.10584345658655776,3.9865531401363,0.0,0.0,0.0,0.0,0.0,0.0,0.0,0.0,0.0,0.0,0.0,0.0,0.0,0.0,
0.4346,4.0632074954140105,4.02096079415043,3.878812350296074,0.0,0.0,0.10585264091186214,3.9876602132868384,0.0,0.0,0.0,0.0,0.0,0.0,0.0,0.0,0.0,0.0,0.0,0.0,0.0,0.0,
0.4495,4.064405545746427,4.022100499622052,3.879893203715544,0.0,0.0,0.10586204007163966,3.9887997496946745,0.0,0.0,0.0,0.0,0.0,0.0,0.0,0.0,0.0,0.0,0.0,0.0,0.0,0.0,
0.4645,4.065654052589709,4.023288007132771,3.8810195069324935,0.0,0.0,0.10587177559366315,3.989987188884991,0.0,0.0,0.0,0.0,0.0,0.0,0.0,0.0,0.0,0.0,0.0,0.0,0.0,0.0,
0.4795,4.066945284593033,4.024515940126983,3.8821842770550976,0.0,0.0,0.10588178047891204,3.9912151672583716,0.0,0.0,0.0,0.0,0.0,0.0,0.0,0.0,0.0,0.0,0.0,0.0,0.0,0.0,
0.4945,4.0682794157672575,4.025784442120775,3.883387663110696,0.0,0.0,0.10589204970206732,3.9924838403329095,0.0,0.0,0.0,0.0,0.0,0.0,0.0,0.0,0.0,0.0,0.0,0.0,0.0,0.0,
0.5095,4.069656626452143,4.027093661712869,3.8846298194904887,0.0,0.0,0.10590257805192795,3.9937933692185,0.0,0.0,0.0,0.0,0.0,0.0,0.0,0.0,0.0,0.0,0.0,0.0,0.0,0.0,
0.5245,4.071077103396512,4.02844375263609,3.885910906011779,0.0,0.0,0.10591336012892318,3.99514392068146,0.0,0.0,0.0,0.0,0.0,0.0,0.0,0.0,0.0,0.0,0.0,0.0,0.0,0.0,
0.5395,4.072541039841241,4.029834873810639,3.8872310879829715,0.0,0.0,0.10592439034254206,3.9965356672116172,0.0,0.0,0.0,0.0,0.0,0.0,0.0,0.0,0.0,0.0,0.0,0.0,0.0,0.0,
0.5544,4.074038439956386,4.031257503859758,3.8885813428820515,0.0,0.0,0.10593558696883286,3.997959095566065,0.0,0.0,0.0,0.0,0.0,0.0,0.0,0.0,0.0,0.0,0.0,0.0,0.0,0.0,
0.5694,4.075589608393108,4.032730906994043,3.8899799704332647,0.0,0.0,0.1059470943514905,3.9994334952734722,0.0,0.0,0.0,0.0,0.0,0.0,0.0,0.0,0.0,0.0,0.0,0.0,0.0,0.0,
0.5844,4.077184854445948,4.034245847645373,3.891418221759739,0.0,0.0,0.10595883196853996,4.000949641283687,0.0,0.0,0.0,0.0,0.0,0.0,0.0,0.0,0.0,0.0,0.0,0.0,0.0,0.0,
0.5994,4.078824398179981,4.035802506021604,3.8928962847961253,0.0,0.0,0.1059707934397474,4.002507729665903,0.0,0.0,0.0,0.0,0.0,0.0,0.0,0.0,0.0,0.0,0.0,0.0,0.0,0.0,
0.6144,4.080508466620506,4.037401067815306,3.8944143533314923,0.0,0.0,0.10598297217989858,4.004107962589102,0.0,0.0,0.0,0.0,0.0,0.0,0.0,0.0,0.0,0.0,0.0,0.0,0.0,0.0,
0.6294,4.0822372938577205,4.039041724269833,3.8959726270904413,0.0,0.0,0.10599536139574839,4.005750548405998,0.0,0.0,0.0,0.0,0.0,0.0,0.0,0.0,0.0,0.0,0.0,0.0,0.0,0.0,
0.6444,4.084011121155678,4.0407246722476025,3.897571311817076,0.0,0.0,0.10600795408289472,4.0074357017401185,0.0,0.0,0.0,0.0,0.0,0.0,0.0,0.0,0.0,0.0,0.0,0.0,0.0,0.0,
0.6593,4.085817919510054,4.042438470195962,3.899199555662278,0.0,0.0,0.10602065712939157,4.009151981789432,0.0,0.0,0.0,0.0,0.0,0.0,0.0,0.0,0.0,0.0,0.0,0.0,0.0,0.0,
0.6743,4.087682195757038,4.044206329253965,3.9008794310651,0.0,0.0,0.10603363365149662,4.010922652025368,0.0,0.0,0.0,0.0,0.0,0.0,0.0,0.0,0.0,0.0,0.0,0.0,0.0,0.0,
0.6893,4.089592238266924,4.04601710340777,3.9026003701548557,0.0,0.0,0.10604679138405317,4.01273657060985,0.0,0.0,0.0,0.0,0.0,0.0,0.0,0.0,0.0,0.0,0.0,0.0,0.0,0.0,
0.7043,4.0915483181181695,4.047871012686656,3.9043626036130306,0.0,0.0,0.10606012244668048,4.014593978139286,0.0,0.0,0.0,0.0,0.0,0.0,0.0,0.0,0.0,0.0,0.0,0.0,0.0,0.0,
0.7193,4.093550714169442,4.049768283115862,3.90616636860711,0.0,0.0,0.10607361873105836,4.016495121964138,0.0,0.0,0.0,0.0,0.0,0.0,0.0,0.0,0.0,0.0,0.0,0.0,0.0,0.0,
0.7343,4.095599713194704,4.051709146799747,3.908011908894077,0.0,0.0,0.10608727189734207,4.018440256296176,0.0,0.0,0.0,0.0,0.0,0.0,0.0,0.0,0.0,0.0,0.0,0.0,0.0,0.0,
0.7492,4.097681481431783,4.053680465040571,3.9098867514396836,0.0,0.0,0.10610098088888426,4.020416232637346,0.0,0.0,0.0,0.0,0.0,0.0,0.0,0.0,0.0,0.0,0.0,0.0,0.0,0.0,
0.7642,4.099824263399125,4.055708941630852,3.9118163177261516,0.0,0.0,0.10611492095477,4.022449840918709,0.0,0.0,0.0,0.0,0.0,0.0,0.0,0.0,0.0,0.0,0.0,0.0,0.0,0.0,
0.7792,4.102014555475223,4.057781743441046,3.91378842941727,0.0,0.0,0.10612899151817845,4.024528242777847,0.0,0.0,0.0,0.0,0.0,0.0,0.0,0.0,0.0,0.0,0.0,0.0,0.0,0.0,
0.7942,4.1042526774887245,4.05989912773393,3.9158033576876745,0.0,0.0,0.10614318327759051,4.0266517209701105,0.0,0.0,0.0,0.0,0.0,0.0,0.0,0.0,0.0,0.0,0.0,0.0,0.0,0.0,
0.8092,4.106538957934369,4.062061358307689,3.91786138087342,0.0,0.0,0.10615748668104368,4.02882056570516,0.0,0.0,0.0,0.0,0.0,0.0,0.0,0.0,0.0,0.0,0.0,0.0,0.0,0.0,
0.8242,4.108873734139743,4.064268705595996,3.919962784598368,0.0,0.0,0.1061718919221473,4.0310350747780355,0.0,0.0,0.0,0.0,0.0,0.0,0.0,0.0,0.0,0.0,0.0,0.0,0.0,0.0,
0.8392,4.111257352438079,4.0665214467714,3.922107861904877,0.0,0.0,0.10618638893605654,4.033295553704785,0.0,0.0,0.0,0.0,0.0,0.0,0.0,0.0,0.0,0.0,0.0,0.0,0.0,0.0,
0.8541,4.113673785878255,4.068804391177007,3.9242821734349813,0.0,0.0,0.1062008699591351,4.035586783496748,0.0,0.0,0.0,0.0,0.0,0.0,0.0,0.0,0.0,0.0,0.0,0.0,0.0,0.0,
0.8691,4.116155832640262,4.071148471697317,3.926515211131217,0.0,0.0,0.1062155188331343,4.037939838489598,0.0,0.0,0.0,0.0,0.0,0.0,0.0,0.0,0.0,0.0,0.0,0.0,0.0,0.0,
0.8841,4.118687813822076,4.0735388171263915,3.928792845286905,0.0,0.0,0.10623022776689449,4.040339825411791,0.0,0.0,0.0,0.0,0.0,0.0,0.0,0.0,0.0,0.0,0.0,0.0,0.0,0.0,
0.8991,4.1212701135681264,4.075975732642327,3.931115399961572,0.0,0.0,0.10624498562226586,4.042787082057342,0.0,0.0,0.0,0.0,0.0,0.0,0.0,0.0,0.0,0.0,0.0,0.0,0.0,0.0,
0.9141,4.1239031259879475,4.078459530727585,3.933483207354445,0.0,0.0,0.10625978098181207,4.045281954689993,0.0,0.0,0.0,0.0,0.0,0.0,0.0,0.0,0.0,0.0,0.0,0.0,0.0,0.0,
0.9291,4.126587255369177,4.080990531292926,3.9358966079636684,0.0,0.0,0.1062746021445263,4.04782479820859,0.0,0.0,0.0,0.0,0.0,0.0,0.0,0.0,0.0,0.0,0.0,0.0,0.0,0.0,
0.9441,4.129322916398532,4.083569061805045,3.938355950751001,0.0,0.0,0.10628943712154425,4.050415976318193,0.0,0.0,0.0,0.0,0.0,0.0,0.0,0.0,0.0,0.0,0.0,0.0,0.0,0.0,
0.959,4.132091777281492,4.0861777888772775,3.940844734923213,0.0,0.0,0.1063041747441977,4.05303810036066,0.0,0.0,0.0,0.0,0.0,0.0,0.0,0.0,0.0,0.0,0.0,0.0,0.0,0.0,
0.974,4.134931437658337,4.088852070028613,3.943396731321595,0.0,0.0,0.10631900032619634,4.055726746336181,0.0,0.0,0.0,0.0,0.0,0.0,0.0,0.0,0.0,0.0,0.0,0.0,0.0,0.0,
0.989,4.137823935446115,4.0915749078322285,3.9459957667614245,0.0,0.0,0.10633380207254858,4.058464870013256,0.0,0.0,0.0,0.0,0.0,0.0,0.0,0.0,0.0,0.0,0.0,0.0,0.0,0.0,
1.004,4.140769729221464,4.0943466612804835,3.94864222575583,0.0,0.0,0.10634856680195866,4.061252872085926,0.0,0.0,0.0,0.0,0.0,0.0,0.0,0.0,0.0,0.0,0.0,0.0,0.0,0.0,
1.019,4.143769289187146,4.09716769761979,3.951336502189746,0.0,0.0,0.1063632810238347,4.064091162998895,0.0,0.0,0.0,0.0,0.0,0.0,0.0,0.0,0.0,0.0,0.0,0.0,0.0,0.0,
1.034,4.1468230974450275,4.100038392503494,3.954078999520563,0.0,0.0,0.10637793093406693,4.066980163156361,0.0,0.0,0.0,0.0,0.0,0.0,0.0,0.0,0.0,0.0,0.0,0.0,0.0,0.0,
1.0489,4.149910742240408,4.102939492008163,3.956851361483938,0.0,0.0,0.10639240555897934,4.069900531910837,0.0,0.0,0.0,0.0,0.0,0.0,0.0,0.0,0.0,0.0,0.0,0.0,0.0,0.0,
1.0639,4.153074172375936,4.105910327801567,3.959691221841981,0.0,0.0,0.10640688482646359,4.0728919073398275,0.0,0.0,0.0,0.0,0.0,0.0,0.0,0.0,0.0,0.0,0.0,0.0,0.0,0.0,
1.0789,4.15629336788049,4.10893199843054,3.9625805700898207,0.0,0.0,0.10642125654707316,4.075935312133617,0.0,0.0,0.0,0.0,0.0,0.0,0.0,0.0,0.0,0.0,0.0,0.0,0.0,0.0,
1.0939,4.159568861300555,4.112004914738234,3.96551985005039,0.0,0.0,0.10643550562389227,4.079031208696393,0.0,0.0,0.0,0.0,0.0,0.0,0.0,0.0,0.0,0.0,0.0,0.0,0.0,0.0,
1.1089,4.16290119860288,4.11512949681023,3.9685095162277837,0.0,0.0,0.10644961662649623,4.082180070546964,0.0,0.0,0.0,0.0,0.0,0.0,0.0,0.0,0.0,0.0,0.0,0.0,0.0,0.0,
1.1239,4.166290939513731,4.118306174157535,3.9715500340524734,0.0,0.0,0.1064635737872911,4.08538238257458,0.0,0.0,0.0,0.0,0.0,0.0,0.0,0.0,0.0,0.0,0.0,0.0,0.0,0.0,
1.1389,4.169738657871044,4.121535385905236,3.974641880135134,0.0,0.0,0.10647736099800906,4.088638641303805,0.0,0.0,0.0,0.0,0.0,0.0,0.0,0.0,0.0,0.0,0.0,0.0,0.0,0.0,
1.1538,4.173221371525849,4.124795523248428,3.977764412117345,0.0,0.0,0.10649087178830545,4.091927102297208,0.0,0.0,0.0,0.0,0.0,0.0,0.0,0.0,0.0,0.0,0.0,0.0,0.0,0.0,
1.1688,4.176786428086788,4.128130802782157,3.980960040135543,0.0,0.0,0.10650427080608837,4.0952924236681625,0.0,0.0,0.0,0.0,0.0,0.0,0.0,0.0,0.0,0.0,0.0,0.0,0.0,0.0,
1.1838,4.180411267826717,4.131519990587394,3.9842084925440164,0.0,0.0,0.10651744958839263,4.098713250319376,0.0,0.0,0.0,0.0,0.0,0.0,0.0,0.0,0.0,0.0,0.0,0.0,0.0,0.0,
1.1988,4.184096524719142,4.134963566179541,3.9875102933096134,0.0,0.0,0.10653039063574542,4.102190128069433,0.0,0.0,0.0,0.0,0.0,0.0,0.0,0.0,0.0,0.0,0.0,0.0,0.0,0.0,
1.2138,4.187842848817913,4.138462019720295,3.990865978985026,0.0,0.0,0.10654307609387267,4.105723615841078,0.0,0.0,0.0,0.0,0.0,0.0,0.0,0.0,0.0,0.0,0.0,0.0,0.0,0.0,
1.2288,4.1916509066979835,4.142015852243926,3.994276099020531,0.0,0.0,0.10655548775176399,4.10931428598748,0.0,0.0,0.0,0.0,0.0,0.0,0.0,0.0,0.0,0.0,0.0,0.0,0.0,0.0,
1.2437,4.195495370542336,4.1456013248593155,3.997717931945144,0.0,0.0,0.10656752725438615,4.112938209115598,0.0,0.0,0.0,0.0,0.0,0.0,0.0,0.0,0.0,0.0,0.0,0.0,0.0,0.0,
1.2587,4.199428540954068,4.1492670852599876,4.001238249841813,0.0,0.0,0.10657933738332125,4.116644625351956,0.0,0.0,0.0,0.0,0.0,0.0,0.0,0.0,0.0,0.0,0.0,0.0,0.0,0.0,
1.2737,4.20342554381805,4.152989791746282,4.0048147271419925,0.0,0.0,0.10659081705510061,4.120410020902108,0.0,0.0,0.0,0.0,0.0,0.0,0.0,0.0,0.0,0.0,0.0,0.0,0.0,0.0,
1.2887,4.207487116435342,4.1567699911710925,4.008447968137675,0.0,0.0,0.10660194662326251,4.124235025248036,0.0,0.0,0.0,0.0,0.0,0.0,0.0,0.0,0.0,0.0,0.0,0.0,0.0,0.0,
1.3037,4.21161401510447,4.1606082425007,4.0121385917512775,0.0,0.0,0.10661270608169357,4.1281202831188155,0.0,0.0,0.0,0.0,0.0,0.0,0.0,0.0,0.0,0.0,0.0,0.0,0.0,0.0,
1.3187,4.215807015678371,4.164505117087278,4.015887231921083,0.0,0.0,0.10662307506576316,4.132066454895578,0.0,0.0,0.0,0.0,0.0,0.0,0.0,0.0,0.0,0.0,0.0,0.0,0.0,0.0,
1.3337,4.220066914144314,4.168461198950158,4.019694538001282,0.0,0.0,0.10663303285418399,4.1360742170319185,0.0,0.0,0.0,0.0,0.0,0.0,0.0,0.0,0.0,0.0,0.0,0.0,0.0,0.0,
1.3486,4.224365450431204,4.1724501131382805,4.0235351996534945,0.0,0.0,0.10664249634645742,4.140116921074326,0.0,0.0,0.0,0.0,0.0,0.0,0.0,0.0,0.0,0.0,0.0,0.0,0.0,0.0,
1.3636,4.2287611563822995,4.176526008927161,4.027461446992758,0.0,0.0,0.10665157126358575,4.144249537434073,0.0,0.0,0.0,0.0,0.0,0.0,0.0,0.0,0.0,0.0,0.0,0.0,0.0,0.0,
1.3786,4.23322626934732,4.180662938797984,4.031448400314,0.0,0.0,0.10666017085854769,4.148445869486435,0.0,0.0,0.0,0.0,0.0,0.0,0.0,0.0,0.0,0.0,0.0,0.0,0.0,0.0,
1.3936,4.237761671989892,4.184861540342267,4.035496774823384,0.0,0.0,0.10666827302143154,4.152706662385181,0.0,0.0,0.0,0.0,0.0,0.0,0.0,0.0,0.0,0.0,0.0,0.0,0.0,0.0,
1.4086,4.242368270384315,4.189122465364368,4.039607303374533,0.0,0.0,0.10667585530857755,4.157032679707738,0.0,0.0,0.0,0.0,0.0,0.0,0.0,0.0,0.0,0.0,0.0,0.0,0.0,0.0,
1.4236,4.247046994757178,4.193446380222063,4.043780736967543,0.0,0.0,0.10668289495057298,4.161424703982261,0.0,0.0,0.0,0.0,0.0,0.0,0.0,0.0,0.0,0.0,0.0,0.0,0.0,0.0,
1.4386,4.251798800261117,4.197833966177973,4.048017845267165,0.0,0.0,0.10668936886164516,4.165883537235419,0.0,0.0,0.0,0.0,0.0,0.0,0.0,0.0,0.0,0.0,0.0,0.0,0.0,0.0,
1.4535,4.2565922479030505,4.202256025386052,4.052290524781371,0.0,0.0,0.10669521642126661,4.170379599356825,0.0,0.0,0.0,0.0,0.0,0.0,0.0,0.0,0.0,0.0,0.0,0.0,0.0,0.0,
1.4685,4.261492681044782,4.206772622516243,4.05665693099002,0.0,0.0,0.10670049256850778,4.1749740781836815,0.0,0.0,0.0,0.0,0.0,0.0,0.0,0.0,0.0,0.0,0.0,0.0,0.0,0.0,
1.4835,4.2664692115927085,4.211355022747439,4.061089432782161,0.0,0.0,0.10670513210791364,4.1796378890407695,0.0,0.0,0.0,0.0,0.0,0.0,0.0,0.0,0.0,0.0,0.0,0.0,0.0,0.0,
1.4985,4.271522902649631,4.216003970607231,4.065588879938655,0.0,0.0,0.10670911081697038,4.184371917731839,0.0,0.0,0.0,0.0,0.0,0.0,0.0,0.0,0.0,0.0,0.0,0.0,0.0,0.0,
1.5135,4.276654846649181,4.220720227467478,4.070156143813209,0.0,0.0,0.10671240422987704,4.189177072643289,0.0,0.0,0.0,0.0,0.0,0.0,0.0,0.0,0.0,0.0,0.0,0.0,0.0,0.0,
1.5285,4.281866166360386,4.225504571972739,4.0747921179863535,0.0,0.0,0.10671498765865108,4.194054285439827,0.0,0.0,0.0,0.0,0.0,0.0,0.0,0.0,0.0,0.0,0.0,0.0,0.0,0.0,
1.5434,4.287122467705723,4.230325215762386,4.079466115675896,0.0,0.0,0.10671682638143845,4.198971266381335,0.0,0.0,0.0,0.0,0.0,0.0,0.0,0.0,0.0,0.0,0.0,0.0,0.0,0.0,
1.5584,4.292495485012928,4.235247675418846,4.084241809913673,0.0,0.0,0.10671792016042067,4.20399499011515,0.0,0.0,0.0,0.0,0.0,0.0,0.0,0.0,0.0,0.0,0.0,0.0,0.0,0.0,
1.5734,4.297951430857676,4.240240661181922,4.0890890289865105,0.0,0.0,0.10671822897891217,4.2090937070087024,0.0,0.0,0.0,0.0,0.0,0.0,0.0,0.0,0.0,0.0,0.0,0.0,0.0,0.0,
1.5884,4.3034915601250585,4.245305025245452,4.094008762303119,0.0,0.0,0.10671772752869314,4.2142684492245435,0.0,0.0,0.0,0.0,0.0,0.0,0.0,0.0,0.0,0.0,0.0,0.0,0.0,0.0,
1.6034,4.309117163798303,4.25044163944741,4.099002025189424,0.0,0.0,0.10671639042968181,4.219520276145046,0.0,0.0,0.0,0.0,0.0,0.0,0.0,0.0,0.0,0.0,0.0,0.0,0.0,0.0,
1.6184,4.314829570282734,4.255651395795713,4.1040698597228005,0.0,0.0,0.10671419227113446,4.224850275267083,0.0,0.0,0.0,0.0,0.0,0.0,0.0,0.0,0.0,0.0,0.0,0.0,0.0,0.0,
1.6334,4.320630146795055,4.2609352070127064,4.109213335602443,0.0,0.0,0.10671110765736389,4.230259563136735,0.0,0.0,0.0,0.0,0.0,0.0,0.0,0.0,0.0,0.0,0.0,0.0,0.0,0.0,
1.6483,4.326480733361191,4.266258031378193,4.11439849306297,0.0,0.0,0.10670714097565807,4.235712419267451,0.0,0.0,0.0,0.0,0.0,0.0,0.0,0.0,0.0,0.0,0.0,0.0,0.0,0.0,
1.6633,4.332461302445964,4.271692266685298,4.1196960528819275,0.0,0.0,0.1067022139131976,4.241283207337729,0.0,0.0,0.0,0.0,0.0,0.0,0.0,0.0,0.0,0.0,0.0,0.0,0.0,0.0,
1.6783,4.338534380921102,4.277203418458789,4.125072630327585,0.0,0.0,0.10669632499937473,4.246936809902492,0.0,0.0,0.0,0.0,0.0,0.0,0.0,0.0,0.0,0.0,0.0,0.0,0.0,0.0,
1.6933,4.344701506267715,4.28279248796947,4.130529414855662,0.0,0.0,0.10668944946051996,4.252674469697616,0.0,0.0,0.0,0.0,0.0,0.0,0.0,0.0,0.0,0.0,0.0,0.0,0.0,0.0,
1.7083,4.350964262827818,4.2884605002297995,4.136067628491909,0.0,0.0,0.10668156285052267,4.258497463849842,0.0,0.0,0.0,0.0,0.0,0.0,0.0,0.0,0.0,0.0,0.0,0.0,0.0,0.0,
1.7233,4.357324283673304,4.2942085046682426,4.141688526959827,0.0,0.0,0.10667264113421969,4.2644071051004575,0.0,0.0,0.0,0.0,0.0,0.0,0.0,0.0,0.0,0.0,0.0,0.0,0.0,0.0,
1.7383,4.363783252573382,4.300037575828684,4.1473934008595545,0.0,0.0,0.1066626607792956,4.270404743087207,0.0,0.0,0.0,0.0,0.0,0.0,0.0,0.0,0.0,0.0,0.0,0.0,0.0,0.0,
1.7532,4.370298837755966,4.305909131312502,4.15314469030306,0.0,0.0,0.10665167623416497,4.276450886457176,0.0,0.0,0.0,0.0,0.0,0.0,0.0,0.0,0.0,0.0,0.0,0.0,0.0,0.0,
1.7682,4.376960278107436,4.311903104582072,4.159020950222677,0.0,0.0,0.10663951796319923,4.2826281109707285,0.0,0.0,0.0,0.0,0.0,0.0,0.0,0.0,0.0,0.0,0.0,0.0,0.0,0.0,
1.7832,4.383726030779894,4.317981518506725,4.164985269777098,0.0,0.0,0.106626234677759,4.288897606354573,0.0,0.0,0.0,0.0,0.0,0.0,0.0,0.0,0.0,0.0,0.0,0.0,0.0,0.0,
