energies(eV),real_xx,real_yy,real_zz,real_xy,real_yz,real_xz,real_ave,imag_xx,imag_yy,imag_zz,imag_xy,imag_yz,imag_xz,imag_ave,absorption_xx,absorption_yy,absorption_zz,absorption_xy,absorption_yz,absorption_xz,absorption_ave,band_gap
0.0,3.0475702482736238,2.9233359550597307,2.9309469641820427,-0.04777433119845526,0.0006411994443869373,0.03574102143012879,2.9672843891717995,0.0,0.0,0.0,0.0,0.0,0.0,0.0,0.0,0.0,0.0,0.0,0.0,0.0,0.0,3.4968
0.0151,3.0475786581263544,2.92334341313415,2.930954852037583,-0.0477745435983631,0.000640981007480662,0.03574113394901807,2.9672923077660296,0.0,0.0,0.0,0.0,0.0,0.0,0.0,0.0,0.0,0.0,334.51742577697473,0.0,0.0,0.0,
0.0302,3.0476038883525662,2.9233657879245145,2.9309785162571154,-0.047775180802580954,0.0006403256402334181,0.03574147149508711,2.9673160641780654,0.0,0.0,0.0,0.0,0.0,0.0,0.0,0.0,0.0,0.0,669.0393132439592,0.0,0.0,0.0,
0.0453,3.0476459409564773,2.9234030811323115,2.9310179587995107,-0.047776242824591524,0.0006392331730334014,0.0357420340365295,2.9673556602961,0.0,0.0,0.0,0.0,0.0,0.0,0.0,0.0,0.0,0.0,1003.5701241491253,0.0,0.0,0.0,
0.0604,3.0477048192789766,2.923455295593797,2.9310731829301635,-0.0477777296868546,0.0006377033231075371,0.03574282152030146,2.9674110992676455,0.0,0.0,0.0,0.0,0.0,0.0,0.0,0.0,0.0,0.0,1338.114320356801,0.0,0.0,0.0,
0.0755,3.0477805279984866,2.923522435280659,2.9311441932217246,-0.04777964142078942,0.0006357356943917737,0.03574383387207308,2.96748238550029,0.0,0.0,0.0,0.0,0.0,0.0,0.0,0.0,0.0,0.0,1672.6763639051094,0.0,0.0,0.0,
0.0906,3.0478730731319983,2.923604505300964,2.9312309955554356,-0.0477819780667523,0.000633329777348477,0.03574507099615832,2.9675695246627996,0.0,0.0,0.0,0.0,0.0,0.0,0.0,0.0,0.0,0.0,2007.2607170631184,0.0,0.0,0.0,
0.1057,3.0479824620366376,2.923701511900357,2.9313335971225225,-0.04778473967400637,0.0006304849487318434,0.03574653277542699,2.967672523686506,0.0,0.0,0.0,0.0,0.0,0.0,0.0,0.0,0.0,0.0,2341.8718423873065,0.0,0.0,0.0,
0.1208,3.048108703411358,2.9238134624635315,2.93145200642611,-0.047787926300682675,0.0006272004713012284,0.03574821907119526,2.9677913907669997,0.0,0.0,0.0,0.0,0.0,0.0,0.0,0.0,0.0,0.0,2676.514202777125,0.0,0.0,0.0,
0.1359,3.0482518072990885,2.9239403655159886,2.9315862332834266,-0.04779153801373822,0.0006234754934810018,0.035750129723095825,2.967926135366168,0.0,0.0,0.0,0.0,0.0,0.0,0.0,0.0,0.0,0.0,3011.192261529614,0.0,0.0,0.0,
0.151,3.048411785089193,2.9240822307260146,2.9317362888283505,-0.04779557488890397,0.0006193090489681437,0.03575226454893069,2.9680767682145195,0.0,0.0,0.0,0.0,0.0,0.0,0.0,0.0,0.0,0.0,3345.910482392752,0.0,0.0,0.0,
0.1661,3.0485886495201324,2.9242390689070126,2.9319021855142666,-0.047800037010626434,0.00061470005628604,0.03575462334449994,2.968243301313804,0.0,0.0,0.0,0.0,0.0,0.0,0.0,0.0,0.0,0.0,3680.6733296174198,0.0,0.0,0.0,
0.1813,3.048783754262727,2.9244120798976474,2.9320851936506864,-0.04780495825725652,0.0006096123744941312,0.0357572237315552,2.9684270092703535,0.0,0.0,0.0,0.0,0.0,0.0,0.0,0.0,0.0,0.0,4017.7027391983506,0.0,0.0,0.0,
0.1964,3.04899454768561,2.924599000425319,2.9322829204261947,-0.04781027397781567,0.0006041116257511667,0.035760031244233825,2.9686254895123745,0.0,0.0,0.0,0.0,0.0,0.0,0.0,0.0,0.0,0.0,4352.568603725592,0.0,0.0,0.0,
0.2115,3.0492222742083257,2.924800933360014,2.9324965337674027,-0.04781601525064005,0.0005981643782389286,0.03576306197816117,2.968839913778581,0.0,0.0,0.0,0.0,0.0,0.0,0.0,0.0,0.0,0.0,4687.492520458717,0.0,0.0,0.0,
0.2266,3.0494669520093636,2.925017894131524,2.9327260514504854,-0.04782218219437358,0.0005917690834679548,0.03576631563887131,2.9690702991971243,0.0,0.0,0.0,0.0,0.0,0.0,0.0,0.0,0.0,0.0,5022.478956150942,0.0,0.0,0.0,
0.2417,3.0497286006351896,2.9252498993302933,2.9329714925908377,-0.04782877493597889,0.0005849240747274374,0.035769791908735596,2.96931666418544,0.0,0.0,0.0,0.0,0.0,0.0,0.0,0.0,0.0,0.0,5357.532378291592,0.0,0.0,0.0,
0.2568,3.050007241005065,2.9254969667114246,2.933232877648021,-0.047835793610633434,0.0005776275663108691,0.03577349044666701,2.9695790284548367,0.0,0.0,0.0,0.0,0.0,0.0,0.0,0.0,0.0,0.0,5692.657255145823,0.0,0.0,0.0,
0.2719,3.050302895416118,2.92575911519881,2.9335102284312145,-0.047843238361622256,0.0005698776526843251,0.0357774108878026,2.9698574130153808,0.0,0.0,0.0,0.0,0.0,0.0,0.0,0.0,0.0,0.0,6027.858055791905,0.0,0.0,0.0,
0.287,3.0506155875487853,2.9260363648897076,2.9338035681048162,-0.047851109340218266,0.0005616723075980202,0.03578155284316282,2.970151840181103,0.0,0.0,0.0,0.0,0.0,0.0,0.0,0.0,0.0,0.0,6363.139250155339,0.0,0.0,0.0,
0.3021,3.050945342472685,2.9263287370595625,2.9341129211945756,-0.04785940670555987,0.0005530093831399136,0.035785915899290005,2.9704623335756075,0.0,0.0,0.0,0.0,0.0,0.0,0.0,0.0,0.0,0.0,6698.50530904021,0.0,0.0,0.0,
0.3172,3.051292186652723,2.926636254167048,2.9344383135940513,-0.04786813062451509,0.0005438866087301202,0.03579049961786123,2.970788918137941,0.0,0.0,0.0,0.0,0.0,0.0,0.0,0.0,0.0,0.0,7033.960704156895,0.0,0.0,0.0,
0.3323,3.051656147955592,2.9269589398594604,2.9347797725713693,-0.04787728127154012,0.0005343015900565753,0.035795303535281306,2.971131620128807,0.0,0.0,0.0,0.0,0.0,0.0,0.0,0.0,0.0,0.0,7369.509908146441,0.0,0.0,0.0,
0.3474,3.052037255656663,2.9272968189784003,2.935137326776453,-0.047886858828531005,0.00052425180794963,0.035800327162248714,2.9714904671371722,0.0,0.0,0.0,0.0,0.0,0.0,0.0,0.0,0.0,0.0,7705.157394601321,0.0,0.0,0.0,
0.3625,3.0524355404471932,2.9276499175657724,2.935511006248613,-0.047896863484663044,0.0005137346171959874,0.03580556998329905,2.971865488087193,0.0,0.0,0.0,0.0,0.0,0.0,0.0,0.0,0.0,0.0,8040.907638081985,0.0,0.0,0.0,
0.3776,3.0528510344419337,2.9280182628700104,2.935900842424468,-0.04790729543622323,0.0005027472452902719,0.035811031456324784,2.972256713245471,0.0,0.0,0.0,0.0,0.0,0.0,0.0,0.0,0.0,0.0,8376.76511412936,0.0,0.0,0.0,
0.3927,3.0532837711870475,2.928401883352681,2.9363068681462705,-0.047918154886434146,0.0004912867911236021,0.03581671101206724,2.9726641742286666,0.0,0.0,0.0,0.0,0.0,0.0,0.0,0.0,0.0,0.0,8712.734299272992,0.0,0.0,0.0,
0.4078,3.053733785668484,2.9288008086954065,2.9367291176707013,-0.0479294420452675,0.0004793502236073151,0.035822608053585385,2.9730879040115306,0.0,0.0,0.0,0.0,0.0,0.0,0.0,0.0,0.0,0.0,9048.819671034415,0.0,0.0,0.0,
0.4229,3.0542011143206627,2.9292150698069737,2.937167626677965,-0.04794115712924804,0.000466934380232657,0.035828721955698334,2.9735279369352003,0.0,0.0,0.0,0.0,0.0,0.0,0.0,0.0,0.0,0.0,9385.025707925644,0.0,0.0,0.0,
0.438,3.0546857950355184,2.929644698830943,2.937622432281324,-0.047953300361249555,0.00045403596556241457,0.035835052064398146,2.9739843087159286,0.0,0.0,0.0,0.0,0.0,0.0,0.0,0.0,0.0,0.0,9721.356889442653,0.0,0.0,0.0,
0.4531,3.055187867172093,2.9300897291534227,2.9380935730370497,-0.04796587197027755,0.0004406515496562849,0.035841597696240214,2.974457056454188,0.0,0.0,0.0,0.0,0.0,0.0,0.0,0.0,0.0,0.0,10057.817696053144,0.0,0.0,0.0,
0.4682,3.0557073715662244,2.9305501954112527,2.93858108895482,-0.04797887219124476,0.0004267775664265229,0.03584835813770142,2.974946218644099,0.0,0.0,0.0,0.0,0.0,0.0,0.0,0.0,0.0,0.0,10394.412609178904,0.0,0.0,0.0,
0.4833,3.0562443505409624,2.931026133500432,2.939085021508424,-0.04799230126473446,0.00041241031192337514,0.03585533264451189,2.975451835183273,0.0,0.0,0.0,0.0,0.0,0.0,0.0,0.0,0.0,0.0,10731.146111172071,0.0,0.0,0.0,
0.4984,3.0567988479171078,2.931517580585004,2.9396054136470102,-0.04800615943675309,0.0003975459425487429,0.03586252044095735,2.9759739473830407,0.0,0.0,0.0,0.0,0.0,0.0,0.0,0.0,0.0,0.0,11068.022685285141,0.0,0.0,0.0,
0.5135,3.0573709090243897,2.9320245751061638,2.9401423098067747,-0.04802044695847159,0.00038218047319722715,0.03586992071915061,2.9765125979791094,0.0,0.0,0.0,0.0,0.0,0.0,0.0,0.0,0.0,0.0,11405.046815634427,0.0,0.0,0.0,
0.5287,3.057964544629743,2.9325506696432826,2.9406994763980547,-0.04803526298291154,0.00036620297789363856,0.035877583751841455,2.977071563557027,0.0,0.0,0.0,0.0,0.0,0.0,0.0,0.0,0.0,0.0,11744.45645871713,0.0,0.0,0.0,
0.5438,3.058571992393162,2.933088983155191,2.941269629995599,-0.04805041282451662,0.00034981938873257143,0.03588540783016536,2.977643535181317,0.0,0.0,0.0,0.0,0.0,0.0,0.0,0.0,0.0,0.0,12081.790208674403,0.0,0.0,0.0,
0.5589,3.059197149382735,2.9336429674715596,2.94185643029725,-0.04806599279933122,0.0003329218457311805,0.03589344175965662,2.9782321823838482,0.0,0.0,0.0,0.0,0.0,0.0,0.0,0.0,0.0,0.0,12419.285001643597,0.0,0.0,0.0,
0.574,3.0598400670930177,2.9342126662493233,2.9424599278227,-0.04808200317638987,0.0003155057766429423,0.0359016845955934,2.9788375537216805,0.0,0.0,0.0,0.0,0.0,0.0,0.0,0.0,0.0,0.0,12756.945324693423,0.0,0.0,0.0,
0.5891,3.0605007985891723,2.9347981244736743,2.9430801746436783,-0.048098444228415645,0.0002975664572486112,0.03591013535695813,2.9794596992355085,0.0,0.0,0.0,0.0,0.0,0.0,0.0,0.0,0.0,0.0,13094.775665463894,0.0,0.0,0.0,
0.6042,3.0611793985206193,2.935399388469234,2.943717224398317,-0.04811531623148845,0.00027909900902214435,0.03591879302551217,2.9800986704627235,0.0,0.0,0.0,0.0,0.0,0.0,0.0,0.0,0.0,0.0,13432.78051208392,0.0,0.0,0.0,
0.6193,3.0618759231351205,2.9360165059117693,2.944371132306073,-0.048132619464696824,0.0002600983967122278,0.035927656544834694,2.9807545204509878,0.0,0.0,0.0,0.0,0.0,0.0,0.0,0.0,0.0,0.0,13770.964353079624,0.0,0.0,0.0,
0.6344,3.0625904302933553,2.9366495258401777,2.9450419551830684,-0.04815035420977626,0.00024055942583548542,0.03593672481932463,2.9814273037722003,0.0,0.0,0.0,0.0,0.0,0.0,0.0,0.0,0.0,0.0,14109.331677273482,0.0,0.0,0.0,
0.6495,3.0633229794839285,2.9372984986689765,2.9457297514580225,-0.0481685207507333,0.00022047674008058522,0.03594599671316323,2.982117076536976,0.0,0.0,0.0,0.0,0.0,0.0,0.0,0.0,0.0,0.0,14447.886973673849,0.0,0.0,0.0,
0.6646,3.0640736318389408,2.937963476201034,2.946434581188544,-0.048187119373453026,0.00019984481862059765,0.035955471049240545,2.9828238964095064,0.0,0.0,0.0,0.0,0.0,0.0,0.0,0.0,0.0,0.0,14786.634731354181,0.0,0.0,0.0,
0.6797,3.0648424501498583,2.938644511640862,2.947156506078175,-0.048206150365291675,0.0001786579733305828,0.035965146608037325,2.983547822622965,0.0,0.0,0.0,0.0,0.0,0.0,0.0,0.0,0.0,0.0,15125.579439321835,0.0,0.0,0.0,
0.6948,3.0656294988841357,2.9393416596081994,2.947895589493754,-0.04822561401465363,0.00015691034590921665,0.035975022126468956,2.984288915995363,0.0,0.0,0.0,0.0,0.0,0.0,0.0,0.0,0.0,0.0,15464.725586376044,0.0,0.0,0.0,
0.7099,3.0664348442021203,2.940054976152058,2.9486518964834563,-0.048245510610549554,0.00013459590490112603,0.0359850962966847,2.985047238945878,0.0,0.0,0.0,0.0,0.0,0.0,0.0,0.0,0.0,0.0,15804.077660954057,0.0,0.0,0.0,
0.725,3.0672585539745945,2.9407845187651933,2.9494254937953466,-0.04826584044213874,0.00011170844261724745,0.035995367764821824,2.9858228555117114,0.0,0.0,0.0,0.0,0.0,0.0,0.0,0.0,0.0,0.0,16143.64015096572,0.0,0.0,0.0,
0.7401,3.068100697800802,2.9415303463990243,2.950216449896482,-0.04828660379825187,8.824157195149365e-05,0.036005835129717556,2.986615831365436,0.0,0.0,0.0,0.0,0.0,0.0,0.0,0.0,0.0,0.0,16483.417543615295,0.0,0.0,0.0,
0.7552,3.068961347027031,2.9422925194789515,2.9510248349926576,-0.04830780096689731,6.418872308894888e-05,0.03601649694157068,2.98742623383288,0.0,0.0,0.0,0.0,0.0,0.0,0.0,0.0,0.0,0.0,16823.41432521078,0.0,0.0,0.0,
0.7703,3.069840574765702,2.943071099920151,2.951850721048659,-0.04832943223474528,3.9543140105202495e-05,0.03602735170055625,2.988254131911504,0.0,0.0,0.0,0.0,0.0,0.0,0.0,0.0,0.0,0.0,17163.634980959236,0.0,0.0,0.0,
0.7854,3.070738455915044,2.9438661511438386,2.9526941818091874,-0.04835149788659441,1.4297877451780326e-05,0.0360383978553902,2.989099596289357,0.0,0.0,0.0,0.0,0.0,0.0,0.0,0.0,0.0,0.0,17504.08399474854,0.0,0.0,0.0,
0.8005,3.0716550671793312,2.944677738093951,2.953555292820406,-0.04837399820481554,-1.155420367520215e-05,0.03604963380184223,2.9899626993645625,0.0,0.0,0.0,0.0,0.0,0.0,0.0,0.0,0.0,0.0,17844.765848914165,275.7876861266705,0.0,0.0,
0.8156,3.072590487089742,2.945505927254421,2.9544341314520652,-0.04839693346877563,-3.80204390853268e-05,0.036061057881194604,2.9908435152654094,0.0,0.0,0.0,0.0,0.0,0.0,0.0,0.0,0.0,0.0,18185.685023991024,509.7172208529611,0.0,0.0,
0.8307,3.0735447960256703,2.946350786666792,2.955330776920306,-0.048420303954238055,-6.510836546796161e-05,0.03607266837864737,2.991742119870923,0.0,0.0,0.0,0.0,0.0,0.0,0.0,0.0,0.0,0.0,18526.84599844927,679.3696355310753,0.0,0.0,
0.8458,3.0745180762368323,2.9472123859484176,2.9562453103111173,-0.048444109932741355,-9.282572439262277e-05,0.036084463521666624,2.992658590832123,0.0,0.0,0.0,0.0,0.0,0.0,0.0,0.0,0.0,0.0,18868.25324841385,825.9340670919719,0.0,0.0,
0.861,3.0755170473311004,2.9480966697942756,2.9571840502182267,-0.04846851366531846,-0.00012137038878763258,0.036096521407652724,2.993599255781201,0.0,0.0,0.0,0.0,0.0,0.0,0.0,0.0,0.0,0.0,19212.174728883165,961.3976326695158,0.0,0.0,
0.8761,3.0765286514927648,2.948992076124079,2.9581347301752237,-0.048493194312771805,-0.00015037498065537824,0.036108681476343524,2.994551819264023,0.0,0.0,0.0,0.0,0.0,0.0,0.0,0.0,0.0,0.0,19554.08965243638,1088.8924785340246,0.0,0.0,
0.8912,3.077559485719333,2.949904441318305,2.9591035533585472,-0.04851831123760594,-0.00018003355728361397,0.03612102049600127,2.9955224934653955,0.0,0.0,0.0,0.0,0.0,0.0,0.0,0.0,0.0,0.0,19896.264292303447,1211.9799481217021,0.0,0.0,
0.9063,3.0786096399874867,2.950833841500816,2.96009060859525,-0.04854386468769411,-0.00021035472392347772,0.036133536444986895,2.996511363361184,0.0,0.0,0.0,0.0,0.0,0.0,0.0,0.0,0.0,0.0,20238.703112042644,1332.2681332845848,0.0,0.0,
0.9214,3.0796792062639575,2.951780354470264,2.961095986710212,-0.04856985490318961,-0.00024134731277691767,0.03614622723472848,2.997518515814811,0.0,0.0,0.0,0.0,0.0,0.0,0.0,0.0,0.0,0.0,20581.410571189263,1450.8181067934904,0.0,0.0,
0.9365,3.080768278531523,2.952744059721462,2.962119780553974,-0.04859628211574864,-0.0002730203878423016,0.03615909070768511,2.99854403960232,0.0,0.0,0.0,0.0,0.0,0.0,0.0,0.0,0.0,0.0,20924.391124861322,1568.3711565519368,0.0,0.0,
0.9516,3.0818769528155876,2.953725038467441,2.9631620850312705,-0.048623146547716906,-0.00030538324991489824,0.03617212463523824,2.9995880254380993,0.0,0.0,0.0,0.0,0.0,0.0,0.0,0.0,0.0,0.0,21267.649223342152,1685.46820778406,0.0,0.0,
0.9667,3.0830053272116156,2.9547233736619845,2.964222997130443,-0.048650448411290785,-0.00033844544174992916,0.03618532671550747,3.000650566001348,0.0,0.0,0.0,0.0,0.0,0.0,0.0,0.0,0.0,0.0,21611.189311641356,1802.5178685716485,0.0,0.0,
0.9818,3.0841535019131823,2.9557391500229446,2.965302615953555,-0.04867818790764479,-0.00037221675339008684,0.036198694571091164,3.0017317559632275,0.0,0.0,0.0,0.0,0.0,0.0,0.0,0.0,0.0,0.0,21955.015829031807,1919.8376814765893,0.0,0.0,
0.9969,3.0853215792408717,2.9567724540559768,2.9664010427475223,-0.04870636522602477,-0.00040670722766480185,0.036212225746725085,3.0028316920147904,0.0,0.0,0.0,0.0,0.0,0.0,0.0,0.0,0.0,0.0,22299.133208561772,2037.680392887677,0.0,0.0,
1.012,3.08650966367195,2.957823374079072,2.9675183809359345,-0.04873498054280579,-0.0004419271658669802,0.03622591770686008,3.0039504728956516,0.0,0.0,0.0,0.0,0.0,0.0,0.0,0.0,0.0,0.0,22643.545876541266,2156.251365328682,0.0,0.0,
1.0271,3.0877178618707477,2.9588920002476984,2.968654736151886,-0.04876403402051808,-0.00047788713361053456,0.03623976783315267,3.0050881994234437,0.0,0.0,0.0,0.0,0.0,0.0,0.0,0.0,0.0,0.0,22988.25825200257,2275.7205097619308,0.0,0.0,
1.0422,3.088946282719954,2.959978424580637,2.969810216271651,-0.048793525806830815,-0.0005145979668774514,0.03625377342186755,3.006244974524081,0.0,0.0,0.0,0.0,0.0,0.0,0.0,0.0,0.0,0.0,23333.274746131832,2396.2306959522016,0.0,0.0,
1.0573,3.0901950373526885,2.9610827409863587,2.970984931449313,-0.048823456033500495,-0.0005520707782589618,0.03626793168118773,3.007420903262787,0.0,0.0,0.0,0.0,0.0,0.0,0.0,0.0,0.0,0.0,23678.599761672576,2517.903825155135,0.0,0.0,
1.0724,3.0914642391854823,2.962205045290408,2.9721789941523946,-0.048853824815276434,-0.0005903169633972097,0.03628223972842909,3.0086160928760948,0.0,0.0,0.0,0.0,0.0,0.0,0.0,0.0,0.0,0.0,24024.237692298328,2640.8453076052065,0.0,0.0,
1.0875,3.0927540039520474,2.9633454352632,2.9733925191984136,-0.048884632248768135,-0.0006293482076349691,0.03629669458715624,3.009830652804554,0.0,0.0,0.0,0.0,0.0,0.0,0.0,0.0,0.0,0.0,24370.192921954862,2765.1474249468934,0.0,0.0,
1.1026,3.0940644497380716,2.9645040106487413,2.9746256237924467,-0.048915878411263915,-0.0006691764928793081,0.03631129318419513,3.0110646947264197,0.0,0.0,0.0,0.0,0.0,0.0,0.0,0.0,0.0,0.0,24716.469824168435,2890.89189660226,0.0,0.0,
1.1177,3.0953956970168353,2.965680873194108,2.9758784275658563,-0.04894756335950972,-0.0007098141046872614,0.036326032346540006,3.0123183325922667,0.0,0.0,0.0,0.0,0.0,0.0,0.0,0.0,0.0,0.0,25063.072761321248,3018.151867105555,0.0,0.0,
1.1328,3.096747868685795,2.966876126679594,2.97715105261587,-0.04897968712843682,-0.0007512736395803581,0.036340908798148774,3.01359168266042,0.0,0.0,0.0,0.0,0.0,0.0,0.0,0.0,0.0,0.0,25410.006083890494,3146.993465202705,0.0,0.0,
1.1479,3.098121090104213,2.968089876949776,2.978443623546517,-0.049012249729843714,-0.0007935680125962692,0.03635591915662397,3.0148848635335015,0.0,0.0,0.0,0.0,0.0,0.0,0.0,0.0,0.0,0.0,25757.274129651185,3277.4770414879436,0.0,0.0,
1.163,3.099515489131675,2.9693222319453643,2.9797562675104636,-0.04904525115102507,-0.0008367104650856779,0.03637105992977556,3.016197996195834,0.0,0.0,0.0,0.0,0.0,0.0,0.0,0.0,0.0,0.0,26104.881222839973,3409.658161464836,0.0,0.0,
1.1781,3.1009311961677293,2.9705733017359144,2.9810891142522107,-0.049078691353348254,-0.0008807145727618347,0.03638632751205884,3.0175312040519517,0.0,0.0,0.0,0.0,0.0,0.0,0.0,0.0,0.0,0.0,26452.831673278917,3543.588410250212,0.0,0.0,
1.1932,3.1023683441925445,2.9718431985533424,2.9824422961523034,-0.04911257027077591,-0.0009255942540140738,0.03640171818088476,3.0188846129660636,0.0,0.0,0.0,0.0,0.0,0.0,0.0,0.0,0.0,0.0,26801.129775457826,3679.316050609961,0.0,0.0,
1.2084,3.1038368014620987,2.973140635573504,2.983825113843621,-0.04914711653853232,-0.0009716698863530476,0.03641733119612647,3.0202675169597413,0.0,0.0,0.0,0.0,0.0,0.0,0.0,0.0,0.0,0.0,27152.089930740753,3817.803868647727,0.0,0.0,
1.2235,3.105317385210977,2.974448658569882,2.985219510917786,-0.049181875474152016,-0.001018349923297829,0.03643295713273187,3.021661851566215,0.0,0.0,0.0,0.0,0.0,0.0,0.0,0.0,0.0,0.0,27501.098526729293,3957.273042327188,0.0,0.0,
1.2386,3.106819825738417,2.9757758594077943,2.9866346575105527,-0.049217072745528195,-0.001065949532878948,0.03644869421933915,3.0230767808855883,0.0,0.0,0.0,0.0,0.0,0.0,0.0,0.0,0.0,0.0,27850.46758412308,4098.669715789229,0.0,0.0,
1.2537,3.1083442667939996,2.9771223593380736,2.988070697033986,-0.04925270816081619,-0.0011144840954302804,0.0364645382246378,3.024512441055353,0.0,0.0,0.0,0.0,0.0,0.0,0.0,0.0,0.0,0.0,28200.201325872727,4242.033450410569,0.0,0.0,
1.2688,3.109890854928394,2.9784882819559746,2.9895277757773053,-0.04928878149245747,-0.0011639693798598581,0.03648048477968564,3.025968970887225,0.0,0.0,0.0,0.0,0.0,0.0,0.0,0.0,0.0,0.0,28550.30395430777,4387.402447344818,0.0,0.0,
1.2839,3.1114597395409005,2.979873753240433,2.9910060429591736,-0.04932529247532414,-0.0012144215537457123,0.036496529373335085,3.0274465119135026,0.0,0.0,0.0,0.0,0.0,0.0,0.0,0.0,0.0,0.0,28900.779649928703,4534.813778391692,0.0,0.0,
1.299,3.113051072928397,2.9812789015945267,2.992505650781503,-0.04936224080478659,-0.0012658571937665597,0.036512667347491035,3.028945208434809,0.0,0.0,0.0,0.0,0.0,0.0,0.0,0.0,0.0,0.0,29251.632570141854,4684.303584510565,0.0,0.0,
1.3141,3.1146650103355356,2.982703857886903,2.9940267544846595,-0.049399626134707636,-0.001318293296480007,0.03652889389219484,3.030465207569033,0.0,0.0,0.0,0.0,0.0,0.0,0.0,0.0,0.0,0.0,29602.866847936704,4835.907247547387,0.0,0.0,
