energies(eV),real_xx,real_yy,real_zz,real_xy,real_yz,real_xz,real_ave,imag_xx,imag_yy,imag_zz,imag_xy,imag_yz,imag_xz,imag_ave,absorption_xx,absorption_yy,absorption_zz,absorption_xy,absorption_yz,absorption_xz,absorption_ave,band_gap
0.0,2.4225056894008037,2.4225056894008037,2.5366941673229575,0.0,0.0,0.0,2.4605685153748547,0.0,0.0,0.0,0.0,0.0,0.0,0.0,0.0,0.0,0.0,0.0,0.0,0.0,0.0,6.642900000000001
0.0163,2.422507961036966,2.422507961036966,2.5366967671065677,0.0,0.0,0.0,2.4605708963935,0.0,0.0,0.0,0.0,0.0,0.0,0.0,0.0,0.0,0.0,0.0,0.0,0.0,0.0,
0.0326,2.42251477600752,2.42251477600752,2.536704566529238,0.0,0.0,0.0,2.4605780395147594,0.0,0.0,0.0,0.0,0.0,0.0,0.0,0.0,0.0,0.0,0.0,0.0,0.0,0.0,
0.0489,2.422526134498665,2.422526134498665,2.5367175658065286,0.0,0.0,0.0,2.4605899449346196,0.0,0.0,0.0,0.0,0.0,0.0,0.0,0.0,0.0,0.0,0.0,0.0,0.0,0.0,
0.0652,2.4225420368208286,2.4225420368208286,2.536735765297739,0.0,0.0,0.0,2.4606066129797988,0.0,0.0,0.0,0.0,0.0,0.0,0.0,0.0,0.0,0.0,0.0,0.0,0.0,0.0,
0.0815,2.4225624834085475,2.4225624834085475,2.5367591655059005,0.0,0.0,0.0,2.4606280441076653,0.0,0.0,0.0,0.0,0.0,0.0,0.0,0.0,0.0,0.0,0.0,0.0,0.0,0.0,
0.0978,2.4225874748206517,2.4225874748206517,2.536787767077861,0.0,0.0,0.0,2.4606542389063883,0.0,0.0,0.0,0.0,0.0,0.0,0.0,0.0,0.0,0.0,0.0,0.0,0.0,0.0,
0.1141,2.4226170117402313,2.4226170117402313,2.5368215708043254,0.0,0.0,0.0,2.460685198094929,0.0,0.0,0.0,0.0,0.0,0.0,0.0,0.0,0.0,0.0,0.0,0.0,0.0,0.0,
0.1304,2.4226510949746953,2.4226510949746953,2.536860577619912,0.0,0.0,0.0,2.460720922523101,0.0,0.0,0.0,0.0,0.0,0.0,0.0,0.0,0.0,0.0,0.0,0.0,0.0,0.0,
0.1466,2.422689474593945,2.422689474593945,2.536904501502017,0.0,0.0,0.0,2.460761150229969,0.0,0.0,0.0,0.0,0.0,0.0,0.0,0.0,0.0,0.0,0.0,0.0,0.0,0.0,
0.1629,2.4227326254709816,2.4227326254709816,2.5369538859368435,0.0,0.0,0.0,2.460806378959602,0.0,0.0,0.0,0.0,0.0,0.0,0.0,0.0,0.0,0.0,0.0,0.0,0.0,0.0,
0.1792,2.4227803258243377,2.4227803258243377,2.537008477120163,0.0,0.0,0.0,2.4608563762562796,0.0,0.0,0.0,0.0,0.0,0.0,0.0,0.0,0.0,0.0,0.0,0.0,0.0,0.0,
0.1955,2.4228325769588084,2.4228325769588084,2.537068276562294,0.0,0.0,0.0,2.4609111434933038,0.0,0.0,0.0,0.0,0.0,0.0,0.0,0.0,0.0,0.0,0.0,0.0,0.0,0.0,
0.2118,2.4228893803040092,2.4228893803040092,2.537133285917982,0.0,0.0,0.0,2.460970682175333,0.0,0.0,0.0,0.0,0.0,0.0,0.0,0.0,0.0,0.0,0.0,0.0,0.0,0.0,
0.2281,2.42295073741447,2.42295073741447,2.537203506986546,0.0,0.0,0.0,2.4610349939384952,0.0,0.0,0.0,0.0,0.0,0.0,0.0,0.0,0.0,0.0,0.0,0.0,0.0,0.0,
0.2444,2.423016649969777,2.423016649969777,2.537278941712017,0.0,0.0,0.0,2.4611040805505238,0.0,0.0,0.0,0.0,0.0,0.0,0.0,0.0,0.0,0.0,0.0,0.0,0.0,0.0,
0.2607,2.423087119774686,2.423087119774686,2.5373595921832925,0.0,0.0,0.0,2.4611779439108883,0.0,0.0,0.0,0.0,0.0,0.0,0.0,0.0,0.0,0.0,0.0,0.0,0.0,0.0,
0.277,2.4231621487593658,2.4231621487593658,2.537445460634366,0.0,0.0,0.0,2.4612565860510327,0.0,0.0,0.0,0.0,0.0,0.0,0.0,0.0,0.0,0.0,0.0,0.0,0.0,0.0,
0.2933,2.423241738979442,2.423241738979442,2.5375365494444426,0.0,0.0,0.0,2.4613400091344424,0.0,0.0,0.0,0.0,0.0,0.0,0.0,0.0,0.0,0.0,0.0,0.0,0.0,0.0,
0.3096,2.4233258926163077,2.4233258926163077,2.537632861138201,0.0,0.0,0.0,2.4614282154569387,0.0,0.0,0.0,0.0,0.0,0.0,0.0,0.0,0.0,0.0,0.0,0.0,0.0,0.0,
0.3259,2.4234146119771998,2.4234146119771998,2.5377343983859566,0.0,0.0,0.0,2.4615212074467854,0.0,0.0,0.0,0.0,0.0,0.0,0.0,0.0,0.0,0.0,0.0,0.0,0.0,0.0,
0.3422,2.4235078994954793,2.4235078994954793,2.537841164003914,0.0,0.0,0.0,2.4616189876649575,0.0,0.0,0.0,0.0,0.0,0.0,0.0,0.0,0.0,0.0,0.0,0.0,0.0,0.0,
0.3585,2.4236057577307974,2.4236057577307974,2.5379531609543893,0.0,0.0,0.0,2.461721558805328,0.0,0.0,0.0,0.0,0.0,0.0,0.0,0.0,0.0,0.0,0.0,0.0,0.0,0.0,
0.3748,2.423708189369333,2.423708189369333,2.538070392346075,0.0,0.0,0.0,2.4618289236949136,0.0,0.0,0.0,0.0,0.0,0.0,0.0,0.0,0.0,0.0,0.0,0.0,0.0,0.0,
0.3911,2.423815197224049,2.423815197224049,2.538192861434308,0.0,0.0,0.0,2.4619410852941352,0.0,0.0,0.0,0.0,0.0,0.0,0.0,0.0,0.0,0.0,0.0,0.0,0.0,0.0,
0.4073,2.423926085685526,2.423926085685526,2.5383197721377377,0.0,0.0,0.0,2.46205731450293,0.0,0.0,0.0,0.0,0.0,0.0,0.0,0.0,0.0,0.0,0.0,0.0,0.0,0.0,
0.4236,2.424042226798325,2.424042226798325,2.5384526947860255,0.0,0.0,0.0,2.4621790494608917,0.0,0.0,0.0,0.0,0.0,0.0,0.0,0.0,0.0,0.0,0.0,0.0,0.0,0.0,
0.4399,2.4241629533092404,2.4241629533092404,2.53859086575628,0.0,0.0,0.0,2.462305590791587,0.0,0.0,0.0,0.0,0.0,0.0,0.0,0.0,0.0,0.0,0.0,0.0,0.0,0.0,
0.4562,2.424288268540062,2.424288268540062,2.5387342888922713,0.0,0.0,0.0,2.4624369419907985,0.0,0.0,0.0,0.0,0.0,0.0,0.0,0.0,0.0,0.0,0.0,0.0,0.0,0.0,
0.4725,2.4244181759406986,2.4244181759406986,2.538882968185951,0.0,0.0,0.0,2.462573106689116,0.0,0.0,0.0,0.0,0.0,0.0,0.0,0.0,0.0,0.0,0.0,0.0,0.0,0.0,
0.4888,2.4245526790894183,2.4245526790894183,2.5390369077777186,0.0,0.0,0.0,2.4627140886521848,0.0,0.0,0.0,0.0,0.0,0.0,0.0,0.0,0.0,0.0,0.0,0.0,0.0,0.0,
0.5051,2.4246917816932783,2.4246917816932783,2.539196111956756,0.0,0.0,0.0,2.462859891781104,0.0,0.0,0.0,0.0,0.0,0.0,0.0,0.0,0.0,0.0,0.0,0.0,0.0,0.0,
0.5214,2.424835487588325,2.424835487588325,2.5393605851614733,0.0,0.0,0.0,2.4630105201127077,0.0,0.0,0.0,0.0,0.0,0.0,0.0,0.0,0.0,0.0,0.0,0.0,0.0,0.0,
0.5377,2.424983800739999,2.424983800739999,2.5395303319797895,0.0,0.0,0.0,2.463165977819929,0.0,0.0,0.0,0.0,0.0,0.0,0.0,0.0,0.0,0.0,0.0,0.0,0.0,0.0,
0.554,2.4251367252434837,2.4251367252434837,2.539705357149593,0.0,0.0,0.0,2.4633262692121867,0.0,0.0,0.0,0.0,0.0,0.0,0.0,0.0,0.0,0.0,0.0,0.0,0.0,0.0,
0.5703,2.4252942653240748,2.4252942653240748,2.539885665559101,0.0,0.0,0.0,2.46349139873575,0.0,0.0,0.0,0.0,0.0,0.0,0.0,0.0,0.0,0.0,0.0,0.0,0.0,0.0,
0.5866,2.4254564253374964,2.4254564253374964,2.540071262247322,0.0,0.0,0.0,2.463661370974105,0.0,0.0,0.0,0.0,0.0,0.0,0.0,0.0,0.0,0.0,0.0,0.0,0.0,0.0,
0.6029,2.425623209770344,2.425623209770344,2.5402621524044315,0.0,0.0,0.0,2.4638361906483732,0.0,0.0,0.0,0.0,0.0,0.0,0.0,0.0,0.0,0.0,0.0,0.0,0.0,0.0,
0.6192,2.42579462324046,2.42579462324046,2.540458341372244,0.0,0.0,0.0,2.464015862617721,0.0,0.0,0.0,0.0,0.0,0.0,0.0,0.0,0.0,0.0,0.0,0.0,0.0,0.0,
0.6355,2.425970670497346,2.425970670497346,2.5406598346446447,0.0,0.0,0.0,2.464200391879779,0.0,0.0,0.0,0.0,0.0,0.0,0.0,0.0,0.0,0.0,0.0,0.0,0.0,0.0,
0.6518,2.4261513564225963,2.4261513564225963,2.5408666378681257,0.0,0.0,0.0,2.464389783571106,0.0,0.0,0.0,0.0,0.0,0.0,0.0,0.0,0.0,0.0,0.0,0.0,0.0,0.0,
0.668,2.4263355348714324,2.4263355348714324,2.5410774392808526,0.0,0.0,0.0,2.4645828363412394,0.0,0.0,0.0,0.0,0.0,0.0,0.0,0.0,0.0,0.0,0.0,0.0,0.0,0.0,
0.6843,2.426525484772225,2.426525484772225,2.541294847291584,0.0,0.0,0.0,2.4647819389453445,0.0,0.0,0.0,0.0,0.0,0.0,0.0,0.0,0.0,0.0,0.0,0.0,0.0,0.0,
0.7006,2.426720088750174,2.426720088750174,2.5415175830750893,0.0,0.0,0.0,2.4649859201918125,0.0,0.0,0.0,0.0,0.0,0.0,0.0,0.0,0.0,0.0,0.0,0.0,0.0,0.0,
0.7169,2.426919352218818,2.426919352218818,2.5417456528920948,0.0,0.0,0.0,2.465194785776577,0.0,0.0,0.0,0.0,0.0,0.0,0.0,0.0,0.0,0.0,0.0,0.0,0.0,0.0,
0.7332,2.4271232807260414,2.4271232807260414,2.541979063158425,0.0,0.0,0.0,2.4654085415368363,0.0,0.0,0.0,0.0,0.0,0.0,0.0,0.0,0.0,0.0,0.0,0.0,0.0,0.0,
0.7495,2.4273318799546333,2.4273318799546333,2.5422178204455737,0.0,0.0,0.0,2.4656271934516134,0.0,0.0,0.0,0.0,0.0,0.0,0.0,0.0,0.0,0.0,0.0,0.0,0.0,0.0,
0.7658,2.427545155722698,2.427545155722698,2.5424619314812604,0.0,0.0,0.0,2.465850747642219,0.0,0.0,0.0,0.0,0.0,0.0,0.0,0.0,0.0,0.0,0.0,0.0,0.0,0.0,
0.7821,2.427763113984291,2.427763113984291,2.54271140315,0.0,0.0,0.0,2.4660792103728606,0.0,0.0,0.0,0.0,0.0,0.0,0.0,0.0,0.0,0.0,0.0,0.0,0.0,0.0,
0.7984,2.4279857608298654,2.4279857608298654,2.5429662424937316,0.0,0.0,0.0,2.4663125880511543,0.0,0.0,0.0,0.0,0.0,0.0,0.0,0.0,0.0,0.0,0.0,0.0,0.0,0.0,
0.8147,2.428213102486845,2.428213102486845,2.5432264567123846,0.0,0.0,0.0,2.4665508872286916,0.0,0.0,0.0,0.0,0.0,0.0,0.0,0.0,0.0,0.0,0.0,0.0,0.0,0.0,
0.831,2.4284451453202096,2.4284451453202096,2.5434920531645613,0.0,0.0,0.0,2.4667941146016603,0.0,0.0,0.0,0.0,0.0,0.0,0.0,0.0,0.0,0.0,0.0,0.0,0.0,0.0,
0.8473,2.428681895833082,2.428681895833082,2.543763039368112,0.0,0.0,0.0,2.467042277011425,0.0,0.0,0.0,0.0,0.0,0.0,0.0,0.0,0.0,0.0,0.0,0.0,0.0,0.0,
0.8636,2.4289233606672003,2.4289233606672003,2.5440394230008154,0.0,0.0,0.0,2.467295381445072,0.0,0.0,0.0,0.0,0.0,0.0,0.0,0.0,0.0,0.0,0.0,0.0,0.0,0.0,
0.8799,2.4291695466036947,2.4291695466036947,2.5443212119010785,0.0,0.0,0.0,2.4675534350361557,0.0,0.0,0.0,0.0,0.0,0.0,0.0,0.0,0.0,0.0,0.0,0.0,0.0,0.0,
0.8962,2.4294204605635605,2.4294204605635605,2.5446084140685645,0.0,0.0,0.0,2.4678164450652287,0.0,0.0,0.0,0.0,0.0,0.0,0.0,0.0,0.0,0.0,0.0,0.0,0.0,0.0,
0.9125,2.4296761096083594,2.4296761096083594,2.54490103766492,0.0,0.0,0.0,2.468084418960546,0.0,0.0,0.0,0.0,0.0,0.0,0.0,0.0,0.0,0.0,0.0,0.0,0.0,0.0,
0.9287,2.4299348889755454,2.4299348889755454,2.5451972458957357,0.0,0.0,0.0,2.468355674615609,0.0,0.0,0.0,0.0,0.0,0.0,0.0,0.0,0.0,0.0,0.0,0.0,0.0,0.0,
0.945,2.43020000077877,2.43020000077877,2.5455007040966824,0.0,0.0,0.0,2.4686335685514074,0.0,0.0,0.0,0.0,0.0,0.0,0.0,0.0,0.0,0.0,0.0,0.0,0.0,0.0,
0.9613,2.4304698696550195,2.4304698696550195,2.545809609137004,0.0,0.0,0.0,2.468916449482348,0.0,0.0,0.0,0.0,0.0,0.0,0.0,0.0,0.0,0.0,0.0,0.0,0.0,0.0,
0.9776,2.4307445032337185,2.4307445032337185,2.546123969832578,0.0,0.0,0.0,2.4692043254333385,0.0,0.0,0.0,0.0,0.0,0.0,0.0,0.0,0.0,0.0,0.0,0.0,0.0,0.0,
0.9939,2.4310239092882266,2.4310239092882266,2.54644379516498,0.0,0.0,0.0,2.469497204580478,0.0,0.0,0.0,0.0,0.0,0.0,0.0,0.0,0.0,0.0,0.0,0.0,0.0,0.0,
1.0102,2.4313080957364908,2.4313080957364908,2.546769094282278,0.0,0.0,0.0,2.469795095251753,0.0,0.0,0.0,0.0,0.0,0.0,0.0,0.0,0.0,0.0,0.0,0.0,0.0,0.0,
1.0265,2.4315970706417955,2.4315970706417955,2.547099876499888,0.0,0.0,0.0,2.4700980059278264,0.0,0.0,0.0,0.0,0.0,0.0,0.0,0.0,0.0,0.0,0.0,0.0,0.0,0.0,
1.0428,2.4318908422135337,2.4318908422135337,2.5474361513012944,0.0,0.0,0.0,2.470405945242787,0.0,0.0,0.0,0.0,0.0,0.0,0.0,0.0,0.0,0.0,0.0,0.0,0.0,0.0,
1.0591,2.432189418807947,2.432189418807947,2.5477779283390243,0.0,0.0,0.0,2.470718921984973,0.0,0.0,0.0,0.0,0.0,0.0,0.0,0.0,0.0,0.0,0.0,0.0,0.0,0.0,
1.0754,2.4324928089288855,2.4324928089288855,2.548125217435388,0.0,0.0,0.0,2.4710369450977194,0.0,0.0,0.0,0.0,0.0,0.0,0.0,0.0,0.0,0.0,0.0,0.0,0.0,0.0,
1.0917,2.4328010212286304,2.4328010212286304,2.5484780285834567,0.0,0.0,0.0,2.4713600236802393,0.0,0.0,0.0,0.0,0.0,0.0,0.0,0.0,0.0,0.0,0.0,0.0,0.0,0.0,
1.108,2.433114064508668,2.433114064508668,2.5488363719478673,0.0,0.0,0.0,2.4716881669884008,0.0,0.0,0.0,0.0,0.0,0.0,0.0,0.0,0.0,0.0,0.0,0.0,0.0,0.0,
1.1243,2.4334319477205235,2.4334319477205235,2.5492002578657926,0.0,0.0,0.0,2.4720213844356134,0.0,0.0,0.0,0.0,0.0,0.0,0.0,0.0,0.0,0.0,0.0,0.0,0.0,0.0,
1.1406,2.4337546799666283,2.4337546799666283,2.5495696968478376,0.0,0.0,0.0,2.4723596855936982,0.0,0.0,0.0,0.0,0.0,0.0,0.0,0.0,0.0,0.0,0.0,0.0,0.0,0.0,
1.1569,2.4340822705011034,2.4340822705011034,2.5499446995789965,0.0,0.0,0.0,2.4727030801937344,0.0,0.0,0.0,0.0,0.0,0.0,0.0,0.0,0.0,0.0,0.0,0.0,0.0,0.0,
1.1732,2.4344147287306885,2.4344147287306885,2.550325276919607,0.0,0.0,0.0,2.4730515781269946,0.0,0.0,0.0,0.0,0.0,0.0,0.0,0.0,0.0,0.0,0.0,0.0,0.0,0.0,
1.1894,2.434749979784061,2.434749979784061,2.550709053756877,0.0,0.0,0.0,2.4734030044416664,0.0,0.0,0.0,0.0,0.0,0.0,0.0,0.0,0.0,0.0,0.0,0.0,0.0,0.0,
1.2057,2.4350921722276344,2.4350921722276344,2.551100779232662,0.0,0.0,0.0,2.4737617078959766,0.0,0.0,0.0,0.0,0.0,0.0,0.0,0.0,0.0,0.0,0.0,0.0,0.0,0.0,
1.222,2.43543926145008,2.43543926145008,2.5514981128904957,0.0,0.0,0.0,2.474125545263552,0.0,0.0,0.0,0.0,0.0,0.0,0.0,0.0,0.0,0.0,0.0,0.0,0.0,0.0,
1.2383,2.4357912574766125,2.4357912574766125,2.5519010663009998,0.0,0.0,0.0,2.4744945270847416,0.0,0.0,0.0,0.0,0.0,0.0,0.0,0.0,0.0,0.0,0.0,0.0,0.0,0.0,
1.2546,2.4361481704896537,2.4361481704896537,2.5523096512152557,0.0,0.0,0.0,2.474868664064854,0.0,0.0,0.0,0.0,0.0,0.0,0.0,0.0,0.0,0.0,0.0,0.0,0.0,0.0,
1.2709,2.436510010829771,2.436510010829771,2.552723879565801,0.0,0.0,0.0,2.475247967075114,0.0,0.0,0.0,0.0,0.0,0.0,0.0,0.0,0.0,0.0,0.0,0.0,0.0,0.0,
1.2872,2.436876788996678,2.436876788996678,2.5531437634677943,0.0,0.0,0.0,2.4756324471537168,0.0,0.0,0.0,0.0,0.0,0.0,0.0,0.0,0.0,0.0,0.0,0.0,0.0,0.0,
1.3035,2.4372485156502934,2.4372485156502934,2.553569315220108,0.0,0.0,0.0,2.476022115506898,0.0,0.0,0.0,0.0,0.0,0.0,0.0,0.0,0.0,0.0,0.0,0.0,0.0,0.0,
1.3198,2.4376252016116764,2.4376252016116764,2.554000547306427,0.0,0.0,0.0,2.476416983509927,0.0,0.0,0.0,0.0,0.0,0.0,0.0,0.0,0.0,0.0,0.0,0.0,0.0,0.0,
1.3361,2.4380068578641296,2.4380068578641296,2.554437472396441,0.0,0.0,0.0,2.4768170627082333,0.0,0.0,0.0,0.0,0.0,0.0,0.0,0.0,0.0,0.0,0.0,0.0,0.0,0.0,
1.3524,2.438393495554269,2.438393495554269,2.5548801033469712,0.0,0.0,0.0,2.477222364818503,0.0,0.0,0.0,0.0,0.0,0.0,0.0,0.0,0.0,0.0,0.0,0.0,0.0,0.0,
1.3687,2.4387851259930375,2.4387851259930375,2.555328453203252,0.0,0.0,0.0,2.4776329017297756,0.0,0.0,0.0,0.0,0.0,0.0,0.0,0.0,0.0,0.0,0.0,0.0,0.0,0.0,
1.385,2.4391817606568766,2.4391817606568766,2.555782535200003,0.0,0.0,0.0,2.4780486855045853,0.0,0.0,0.0,0.0,0.0,0.0,0.0,0.0,0.0,0.0,0.0,0.0,0.0,0.0,
1.4013,2.43958341118882,2.43958341118882,2.5562423627627897,0.0,0.0,0.0,2.4784697283801433,0.0,0.0,0.0,0.0,0.0,0.0,0.0,0.0,0.0,0.0,0.0,0.0,0.0,0.0,
1.4176,2.4399900893996196,2.4399900893996196,2.556707949509207,0.0,0.0,0.0,2.4788960427694824,0.0,0.0,0.0,0.0,0.0,0.0,0.0,0.0,0.0,0.0,0.0,0.0,0.0,0.0,
1.4339,2.440401807268893,2.440401807268893,2.5571793092501753,0.0,0.0,0.0,2.4793276412626537,0.0,0.0,0.0,0.0,0.0,0.0,0.0,0.0,0.0,0.0,0.0,0.0,0.0,0.0,
1.4501,2.440816004651017,2.440816004651017,2.5576535110393124,0.0,0.0,0.0,2.479761840113782,0.0,0.0,0.0,0.0,0.0,0.0,0.0,0.0,0.0,0.0,0.0,0.0,0.0,0.0,
1.4664,2.441237807351417,2.441237807351417,2.558136423348045,0.0,0.0,0.0,2.4802040126836262,0.0,0.0,0.0,0.0,0.0,0.0,0.0,0.0,0.0,0.0,0.0,0.0,0.0,0.0,
1.4827,2.4416646865972162,2.4416646865972162,2.5586251511681475,0.0,0.0,0.0,2.48065150812086,0.0,0.0,0.0,0.0,0.0,0.0,0.0,0.0,0.0,0.0,0.0,0.0,0.0,0.0,
1.499,2.4420966550544927,2.4420966550544927,2.559119709095807,0.0,0.0,0.0,2.4811043397349306,0.0,0.0,0.0,0.0,0.0,0.0,0.0,0.0,0.0,0.0,0.0,0.0,0.0,0.0,
1.5153,2.4425337255642945,2.4425337255642945,2.5596201119272117,0.0,0.0,0.0,2.4815625210186005,0.0,0.0,0.0,0.0,0.0,0.0,0.0,0.0,0.0,0.0,0.0,0.0,0.0,0.0,
1.5316,2.4429759111439284,2.4429759111439284,2.5601263746599487,0.0,0.0,0.0,2.4820260656492685,0.0,0.0,0.0,0.0,0.0,0.0,0.0,0.0,0.0,0.0,0.0,0.0,0.0,0.0,
1.5479,2.443423224988246,2.443423224988246,2.560638512494511,0.0,0.0,0.0,2.4824949874903344,0.0,0.0,0.0,0.0,0.0,0.0,0.0,0.0,0.0,0.0,0.0,0.0,0.0,0.0,
1.5642,2.4438756804709953,2.4438756804709953,2.561156540835671,0.0,0.0,0.0,2.4829693005925537,0.0,0.0,0.0,0.0,0.0,0.0,0.0,0.0,0.0,0.0,0.0,0.0,0.0,0.0,
1.5805,2.444333291146137,2.444333291146137,2.5616804752939837,0.0,0.0,0.0,2.4834490191954193,0.0,0.0,0.0,0.0,0.0,0.0,0.0,0.0,0.0,0.0,0.0,0.0,0.0,0.0,
1.5968,2.444796070749218,2.444796070749218,2.562210331687326,0.0,0.0,0.0,2.483934157728587,0.0,0.0,0.0,0.0,0.0,0.0,0.0,0.0,0.0,0.0,0.0,0.0,0.0,0.0,
1.6131,2.4452640331988187,2.4452640331988187,2.56274612604237,0.0,0.0,0.0,2.484424730813336,0.0,0.0,0.0,0.0,0.0,0.0,0.0,0.0,0.0,0.0,0.0,0.0,0.0,0.0,
1.6294,2.4457371925978935,2.4457371925978935,2.563287874596194,0.0,0.0,0.0,2.4849207532639936,0.0,0.0,0.0,0.0,0.0,0.0,0.0,0.0,0.0,0.0,0.0,0.0,0.0,0.0,
1.6457,2.446215563235217,2.446215563235217,2.5638355937977693,0.0,0.0,0.0,2.485422240089401,0.0,0.0,0.0,0.0,0.0,0.0,0.0,0.0,0.0,0.0,0.0,0.0,0.0,0.0,
1.662,2.4466991595869585,2.4466991595869585,2.5643893003096583,0.0,0.0,0.0,2.485929206494525,0.0,0.0,0.0,0.0,0.0,0.0,0.0,0.0,0.0,0.0,0.0,0.0,0.0,0.0,
1.6783,2.447187996317987,2.447187996317987,2.5649490110095927,0.0,0.0,0.0,2.4864416678818553,0.0,0.0,0.0,0.0,0.0,0.0,0.0,0.0,0.0,0.0,0.0,0.0,0.0,0.0,
1.6946,2.4476820882835573,2.4476820882835573,2.565514742992167,0.0,0.0,0.0,2.4869596398530938,0.0,0.0,0.0,0.0,0.0,0.0,0.0,0.0,0.0,0.0,0.0,0.0,0.0,0.0,
1.7108,2.4481783708605622,2.4481783708605622,2.5660829873304234,0.0,0.0,0.0,2.487479909683849,0.0,0.0,0.0,0.0,0.0,0.0,0.0,0.0,0.0,0.0,0.0,0.0,0.0,0.0,
1.7271,2.4486829861564505,2.4486829861564505,2.5666607768296594,0.0,0.0,0.0,2.488008916380853,0.0,0.0,0.0,0.0,0.0,0.0,0.0,0.0,0.0,0.0,0.0,0.0,0.0,0.0,
1.7434,2.4491929023146275,2.4491929023146275,2.5672446401036044,0.0,0.0,0.0,2.48854348157762,0.0,0.0,0.0,0.0,0.0,0.0,0.0,0.0,0.0,0.0,0.0,0.0,0.0,0.0,
1.7597,2.4497081349659626,2.4497081349659626,2.567834595129858,0.0,0.0,0.0,2.489083621687261,0.0,0.0,0.0,0.0,0.0,0.0,0.0,0.0,0.0,0.0,0.0,0.0,0.0,0.0,
1.776,2.450228699939599,2.450228699939599,2.568430660111572,0.0,0.0,0.0,2.4896293533302565,0.0,0.0,0.0,0.0,0.0,0.0,0.0,0.0,0.0,0.0,0.0,0.0,0.0,0.0,
1.7923,2.450754613264584,2.450754613264584,2.569032853479168,0.0,0.0,0.0,2.490180693336112,0.0,0.0,0.0,0.0,0.0,0.0,0.0,0.0,0.0,0.0,0.0,0.0,0.0,0.0,
1.8086,2.4512858911715547,2.4512858911715547,2.5696411938922985,0.0,0.0,0.0,2.490737658745136,0.0,0.0,0.0,0.0,0.0,0.0,0.0,0.0,0.0,0.0,0.0,0.0,0.0,0.0,
1.8249,2.451822550094513,2.451822550094513,2.5702557002416206,0.0,0.0,0.0,2.4913002668102155,0.0,0.0,0.0,0.0,0.0,0.0,0.0,0.0,0.0,0.0,0.0,0.0,0.0,0.0,
1.8412,2.452364606672523,2.452364606672523,2.5708763916508066,0.0,0.0,0.0,2.4918685349986176,0.0,0.0,0.0,0.0,0.0,0.0,0.0,0.0,0.0,0.0,0.0,0.0,0.0,0.0,
1.8575,2.4529120777515097,2.4529120777515097,2.571503287478358,0.0,0.0,0.0,2.4924424809937924,0.0,0.0,0.0,0.0,0.0,0.0,0.0,0.0,0.0,0.0,0.0,0.0,0.0,0.0,
1.8738,2.4534649803860615,2.4534649803860615,2.572136407319677,0.0,0.0,0.0,2.493022122697267,0.0,0.0,0.0,0.0,0.0,0.0,0.0,0.0,0.0,0.0,0.0,0.0,0.0,0.0,
1.8901,2.4540233318412983,2.4540233318412983,2.5727757710090615,0.0,0.0,0.0,2.493607478230553,0.0,0.0,0.0,0.0,0.0,0.0,0.0,0.0,0.0,0.0,0.0,0.0,0.0,0.0,
1.9064,2.4545871495946923,2.4545871495946923,2.5734213986216425,0.0,0.0,0.0,2.4941985659370087,0.0,0.0,0.0,0.0,0.0,0.0,0.0,0.0,0.0,0.0,0.0,0.0,0.0,0.0,
1.9227,2.4551564513380137,2.4551564513380137,2.5740733104755558,0.0,0.0,0.0,2.494795404383861,0.0,0.0,0.0,0.0,0.0,0.0,0.0,0.0,0.0,0.0,0.0,0.0,0.0,0.0,
1.939,2.455731254979213,2.455731254979213,2.574731527133981,0.0,0.0,0.0,2.4953980123641357,0.0,0.0,0.0,0.0,0.0,0.0,0.0,0.0,0.0,0.0,0.0,0.0,0.0,0.0,
1.9553,2.456311578644411,2.456311578644411,2.575396069407286,0.0,0.0,0.0,2.496006408898703,0.0,0.0,0.0,0.0,0.0,0.0,0.0,0.0,0.0,0.0,0.0,0.0,0.0,0.0,
1.9716,2.4568974406799273,2.4568974406799273,2.5760669583551943,0.0,0.0,0.0,2.4966206132383495,0.0,0.0,0.0,0.0,0.0,0.0,0.0,0.0,0.0,0.0,0.0,0.0,0.0,0.0,
1.9878,2.4574852143377095,2.4574852143377095,2.5767400408810133,0.0,0.0,0.0,2.4972368231854776,0.0,0.0,0.0,0.0,0.0,0.0,0.0,0.0,0.0,0.0,0.0,0.0,0.0,0.0,
2.0041,2.458082174778773,2.458082174778773,2.577423648099694,0.0,0.0,0.0,2.4978626658857466,0.0,0.0,0.0,0.0,0.0,0.0,0.0,0.0,0.0,0.0,0.0,0.0,0.0,0.0,
2.0204,2.4586847298529726,2.4586847298529726,2.578113666555677,0.0,0.0,0.0,2.4984943754205404,0.0,0.0,0.0,0.0,0.0,0.0,0.0,0.0,0.0,0.0,0.0,0.0,0.0,0.0,
2.0367,2.4592928988064156,2.4592928988064156,2.578810118326789,0.0,0.0,0.0,2.4991319719798732,0.0,0.0,0.0,0.0,0.0,0.0,0.0,0.0,0.0,0.0,0.0,0.0,0.0,0.0,
2.053,2.459906701115803,2.459906701115803,2.579513025751488,0.0,0.0,0.0,2.499775475994365,0.0,0.0,0.0,0.0,0.0,0.0,0.0,0.0,0.0,0.0,0.0,0.0,0.0,0.0,
2.0693,2.4605261564906424,2.4605261564906424,2.580222411431347,0.0,0.0,0.0,2.500424908137544,0.0,0.0,0.0,0.0,0.0,0.0,0.0,0.0,0.0,0.0,0.0,0.0,0.0,0.0,
2.0856,2.4611512848754638,2.4611512848754638,2.5809382982333022,0.0,0.0,0.0,2.5010802893280766,0.0,0.0,0.0,0.0,0.0,0.0,0.0,0.0,0.0,0.0,0.0,0.0,0.0,0.0,
2.1019,2.4617821064521115,2.4617821064521115,2.581660709292269,0.0,0.0,0.0,2.5017416407321638,0.0,0.0,0.0,0.0,0.0,0.0,0.0,0.0,0.0,0.0,0.0,0.0,0.0,0.0,
2.1182,2.462418641642024,2.462418641642024,2.5823896680134903,0.0,0.0,0.0,2.502408983765846,0.0,0.0,0.0,0.0,0.0,0.0,0.0,0.0,0.0,0.0,0.0,0.0,0.0,0.0,
