energies(eV),real_xx,real_yy,real_zz,real_xy,real_yz,real_xz,real_ave,imag_xx,imag_yy,imag_zz,imag_xy,imag_yz,imag_xz,imag_ave,absorption_xx,absorption_yy,absorption_zz,absorption_xy,absorption_yz,absorption_xz,absorption_ave,band_gap
0.0,3.1110326023988097,3.2353707768441673,3.100343190748017,0.0,0.0,0.025317266312918824,3.148915523330331,0.0,0.0,0.0,0.0,0.0,0.0,0.0,0.0,0.0,0.0,0.0,0.0,0.0,0.0,6.366099999999999
0.0163,3.111037642295057,3.235376201161864,3.10034808333999,0.0,0.0,0.025317414099229784,3.148920642265637,0.0,0.0,0.0,0.0,0.0,0.0,0.0,0.0,0.0,0.0,0.0,0.0,0.0,0.0,
0.0326,3.111052762179471,3.2353924743253937,3.1003627613008007,0.0,0.0,0.02531785746759511,3.1489359992685553,0.0,0.0,0.0,0.0,0.0,0.0,0.0,0.0,0.0,0.0,0.0,0.0,0.0,0.0,
0.0489,3.1110779626391154,3.2354195969661106,3.10038722518517,0.0,0.0,0.0253185964463141,3.1489615949301317,0.0,0.0,0.0,0.0,0.0,0.0,0.0,0.0,0.0,0.0,0.0,0.0,0.0,0.0,
0.0653,3.111113492223952,3.235457836591439,3.1004217162525785,0.0,0.0,0.02531963834263425,3.1489976816893233,0.0,0.0,0.0,0.0,0.0,0.0,0.0,0.0,0.0,0.0,0.0,0.0,0.0,0.0,
0.0816,3.1111589190246427,3.235506728346741,3.1004658151826052,0.0,0.0,0.025320970516947258,3.1490438208513294,0.0,0.0,0.0,0.0,0.0,0.0,0.0,0.0,0.0,0.0,0.0,0.0,0.0,0.0,
0.0979,3.1112144305229403,3.2355664740126073,3.100519703931453,0.0,0.0,0.025322598500347692,3.1491002028223334,0.0,0.0,0.0,0.0,0.0,0.0,0.0,0.0,0.0,0.0,0.0,0.0,0.0,0.0,
0.1142,3.111280028874959,3.235637075907777,3.1005833845364172,0.0,0.0,0.025324522396788476,3.1491668297730513,0.0,0.0,0.0,0.0,0.0,0.0,0.0,0.0,0.0,0.0,0.0,0.0,0.0,0.0,
0.1305,3.111355716628953,3.235718536772716,3.1006568594053427,0.0,0.0,0.02532674232913862,3.149243704269004,0.0,0.0,0.0,0.0,0.0,0.0,0.0,0.0,0.0,0.0,0.0,0.0,0.0,0.0,
0.1468,3.111441496725568,3.2358108597699506,3.1007401313168215,0.0,0.0,0.025329258439201953,3.1493308292707796,0.0,0.0,0.0,0.0,0.0,0.0,0.0,0.0,0.0,0.0,0.0,0.0,0.0,0.0,
0.1631,3.1115373724982787,3.23591404848434,3.1008332034205512,0.0,0.0,0.025332070887738357,3.14942820813439,0.0,0.0,0.0,0.0,0.0,0.0,0.0,0.0,0.0,0.0,0.0,0.0,0.0,0.0,
0.1795,3.1116440290062366,3.236028840224793,3.100936740642751,0.0,0.0,0.025335199843449844,3.1495365366245935,0.0,0.0,0.0,0.0,0.0,0.0,0.0,0.0,0.0,0.0,0.0,0.0,0.0,0.0,
0.1958,3.1117601697027535,3.23615383954694,3.1010494842484086,0.0,0.0,0.025338607348163084,3.149654497832701,0.0,0.0,0.0,0.0,0.0,0.0,0.0,0.0,0.0,0.0,0.0,0.0,0.0,0.0,
0.2121,3.1118864184651547,3.236289717910519,3.1011720397529485,0.0,0.0,0.025342311789017122,3.1497827253762076,0.0,0.0,0.0,0.0,0.0,0.0,0.0,0.0,0.0,0.0,0.0,0.0,0.0,0.0,
0.2284,3.112022780204498,3.236436480597019,3.1013044117965887,0.0,0.0,0.025346313402983822,3.149921224199369,0.0,0.0,0.0,0.0,0.0,0.0,0.0,0.0,0.0,0.0,0.0,0.0,0.0,0.0,
0.2447,3.1121692602269992,3.236594133312798,3.1014466053927494,0.0,0.0,0.025350612446141157,3.1500699996441823,0.0,0.0,0.0,0.0,0.0,0.0,0.0,0.0,0.0,0.0,0.0,0.0,0.0,0.0,
0.261,3.11232586423445,3.23676268218963,3.1015986259286175,0.0,0.0,0.025355209193710867,3.150229057450899,0.0,0.0,0.0,0.0,0.0,0.0,0.0,0.0,0.0,0.0,0.0,0.0,0.0,0.0,
0.2773,3.112492598325041,3.2369421337855395,3.101760479165746,0.0,0.0,0.025360103940101523,3.1503984037587753,0.0,0.0,0.0,0.0,0.0,0.0,0.0,0.0,0.0,0.0,0.0,0.0,0.0,0.0,
0.2937,3.112670585388591,3.2371336966318363,3.101933254945166,0.0,0.0,0.025365329779568162,3.150579178988531,0.0,0.0,0.0,0.0,0.0,0.0,0.0,0.0,0.0,0.0,0.0,0.0,0.0,0.0,
0.31,3.1128576617805357,3.237335042048105,3.1021148527918574,0.0,0.0,0.025370823317041113,3.1507691855401663,0.0,0.0,0.0,0.0,0.0,0.0,0.0,0.0,0.0,0.0,0.0,0.0,0.0,0.0,
0.3263,3.1130548889809155,3.237547312471365,3.102306302920509,0.0,0.0,0.02537661585435424,3.1509695014575967,0.0,0.0,0.0,0.0,0.0,0.0,0.0,0.0,0.0,0.0,0.0,0.0,0.0,0.0,
0.3426,3.1132622746828793,3.237770516174699,3.1025076125991324,0.0,0.0,0.0253827077632523,3.15118013448557,0.0,0.0,0.0,0.0,0.0,0.0,0.0,0.0,0.0,0.0,0.0,0.0,0.0,0.0,
0.3589,3.113479826979715,3.2380046618614604,3.102718789473606,0.0,0.0,0.025389099434917496,3.1514010927715934,0.0,0.0,0.0,0.0,0.0,0.0,0.0,0.0,0.0,0.0,0.0,0.0,0.0,0.0,
0.3752,3.1137075543658606,3.238249758666334,3.102939841568638,0.0,0.0,0.025395791280028748,3.1516323848669443,0.0,0.0,0.0,0.0,0.0,0.0,0.0,0.0,0.0,0.0,0.0,0.0,0.0,0.0,
0.3915,3.113945465737767,3.238505816156311,3.1031707772885517,0.0,0.0,0.02540278372882459,3.1518740197275434,0.0,0.0,0.0,0.0,0.0,0.0,0.0,0.0,0.0,0.0,0.0,0.0,0.0,0.0,
0.4079,3.114195123988812,3.2387745164215307,3.1034131134411256,0.0,0.0,0.025410122906682986,3.152127584617156,0.0,0.0,0.0,0.0,0.0,0.0,0.0,0.0,0.0,0.0,0.0,0.0,0.0,0.0,
0.4242,3.114453494260766,3.239052593119133,3.103663903921953,0.0,0.0,0.025417719783454733,3.152389997100617,0.0,0.0,0.0,0.0,0.0,0.0,0.0,0.0,0.0,0.0,0.0,0.0,0.0,0.0,
0.4405,3.1147220776937483,3.2393416618755464,3.103924605587712,0.0,0.0,0.025425618675712868,3.1526627817190023,0.0,0.0,0.0,0.0,0.0,0.0,0.0,0.0,0.0,0.0,0.0,0.0,0.0,0.0,
0.4568,3.1150008848054744,3.2396417340008195,3.10419522837331,0.0,0.0,0.025433820092737335,3.152945949059868,0.0,0.0,0.0,0.0,0.0,0.0,0.0,0.0,0.0,0.0,0.0,0.0,0.0,0.0,
0.4731,3.1152899265211684,3.239952821243205,3.1044757825983584,0.0,0.0,0.025442324563725607,3.1532395101209105,0.0,0.0,0.0,0.0,0.0,0.0,0.0,0.0,0.0,0.0,0.0,0.0,0.0,0.0,
0.4894,3.1155892141748387,3.240274935790427,3.1047662789682646,0.0,0.0,0.02545113263787129,3.1535434763111767,0.0,0.0,0.0,0.0,0.0,0.0,0.0,0.0,0.0,0.0,0.0,0.0,0.0,0.0,
0.5057,3.11589875951058,3.240608090271057,3.105066728575542,0.0,0.0,0.025460244884450027,3.1538578594523927,0.0,0.0,0.0,0.0,0.0,0.0,0.0,0.0,0.0,0.0,0.0,0.0,0.0,0.0,
0.5221,3.1162205684617583,3.240954443598916,3.1053790780616484,0.0,0.0,0.02546972060779874,3.154184696707441,0.0,0.0,0.0,0.0,0.0,0.0,0.0,0.0,0.0,0.0,0.0,0.0,0.0,0.0,
0.5384,3.1165507291628214,3.2413097855380744,3.105699530218715,0.0,0.0,0.02547944486320065,3.1545200149732033,0.0,0.0,0.0,0.0,0.0,0.0,0.0,0.0,0.0,0.0,0.0,0.0,0.0,0.0,
0.5547,3.116891185333156,3.241676208043058,3.10602997130149,0.0,0.0,0.02548947512416181,3.1548657882259015,0.0,0.0,0.0,0.0,0.0,0.0,0.0,0.0,0.0,0.0,0.0,0.0,0.0,0.0,
0.571,3.1172419503735243,3.2420537255233493,3.106370413965621,0.0,0.0,0.02549981204130967,3.155222029954165,0.0,0.0,0.0,0.0,0.0,0.0,0.0,0.0,0.0,0.0,0.0,0.0,0.0,0.0,
0.5873,3.1176030381019153,3.242442352836962,3.106720871260346,0.0,0.0,0.025510456285820295,3.1555887540664074,0.0,0.0,0.0,0.0,0.0,0.0,0.0,0.0,0.0,0.0,0.0,0.0,0.0,0.0,
0.6036,3.1179744627551083,3.2428421052921093,3.1070813566299673,0.0,0.0,0.025521408549521916,3.155965974892395,0.0,0.0,0.0,0.0,0.0,0.0,0.0,0.0,0.0,0.0,0.0,0.0,0.0,0.0,
0.6199,3.118356238990352,3.2432529986489054,3.1074518839153353,0.0,0.0,0.025532669545000903,3.156353707184864,0.0,0.0,0.0,0.0,0.0,0.0,0.0,0.0,0.0,0.0,0.0,0.0,0.0,0.0,
0.6363,3.1187508196981044,3.2436776728563492,3.1078348332894676,0.0,0.0,0.025544311946784488,3.156754441947974,0.0,0.0,0.0,0.0,0.0,0.0,0.0,0.0,0.0,0.0,0.0,0.0,0.0,0.0,
0.6526,3.1191534085023926,3.244110965716804,3.1082255493528543,0.0,0.0,0.02555619453272688,3.1571633078573504,0.0,0.0,0.0,0.0,0.0,0.0,0.0,0.0,0.0,0.0,0.0,0.0,0.0,0.0,
0.6689,3.119566395499207,3.2445554495955573,3.1086263513430348,0.0,0.0,0.025568388118698215,3.157582732145933,0.0,0.0,0.0,0.0,0.0,0.0,0.0,0.0,0.0,0.0,0.0,0.0,0.0,0.0,
0.6852,3.11998979704749,3.245011142081739,3.1090372547054375,0.0,0.0,0.025580893501583834,3.1580127312782227,0.0,0.0,0.0,0.0,0.0,0.0,0.0,0.0,0.0,0.0,0.0,0.0,0.0,0.0,
0.7015,3.1204236299355625,3.2454780612259384,3.1094582752902573,0.0,0.0,0.02559371149961244,3.1584533221505864,0.0,0.0,0.0,0.0,0.0,0.0,0.0,0.0,0.0,0.0,0.0,0.0,0.0,0.0,
0.7178,3.1208679113830256,3.245956225542227,3.1098894293542485,0.0,0.0,0.02560684295248228,3.158904522093167,0.0,0.0,0.0,0.0,0.0,0.0,0.0,0.0,0.0,0.0,0.0,0.0,0.0,0.0,
0.7342,3.1213254812447593,3.2464486914434763,3.110333472311703,0.0,0.0,0.02562037218276072,3.15936921499998,0.0,0.0,0.0,0.0,0.0,0.0,0.0,0.0,0.0,0.0,0.0,0.0,0.0,0.0,
0.7505,3.121790777582652,3.2469494727965023,3.1107850061686113,0.0,0.0,0.025634135087457793,3.159841752182589,0.0,0.0,0.0,0.0,0.0,0.0,0.0,0.0,0.0,0.0,0.0,0.0,0.0,0.0,
0.7668,3.1222665768617763,3.2474615577901704,3.111246724841141,0.0,0.0,0.025648214101861435,3.1603249531643627,0.0,0.0,0.0,0.0,0.0,0.0,0.0,0.0,0.0,0.0,0.0,0.0,0.0,0.0,
0.7831,3.1227528980500883,3.24798496681734,3.1117186462334683,0.0,0.0,0.02566261015303221,3.160818837033632,0.0,0.0,0.0,0.0,0.0,0.0,0.0,0.0,0.0,0.0,0.0,0.0,0.0,0.0,
0.7994,3.123249760557367,3.2485197207456245,3.1122007886659877,0.0,0.0,0.025677324190192377,3.1613234233229925,0.0,0.0,0.0,0.0,0.0,0.0,0.0,0.0,0.0,0.0,0.0,0.0,0.0,0.0,
0.8157,3.1237571842374496,3.249065840919741,3.112693170877289,0.0,0.0,0.02569235718487518,3.161838732011493,0.0,0.0,0.0,0.0,0.0,0.0,0.0,0.0,0.0,0.0,0.0,0.0,0.0,0.0,
0.832,3.1242751893905885,3.249623349164032,3.1131958120264276,0.0,0.0,0.025707710131077952,3.162364783527016,0.0,0.0,0.0,0.0,0.0,0.0,0.0,0.0,0.0,0.0,0.0,0.0,0.0,0.0,
0.8484,3.124807072520997,3.2501957933459624,3.11371191020514,0.0,0.0,0.025723481197141317,3.1629049253573664,0.0,0.0,0.0,0.0,0.0,0.0,0.0,0.0,0.0,0.0,0.0,0.0,0.0,0.0,
0.8647,3.1253463685591663,3.250776215348308,3.114235191643299,0.0,0.0,0.025739479097782167,3.1634525918502576,0.0,0.0,0.0,0.0,0.0,0.0,0.0,0.0,0.0,0.0,0.0,0.0,0.0,0.0,
0.881,3.1258963098077364,3.2513680939415264,3.1147687921674936,0.0,0.0,0.025755800074896047,3.1640110653055853,0.0,0.0,0.0,0.0,0.0,0.0,0.0,0.0,0.0,0.0,0.0,0.0,0.0,0.0,
0.8973,3.126456918379641,3.251971452897387,3.1153127326432677,0.0,0.0,0.02577244521408684,3.164580367973432,0.0,0.0,0.0,0.0,0.0,0.0,0.0,0.0,0.0,0.0,0.0,0.0,0.0,0.0,
0.9136,3.1270282168466847,3.25258631648056,3.115867034368083,0.0,0.0,0.02578941562424711,3.1651605225651096,0.0,0.0,0.0,0.0,0.0,0.0,0.0,0.0,0.0,0.0,0.0,0.0,0.0,0.0,
0.9299,3.1276102282421867,3.2532127094515024,3.116431719073617,0.0,0.0,0.025806712437735618,3.165751552255769,0.0,0.0,0.0,0.0,0.0,0.0,0.0,0.0,0.0,0.0,0.0,0.0,0.0,0.0,
0.9462,3.128202976063757,3.2538506570693215,3.1170068089284126,0.0,0.0,0.025824336810557503,3.166353480687164,0.0,0.0,0.0,0.0,0.0,0.0,0.0,0.0,0.0,0.0,0.0,0.0,0.0,0.0,
0.9626,3.128810220040411,3.254504205723924,3.117595950903454,0.0,0.0,0.02584240108140277,3.1669701255559293,0.0,0.0,0.0,0.0,0.0,0.0,0.0,0.0,0.0,0.0,0.0,0.0,0.0,0.0,
0.9789,3.1294245793188833,3.2551654117111983,3.1181919835097305,0.0,0.0,0.025860686164381034,3.1675939915132703,0.0,0.0,0.0,0.0,0.0,0.0,0.0,0.0,0.0,0.0,0.0,0.0,0.0,0.0,
0.9952,3.1300497484841996,3.2558382513106547,3.1187984905629396,0.0,0.0,0.025879302426072986,3.168228830119265,0.0,0.0,0.0,0.0,0.0,0.0,0.0,0.0,0.0,0.0,0.0,0.0,0.0,0.0,
1.0115,3.130685752922439,3.2565227518096336,3.119415496007689,0.0,0.0,0.02589825111911634,3.168874666913254,0.0,0.0,0.0,0.0,0.0,0.0,0.0,0.0,0.0,0.0,0.0,0.0,0.0,0.0,
1.0278,3.13133261849851,3.2572189410097216,3.120043024238741,0.0,0.0,0.025917533520766697,3.1695315279156575,0.0,0.0,0.0,0.0,0.0,0.0,0.0,0.0,0.0,0.0,0.0,0.0,0.0,0.0,
1.0441,3.131990371559265,3.257926847230043,3.1206811001039436,0.0,0.0,0.0259371509331042,3.1701994396310837,0.0,0.0,0.0,0.0,0.0,0.0,0.0,0.0,0.0,0.0,0.0,0.0,0.0,0.0,
1.0604,3.132659038936695,3.258646499310626,3.1213297489069807,0.0,0.0,0.025957104683244584,3.170878429051434,0.0,0.0,0.0,0.0,0.0,0.0,0.0,0.0,0.0,0.0,0.0,0.0,0.0,0.0,
1.0768,3.133342851157937,3.2593824503032844,3.1219930736384125,0.0,0.0,0.02597752165596495,3.171572791699878,0.0,0.0,0.0,0.0,0.0,0.0,0.0,0.0,0.0,0.0,0.0,0.0,0.0,0.0,
1.0931,3.134033497005439,3.2601257552428575,3.122663011332453,0.0,0.0,0.02599815424876701,3.17227408786025,0.0,0.0,0.0,0.0,0.0,0.0,0.0,0.0,0.0,0.0,0.0,0.0,0.0,0.0,
1.1094,3.1347351407841453,3.2608808959114417,3.1233436008063045,0.0,0.0,0.02601912732181333,3.172986545833964,0.0,0.0,0.0,0.0,0.0,0.0,0.0,0.0,0.0,0.0,0.0,0.0,0.0,0.0,
1.1257,3.135447811302612,3.2616479032712555,3.1240348692205586,0.0,0.0,0.026040442304734106,3.173710194598142,0.0,0.0,0.0,0.0,0.0,0.0,0.0,0.0,0.0,0.0,0.0,0.0,0.0,0.0,
1.142,3.136171537871379,3.2624268088234,3.1247368442072427,0.0,0.0,0.026062100653325794,3.1744450636340074,0.0,0.0,0.0,0.0,0.0,0.0,0.0,0.0,0.0,0.0,0.0,0.0,0.0,0.0,
1.1583,3.1369063503065893,3.2632176446117334,3.1254495538730596,0.0,0.0,0.026084103849792373,3.1751911829304604,0.0,0.0,0.0,0.0,0.0,0.0,0.0,0.0,0.0,0.0,0.0,0.0,0.0,0.0,
1.1746,3.1376522789335763,3.2640204432266926,3.1261730268027477,0.0,0.0,0.026106453402989505,3.1759485829876724,0.0,0.0,0.0,0.0,0.0,0.0,0.0,0.0,0.0,0.0,0.0,0.0,0.0,0.0,
1.191,3.1384140336941417,3.264840273641571,3.12691183012643,0.0,0.0,0.0261292911737227,3.176722045820714,0.0,0.0,0.0,0.0,0.0,0.0,0.0,0.0,0.0,0.0,0.0,0.0,0.0,0.0,
1.2073,3.13918235641322,3.265667171794306,3.1276569837513315,0.0,0.0,0.026152340223595014,3.1775021706529523,0.0,0.0,0.0,0.0,0.0,0.0,0.0,0.0,0.0,0.0,0.0,0.0,0.0,0.0,
1.2236,3.139961889590267,3.2665061340766925,3.128412989482665,0.0,0.0,0.02617574032905392,3.178293671049875,0.0,0.0,0.0,0.0,0.0,0.0,0.0,0.0,0.0,0.0,0.0,0.0,0.0,0.0,
1.2399,3.1407526656286895,3.267357195309545,3.1291798778550324,0.0,0.0,0.026199493108293812,3.1790965795977555,0.0,0.0,0.0,0.0,0.0,0.0,0.0,0.0,0.0,0.0,0.0,0.0,0.0,0.0,
1.2562,3.141554717460545,3.268220390880993,3.1299576798988418,0.0,0.0,0.026223600207468962,3.17991092941346,0.0,0.0,0.0,0.0,0.0,0.0,0.0,0.0,0.0,0.0,0.0,0.0,0.0,0.0,
1.2725,3.142368078550586,3.2690957567507675,3.1307464271440058,0.0,0.0,0.026248063300970802,3.180736754148453,0.0,0.0,0.0,0.0,0.0,0.0,0.0,0.0,0.0,0.0,0.0,0.0,0.0,0.0,
1.2888,3.143192782900445,3.2699833294546674,3.13154615162379,0.0,0.0,0.02627288409171054,3.181574087992967,0.0,0.0,0.0,0.0,0.0,0.0,0.0,0.0,0.0,0.0,0.0,0.0,0.0,0.0,
1.3052,3.144034029578712,3.2708887043227937,3.132361893755939,0.0,0.0,0.02629821990421091,3.182428209219148,0.0,0.0,0.0,0.0,0.0,0.0,0.0,0.0,0.0,0.0,0.0,0.0,0.0,0.0,
1.3215,3.1448815947490836,3.2718008780946723,3.133183738688141,0.0,0.0,0.026323763535075827,3.1832887371772993,0.0,0.0,0.0,0.0,0.0,0.0,0.0,0.0,0.0,0.0,0.0,0.0,0.0,0.0,
1.3378,3.145740608668716,3.2727253720471934,3.134016660221667,0.0,0.0,0.026349670157025978,3.1841608803125254,0.0,0.0,0.0,0.0,0.0,0.0,0.0,0.0,0.0,0.0,0.0,0.0,0.0,0.0,
1.3541,3.146611107533542,3.273662225070368,3.134860692446046,0.0,0.0,0.02637594159018321,3.185044675016652,0.0,0.0,0.0,0.0,0.0,0.0,0.0,0.0,0.0,0.0,0.0,0.0,0.0,0.0,
1.3704,3.147493128098449,3.2746114766538863,3.135715869974386,0.0,0.0,0.026402579684693863,3.1859401582422406,0.0,0.0,0.0,0.0,0.0,0.0,0.0,0.0,0.0,0.0,0.0,0.0,0.0,0.0,
1.3867,3.1483867076820578,3.2755731668920482,3.1365822279476467,0.0,0.0,0.026429586321048366,3.186847367507251,0.0,0.0,0.0,0.0,0.0,0.0,0.0,0.0,0.0,0.0,0.0,0.0,0.0,0.0,
1.403,3.1492918841713933,3.2765473364888518,3.1374598020390256,0.0,0.0,0.026456963410405092,3.1877663408997567,0.0,0.0,0.0,0.0,0.0,0.0,0.0,0.0,0.0,0.0,0.0,0.0,0.0,0.0,
1.4194,3.1502143566299083,3.2775401188065905,3.1383541161848054,0.0,0.0,0.02648488429054063,3.1887028638737682,0.0,0.0,0.0,0.0,0.0,0.0,0.0,0.0,0.0,0.0,0.0,0.0,0.0,0.0,
1.4357,3.1511429146335943,3.278539448899383,3.1392543010556766,0.0,0.0,0.026513010446613177,3.189645554862885,0.0,0.0,0.0,0.0,0.0,0.0,0.0,0.0,0.0,0.0,0.0,0.0,0.0,0.0,
1.452,3.152083186908431,3.279551384436154,3.140165812532613,0.0,0.0,0.026541512988923755,3.190600127959066,0.0,0.0,0.0,0.0,0.0,0.0,0.0,0.0,0.0,0.0,0.0,0.0,0.0,0.0,
1.4683,3.1530352136681192,3.280575968616121,3.1410886884661164,0.0,0.0,0.02657039395488378,3.191566623583452,0.0,0.0,0.0,0.0,0.0,0.0,0.0,0.0,0.0,0.0,0.0,0.0,0.0,0.0,
1.4846,3.153999035719979,3.2816132452749986,3.142022967261878,0.0,0.0,0.026599655414298932,3.1925450827522854,0.0,0.0,0.0,0.0,0.0,0.0,0.0,0.0,0.0,0.0,0.0,0.0,0.0,0.0,
1.5009,3.1549746944701753,3.282663258890637,3.1429686878856256,0.0,0.0,0.026629299469734677,3.1935355470821456,0.0,0.0,0.0,0.0,0.0,0.0,0.0,0.0,0.0,0.0,0.0,0.0,0.0,0.0,
1.5172,3.155962231929202,3.283726054588763,3.143925889868067,0.0,0.0,0.026659328256888347,3.194538058795344,0.0,0.0,0.0,0.0,0.0,0.0,0.0,0.0,0.0,0.0,0.0,0.0,0.0,0.0,
1.5336,3.1569678592480854,3.284808316752564,3.1449005920408717,0.0,0.0,0.026689931742905515,3.195558922680507,0.0,0.0,0.0,0.0,0.0,0.0,0.0,0.0,0.0,0.0,0.0,0.0,0.0,0.0,
1.5499,3.157979356137908,3.285896893741904,3.145880948677987,0.0,0.0,0.02672073892903165,3.1965857328525993,0.0,0.0,0.0,0.0,0.0,0.0,0.0,0.0,0.0,0.0,0.0,0.0,0.0,0.0,
1.5662,3.1590028617202317,3.286998392428353,3.146872908961319,0.0,0.0,0.026751937470425504,3.1976247210366346,0.0,0.0,0.0,0.0,0.0,0.0,0.0,0.0,0.0,0.0,0.0,0.0,0.0,0.0,
1.5825,3.1600384204825174,3.2881128605929018,3.147876514736183,0.0,0.0,0.02678352963939621,3.198675931937201,0.0,0.0,0.0,0.0,0.0,0.0,0.0,0.0,0.0,0.0,0.0,0.0,0.0,0.0,
1.5988,3.1610860775450864,3.2892403466948315,3.148891808438918,0.0,0.0,0.02681551774336002,3.1997394108929456,0.0,0.0,0.0,0.0,0.0,0.0,0.0,0.0,0.0,0.0,0.0,0.0,0.0,0.0,
1.6151,3.162145878667085,3.2903808998780035,3.149918833102319,0.0,0.0,0.02684790412525843,3.200815203882469,0.0,0.0,0.0,0.0,0.0,0.0,0.0,0.0,0.0,0.0,0.0,0.0,0.0,0.0,
1.6314,3.163217870252598,3.2915345699775442,3.1509576323613375,0.0,0.0,0.02688069116398387,3.2019033575304934,0.0,0.0,0.0,0.0,0.0,0.0,0.0,0.0,0.0,0.0,0.0,0.0,0.0,0.0,
1.6478,3.1643087889360326,3.2927086067829996,3.1520147325371806,0.0,0.0,0.026914086144169527,3.203010709418738,0.0,0.0,0.0,0.0,0.0,0.0,0.0,0.0,0.0,0.0,0.0,0.0,0.0,0.0,
1.6641,3.1654053787900494,3.293888744274189,3.1530772872520405,0.0,0.0,0.02694768427472938,3.2041238034387596,0.0,0.0,0.0,0.0,0.0,0.0,0.0,0.0,0.0,0.0,0.0,0.0,0.0,0.0,
1.6804,3.166514302551253,3.2950821527216854,3.15415175141789,0.0,0.0,0.026981690434267444,3.205249402230276,0.0,0.0,0.0,0.0,0.0,0.0,0.0,0.0,0.0,0.0,0.0,0.0,0.0,0.0,
1.6967,3.1676356092710303,3.296288884797083,3.155238171139564,0.0,0.0,0.027016107150135825,3.2063875550692256,0.0,0.0,0.0,0.0,0.0,0.0,0.0,0.0,0.0,0.0,0.0,0.0,0.0,0.0,
1.713,3.168769348678033,3.297508993897498,3.1563365931534757,0.0,0.0,0.027050936987895572,3.207538311909669,0.0,0.0,0.0,0.0,0.0,0.0,0.0,0.0,0.0,0.0,0.0,0.0,0.0,0.0,
1.7293,3.169915571184973,3.2987425341528165,3.157447064833711,0.0,0.0,0.02708618255179441,3.2087017233905004,0.0,0.0,0.0,0.0,0.0,0.0,0.0,0.0,0.0,0.0,0.0,0.0,0.0,0.0,
1.7456,3.171074327895526,3.2999895604330565,3.158569634198375,0.0,0.0,0.02712184648525217,3.209877840842319,0.0,0.0,0.0,0.0,0.0,0.0,0.0,0.0,0.0,0.0,0.0,0.0,0.0,0.0,
1.762,3.1722528957152094,3.301257903810939,3.1597113489509323,0.0,0.0,0.0271581541567365,3.2110740494923604,0.0,0.0,0.0,0.0,0.0,0.0,0.0,0.0,0.0,0.0,0.0,0.0,0.0,0.0,
1.7783,3.17343695464359,3.3025321533480465,3.1608583353207704,0.0,0.0,0.027194665527093636,3.2122758144374686,0.0,0.0,0.0,0.0,0.0,0.0,0.0,0.0,0.0,0.0,0.0,0.0,0.0,0.0,
1.7946,3.174633705632145,3.3038200583893196,3.162017567666938,0.0,0.0,0.02723160345439765,3.2134904438961343,0.0,0.0,0.0,0.0,0.0,0.0,0.0,0.0,0.0,0.0,0.0,0.0,0.0,0.0,
1.8109,3.1758432026245553,3.3051216768462073,3.1631890966530025,0.0,0.0,0.027268970744069622,3.214717992041255,0.0,0.0,0.0,0.0,0.0,0.0,0.0,0.0,0.0,0.0,0.0,0.0,0.0,0.0,
1.8272,3.177065500291961,3.3064370674091803,3.1643729736198214,0.0,0.0,0.027306770243284057,3.215958513773654,0.0,0.0,0.0,0.0,0.0,0.0,0.0,0.0,0.0,0.0,0.0,0.0,0.0,0.0,
1.8435,3.1783006540407146,3.307766289555851,3.1655692505925077,0.0,0.0,0.027345004841513816,3.2172120647296913,0.0,0.0,0.0,0.0,0.0,0.0,0.0,0.0,0.0,0.0,0.0,0.0,0.0,0.0,
1.8598,3.17954872002014,3.309109403559278,3.1667779802875398,0.0,0.0,0.027383677471086196,3.2184787012889857,0.0,0.0,0.0,0.0,0.0,0.0,0.0,0.0,0.0,0.0,0.0,0.0,0.0,0.0,
1.8762,3.1808175316875826,3.3104748392507775,3.1680067470734556,0.0,0.0,0.02742303243600263,3.2197663726706054,0.0,0.0,0.0,0.0,0.0,0.0,0.0,0.0,0.0,0.0,0.0,0.0,0.0,0.0,
1.8925,3.182091673686884,3.3118460071844478,3.1692406203898105,0.0,0.0,0.027462592833008222,3.221059433753714,0.0,0.0,0.0,0.0,0.0,0.0,0.0,0.0,0.0,0.0,0.0,0.0,0.0,0.0,
1.9088,3.183378901264106,3.3132312530394947,3.1704871091378837,0.0,0.0,0.027502600340127047,3.2223657544804944,0.0,0.0,0.0,0.0,0.0,0.0,0.0,0.0,0.0,0.0,0.0,0.0,0.0,0.0,
