energies(eV),real_xx,real_yy,real_zz,real_xy,real_yz,real_xz,real_ave,imag_xx,imag_yy,imag_zz,imag_xy,imag_yz,imag_xz,imag_ave,absorption_xx,absorption_yy,absorption_zz,absorption_xy,absorption_yz,absorption_xz,absorption_ave,band_gap
0.0,3.383306715020174,3.2410252515769886,3.275634744549888,0.0,0.0,0.0,3.299988903715684,0.0,0.0,0.0,0.0,0.0,0.0,0.0,0.0,0.0,0.0,0.0,0.0,0.0,0.0,5.514200000000001
0.0156,3.3833138230897655,3.2410318000416294,3.2756414595127916,0.0,0.0,0.0,3.2999956942147293,0.0,0.0,0.0,0.0,0.0,0.0,0.0,0.0,0.0,0.0,0.0,0.0,0.0,0.0,
0.0312,3.3833351476595865,3.2410514457636252,3.2756616047419387,0.0,0.0,0.0,3.3000160660550506,0.0,0.0,0.0,0.0,0.0,0.0,0.0,0.0,0.0,0.0,0.0,0.0,0.0,0.0,
0.0468,3.3833706898127445,3.2410841897272014,3.275695181258774,0.0,0.0,0.0,3.3000500202662395,0.0,0.0,0.0,0.0,0.0,0.0,0.0,0.0,0.0,0.0,0.0,0.0,0.0,0.0,
0.0625,3.3834208162110806,3.2411303697042997,3.2757425354440355,0.0,0.0,0.0,3.3000979071198056,0.0,0.0,0.0,0.0,0.0,0.0,0.0,0.0,0.0,0.0,0.0,0.0,0.0,0.0,
0.0781,3.383484890845534,3.241189399726438,3.275803066458562,0.0,0.0,0.0,3.3001591190101784,0.0,0.0,0.0,0.0,0.0,0.0,0.0,0.0,0.0,0.0,0.0,0.0,0.0,0.0,
0.0937,3.3835631906706967,3.241261534902911,3.2758770359346907,0.0,0.0,0.0,3.300233920502766,0.0,0.0,0.0,0.0,0.0,0.0,0.0,0.0,0.0,0.0,0.0,0.0,0.0,0.0,
0.1093,3.383655719665466,3.2413467788493033,3.2759644476246317,0.0,0.0,0.0,3.3003223153798005,0.0,0.0,0.0,0.0,0.0,0.0,0.0,0.0,0.0,0.0,0.0,0.0,0.0,0.0,
0.1249,3.3837624825327324,3.2414451358390277,3.276065305963326,0.0,0.0,0.0,3.3004243081116953,0.0,0.0,0.0,0.0,0.0,0.0,0.0,0.0,0.0,0.0,0.0,0.0,0.0,0.0,
0.1405,3.3838834847000765,3.241556610804031,3.2761796160691024,0.0,0.0,0.0,3.3005399038577363,0.0,0.0,0.0,0.0,0.0,0.0,0.0,0.0,0.0,0.0,0.0,0.0,0.0,0.0,
0.1562,3.3840196452581766,3.24168205038947,3.276308246191418,0.0,0.0,0.0,3.3006699806130215,0.0,0.0,0.0,0.0,0.0,0.0,0.0,0.0,0.0,0.0,0.0,0.0,0.0,0.0,
0.1718,3.3841692365962817,3.241819862925635,3.276449564254453,0.0,0.0,0.0,3.3008128879254564,0.0,0.0,0.0,0.0,0.0,0.0,0.0,0.0,0.0,0.0,0.0,0.0,0.0,0.0,
0.1874,3.384333087925171,3.241970812238096,3.2766043535964258,0.0,0.0,0.0,3.3009694179198976,0.0,0.0,0.0,0.0,0.0,0.0,0.0,0.0,0.0,0.0,0.0,0.0,0.0,0.0,
0.203,3.384511207585132,3.2421349059052265,3.276772622082407,0.0,0.0,0.0,3.301139578524255,0.0,0.0,0.0,0.0,0.0,0.0,0.0,0.0,0.0,0.0,0.0,0.0,0.0,0.0,
0.2186,3.3847036046462438,3.242312152168601,3.2769543782656974,0.0,0.0,0.0,3.3013233783601805,0.0,0.0,0.0,0.0,0.0,0.0,0.0,0.0,0.0,0.0,0.0,0.0,0.0,0.0,
0.2342,3.3849102889098237,3.242502559934099,3.2771496313891757,0.0,0.0,0.0,3.301520826744366,0.0,0.0,0.0,0.0,0.0,0.0,0.0,0.0,0.0,0.0,0.0,0.0,0.0,0.0,
0.2499,3.385132733604898,3.2427074862731002,3.277359773183073,0.0,0.0,0.0,3.301733331020357,0.0,0.0,0.0,0.0,0.0,0.0,0.0,0.0,0.0,0.0,0.0,0.0,0.0,0.0,
0.2655,3.3853681163719656,3.24292433095453,3.2775821373671516,0.0,0.0,0.0,3.3019581948978822,0.0,0.0,0.0,0.0,0.0,0.0,0.0,0.0,0.0,0.0,0.0,0.0,0.0,0.0,
0.2811,3.385617820227267,3.243154367927459,3.277818030446442,0.0,0.0,0.0,3.302196739533722,0.0,0.0,0.0,0.0,0.0,0.0,0.0,0.0,0.0,0.0,0.0,0.0,0.0,0.0,
0.2967,3.385881857917461,3.2433976087735656,3.278067464441352,0.0,0.0,0.0,3.302448977044126,0.0,0.0,0.0,0.0,0.0,0.0,0.0,0.0,0.0,0.0,0.0,0.0,0.0,0.0,
0.3123,3.386160242928925,3.2436540657464685,3.2783304520698207,0.0,0.0,0.0,3.302714920248405,0.0,0.0,0.0,0.0,0.0,0.0,0.0,0.0,0.0,0.0,0.0,0.0,0.0,0.0,
0.3279,3.386452989489725,3.243923751773517,3.2786070067492092,0.0,0.0,0.0,3.302994582670817,0.0,0.0,0.0,0.0,0.0,0.0,0.0,0.0,0.0,0.0,0.0,0.0,0.0,0.0,
0.3435,3.386760112571755,3.2442066804577507,3.2788971425983364,0.0,0.0,0.0,3.3032879785426146,0.0,0.0,0.0,0.0,0.0,0.0,0.0,0.0,0.0,0.0,0.0,0.0,0.0,0.0,
0.3592,3.3870837353485235,3.2445048075001406,3.279202865327994,0.0,0.0,0.0,3.3035971360588863,0.0,0.0,0.0,0.0,0.0,0.0,0.0,0.0,0.0,0.0,0.0,0.0,0.0,0.0,
0.3748,3.3874197517938436,3.2448143501467315,3.279520295994671,0.0,0.0,0.0,3.3039181326450824,0.0,0.0,0.0,0.0,0.0,0.0,0.0,0.0,0.0,0.0,0.0,0.0,0.0,0.0,
0.3904,3.3877701942752165,3.2451371804368287,3.279851354524542,0.0,0.0,0.0,3.304252909745529,0.0,0.0,0.0,0.0,0.0,0.0,0.0,0.0,0.0,0.0,0.0,0.0,0.0,0.0,
0.406,3.388135080768512,3.245473314701827,3.2801960578692224,0.0,0.0,0.0,3.3046014844465206,0.0,0.0,0.0,0.0,0.0,0.0,0.0,0.0,0.0,0.0,0.0,0.0,0.0,0.0,
0.4216,3.388514430005941,3.2458227699599007,3.2805544236935122,0.0,0.0,0.0,3.3049638745531182,0.0,0.0,0.0,0.0,0.0,0.0,0.0,0.0,0.0,0.0,0.0,0.0,0.0,0.0,
0.4372,3.388908261478845,3.246185563918677,3.2809264703781174,0.0,0.0,0.0,3.30534009859188,0.0,0.0,0.0,0.0,0.0,0.0,0.0,0.0,0.0,0.0,0.0,0.0,0.0,0.0,
0.4529,3.389319259791333,3.246564169328991,3.2813147339912723,0.0,0.0,0.0,3.3057327210371987,0.0,0.0,0.0,0.0,0.0,0.0,0.0,0.0,0.0,0.0,0.0,0.0,0.0,0.0,
0.4685,3.389742210429642,3.2469537823908032,3.281714288429018,0.0,0.0,0.0,3.306136760416488,0.0,0.0,0.0,0.0,0.0,0.0,0.0,0.0,0.0,0.0,0.0,0.0,0.0,0.0,
0.4841,3.39017970650476,3.2473567915686132,3.2821275833269827,0.0,0.0,0.0,3.3065546938001185,0.0,0.0,0.0,0.0,0.0,0.0,0.0,0.0,0.0,0.0,0.0,0.0,0.0,0.0,
0.4997,3.3906317705804168,3.247773217359674,3.282554639963151,0.0,0.0,0.0,3.3069865426344136,0.0,0.0,0.0,0.0,0.0,0.0,0.0,0.0,0.0,0.0,0.0,0.0,0.0,0.0,
0.5153,3.3910984259954997,3.2482030809650104,3.2829954803464774,0.0,0.0,0.0,3.3074323291023293,0.0,0.0,0.0,0.0,0.0,0.0,0.0,0.0,0.0,0.0,0.0,0.0,0.0,0.0,
0.5309,3.3915796968677117,3.2486464042925913,3.2834501272202767,0.0,0.0,0.0,3.30789207612686,0.0,0.0,0.0,0.0,0.0,0.0,0.0,0.0,0.0,0.0,0.0,0.0,0.0,0.0,
0.5466,3.3920788342953303,3.2491061817416926,3.2839216517852745,0.0,0.0,0.0,3.308368889274099,0.0,0.0,0.0,0.0,0.0,0.0,0.0,0.0,0.0,0.0,0.0,0.0,0.0,0.0,
0.5622,3.392589505666105,3.2495765797337914,3.284404071713683,0.0,0.0,0.0,3.3088567190378595,0.0,0.0,0.0,0.0,0.0,0.0,0.0,0.0,0.0,0.0,0.0,0.0,0.0,0.0,
0.5778,3.393114869729437,3.2500605076039686,3.2849003709666533,0.0,0.0,0.0,3.3093585827666865,0.0,0.0,0.0,0.0,0.0,0.0,0.0,0.0,0.0,0.0,0.0,0.0,0.0,0.0,
0.5934,3.3936549537613807,3.250557990126901,3.285410575265813,0.0,0.0,0.0,3.3098745063846984,0.0,0.0,0.0,0.0,0.0,0.0,0.0,0.0,0.0,0.0,0.0,0.0,0.0,0.0,
0.609,3.39420978583654,3.2510690528019843,3.285934711085858,0.0,0.0,0.0,3.310404516574794,0.0,0.0,0.0,0.0,0.0,0.0,0.0,0.0,0.0,0.0,0.0,0.0,0.0,0.0,
0.6246,3.394779394832373,3.2515937218571627,3.2864728056585353,0.0,0.0,0.0,3.3109486407826902,0.0,0.0,0.0,0.0,0.0,0.0,0.0,0.0,0.0,0.0,0.0,0.0,0.0,0.0,
0.6403,3.395367604514186,3.252135518945448,3.287028471138083,0.0,0.0,0.0,3.3115105315325724,0.0,0.0,0.0,0.0,0.0,0.0,0.0,0.0,0.0,0.0,0.0,0.0,0.0,0.0,
0.6559,3.395966952427589,3.2526875700408917,3.2875946578984436,0.0,0.0,0.0,3.3120830601223084,0.0,0.0,0.0,0.0,0.0,0.0,0.0,0.0,0.0,0.0,0.0,0.0,0.0,0.0,
0.6715,3.3965811689602026,3.2532533107971906,3.2881748898840506,0.0,0.0,0.0,3.312669789880481,0.0,0.0,0.0,0.0,0.0,0.0,0.0,0.0,0.0,0.0,0.0,0.0,0.0,0.0,
0.6871,3.397210286252415,3.2538327704026795,3.2887691974035604,0.0,0.0,0.0,3.313270751352885,0.0,0.0,0.0,0.0,0.0,0.0,0.0,0.0,0.0,0.0,0.0,0.0,0.0,0.0,
0.7027,3.3978543372712804,3.2544259787956165,3.2893776115451425,0.0,0.0,0.0,3.3138859758706793,0.0,0.0,0.0,0.0,0.0,0.0,0.0,0.0,0.0,0.0,0.0,0.0,0.0,0.0,
0.7183,3.3985133558156693,3.2550329666687343,3.290000164181387,0.0,0.0,0.0,3.314515495555264,0.0,0.0,0.0,0.0,0.0,0.0,0.0,0.0,0.0,0.0,0.0,0.0,0.0,0.0,
0.7339,3.3991873765215557,3.255653765473993,3.2906368879742374,0.0,0.0,0.0,3.3151593433232622,0.0,0.0,0.0,0.0,0.0,0.0,0.0,0.0,0.0,0.0,0.0,0.0,0.0,0.0,
0.7496,3.39988090049262,3.256292520369402,3.291292034891035,0.0,0.0,0.0,3.315821818584352,0.0,0.0,0.0,0.0,0.0,0.0,0.0,0.0,0.0,0.0,0.0,0.0,0.0,0.0,
0.7652,3.4005851295523475,3.2569411275140614,3.2919572935532995,0.0,0.0,0.0,3.3164945168732363,0.0,0.0,0.0,0.0,0.0,0.0,0.0,0.0,0.0,0.0,0.0,0.0,0.0,0.0,
0.7808,3.401304470000583,3.2576036447706835,3.2926368263737187,0.0,0.0,0.0,3.317181647048328,0.0,0.0,0.0,0.0,0.0,0.0,0.0,0.0,0.0,0.0,0.0,0.0,0.0,0.0,
0.7964,3.4020389598832605,3.258280106683339,3.2933306692297597,0.0,0.0,0.0,3.317883245265453,0.0,0.0,0.0,0.0,0.0,0.0,0.0,0.0,0.0,0.0,0.0,0.0,0.0,0.0,
0.812,3.4027886381122348,3.2589705485811424,3.2940388588153806,0.0,0.0,0.0,3.3185993485029193,0.0,0.0,0.0,0.0,0.0,0.0,0.0,0.0,0.0,0.0,0.0,0.0,0.0,0.0,
0.8276,3.403553544471427,3.259675006583786,3.2947614326468777,0.0,0.0,0.0,3.3193299945673638,0.0,0.0,0.0,0.0,0.0,0.0,0.0,0.0,0.0,0.0,0.0,0.0,0.0,0.0,
0.8433,3.404338770087213,3.2603981688584565,3.295503200011564,0.0,0.0,0.0,3.3200800463190774,0.0,0.0,0.0,0.0,0.0,0.0,0.0,0.0,0.0,0.0,0.0,0.0,0.0,0.0,
0.8589,3.4051343538579153,3.2611308610692062,3.2962547510350153,0.0,0.0,0.0,3.3208399886540456,0.0,0.0,0.0,0.0,0.0,0.0,0.0,0.0,0.0,0.0,0.0,0.0,0.0,0.0,
0.8745,3.4059452906822965,3.2618776827943194,3.2970208041072033,0.0,0.0,0.0,3.32161459252794,0.0,0.0,0.0,0.0,0.0,0.0,0.0,0.0,0.0,0.0,0.0,0.0,0.0,0.0,
0.8901,3.4067716239035013,3.262638673379229,3.2978014001006772,0.0,0.0,0.0,3.322403899127803,0.0,0.0,0.0,0.0,0.0,0.0,0.0,0.0,0.0,0.0,0.0,0.0,0.0,0.0,
0.9057,3.4076133977701404,3.2634138729898683,3.298596580741778,0.0,0.0,0.0,3.3232079505005956,0.0,0.0,0.0,0.0,0.0,0.0,0.0,0.0,0.0,0.0,0.0,0.0,0.0,0.0,
0.9213,3.408470657443521,3.2642033226190628,3.2994063886174874,0.0,0.0,0.0,3.324026789560024,0.0,0.0,0.0,0.0,0.0,0.0,0.0,0.0,0.0,0.0,0.0,0.0,0.0,0.0,
0.937,3.409349094024338,3.265012262474433,3.3002361997193153,0.0,0.0,0.0,3.3248658520726955,0.0,0.0,0.0,0.0,0.0,0.0,0.0,0.0,0.0,0.0,0.0,0.0,0.0,0.0,
0.9526,3.4102375645008753,3.265830430487044,3.3010754877742294,0.0,0.0,0.0,3.3257144942540493,0.0,0.0,0.0,0.0,0.0,0.0,0.0,0.0,0.0,0.0,0.0,0.0,0.0,0.0,
0.9682,3.411141662128523,3.2666629768061233,3.3019295363509036,0.0,0.0,0.0,3.3265780584285167,0.0,0.0,0.0,0.0,0.0,0.0,0.0,0.0,0.0,0.0,0.0,0.0,0.0,0.0,
0.9838,3.4120614358003296,3.2675099458047177,3.3027983915552253,0.0,0.0,0.0,3.327456591053424,0.0,0.0,0.0,0.0,0.0,0.0,0.0,0.0,0.0,0.0,0.0,0.0,0.0,0.0,
0.9994,3.412996935360491,3.2683713827172514,3.3036821003899473,0.0,0.0,0.0,3.32835013948923,0.0,0.0,0.0,0.0,0.0,0.0,0.0,0.0,0.0,0.0,0.0,0.0,0.0,0.0,
1.015,3.413948211612551,3.269247333646794,3.3045807107624587,0.0,0.0,0.0,3.329258752007268,0.0,0.0,0.0,0.0,0.0,0.0,0.0,0.0,0.0,0.0,0.0,0.0,0.0,0.0,
1.0306,3.414915316327789,3.270137845572653,3.3054942714926994,0.0,0.0,0.0,3.3301824777977136,0.0,0.0,0.0,0.0,0.0,0.0,0.0,0.0,0.0,0.0,0.0,0.0,0.0,0.0,
1.0463,3.4159046547886702,3.27104881564242,3.306428833128475,0.0,0.0,0.0,3.331127434519855,0.0,0.0,0.0,0.0,0.0,0.0,0.0,0.0,0.0,0.0,0.0,0.0,0.0,0.0,
1.0619,3.416903677980843,3.271968688160487,3.3073725413695674,0.0,0.0,0.0,3.332081635836966,0.0,0.0,0.0,0.0,0.0,0.0,0.0,0.0,0.0,0.0,0.0,0.0,0.0,0.0,
1.0775,3.417918691197502,3.272903268268911,3.308331352319264,0.0,0.0,0.0,3.3330511039285593,0.0,0.0,0.0,0.0,0.0,0.0,0.0,0.0,0.0,0.0,0.0,0.0,0.0,0.0,
1.0931,3.4189497501753228,3.2738526065363263,3.309305318536654,0.0,0.0,0.0,3.334035891749435,0.0,0.0,0.0,0.0,0.0,0.0,0.0,0.0,0.0,0.0,0.0,0.0,0.0,0.0,
1.1087,3.419996911663652,3.2748167544477313,3.310294493535772,0.0,0.0,0.0,3.335036053215718,0.0,0.0,0.0,0.0,0.0,0.0,0.0,0.0,0.0,0.0,0.0,0.0,0.0,0.0,
1.1243,3.421060233434138,3.275795764413191,3.311298931794648,0.0,0.0,0.0,3.336051643213992,0.0,0.0,0.0,0.0,0.0,0.0,0.0,0.0,0.0,0.0,0.0,0.0,0.0,0.0,
1.14,3.4221467468703266,3.2767961093217837,3.312325275202585,0.0,0.0,0.0,3.3370893771315653,0.0,0.0,0.0,0.0,0.0,0.0,0.0,0.0,0.0,0.0,0.0,0.0,0.0,0.0,
1.1556,3.4232426712060944,3.277805100506246,3.313360506060264,0.0,0.0,0.0,3.3381360925908683,0.0,0.0,0.0,0.0,0.0,0.0,0.0,0.0,0.0,0.0,0.0,0.0,0.0,0.0,
1.1712,3.4243549357657255,3.2788291169707824,3.314411169860475,0.0,0.0,0.0,3.3391984075323276,0.0,0.0,0.0,0.0,0.0,0.0,0.0,0.0,0.0,0.0,0.0,0.0,0.0,0.0,
1.1868,3.425483602517045,3.279868214921178,3.315477325038057,0.0,0.0,0.0,3.340276380825427,0.0,0.0,0.0,0.0,0.0,0.0,0.0,0.0,0.0,0.0,0.0,0.0,0.0,0.0,
1.2024,3.426628734501389,3.2809224515340776,3.3165590310401085,0.0,0.0,0.0,3.3413700723585253,0.0,0.0,0.0,0.0,0.0,0.0,0.0,0.0,0.0,0.0,0.0,0.0,0.0,0.0,
1.218,3.427790395844436,3.281991884966623,3.317656348336227,0.0,0.0,0.0,3.342479543049095,0.0,0.0,0.0,0.0,0.0,0.0,0.0,0.0,0.0,0.0,0.0,0.0,0.0,0.0,
1.2337,3.428976258361148,3.283083576843586,3.318776523670637,0.0,0.0,0.0,3.343612119625124,0.0,0.0,0.0,0.0,0.0,0.0,0.0,0.0,0.0,0.0,0.0,0.0,0.0,0.0,
1.2493,3.430171282209038,3.2841836807352736,3.3199053501780953,0.0,0.0,0.0,3.344753437707469,0.0,0.0,0.0,0.0,0.0,0.0,0.0,0.0,0.0,0.0,0.0,0.0,0.0,0.0,
1.2649,3.4313830348472787,3.285299162297,3.3210499760406798,0.0,0.0,0.0,3.345910724394986,0.0,0.0,0.0,0.0,0.0,0.0,0.0,0.0,0.0,0.0,0.0,0.0,0.0,0.0,
1.2805,3.432611584859889,3.2864300837160982,3.3222104659320513,0.0,0.0,0.0,3.347084044836013,0.0,0.0,0.0,0.0,0.0,0.0,0.0,0.0,0.0,0.0,0.0,0.0,0.0,0.0,
1.2961,3.433857001973277,3.2875765082123594,3.323386885603128,0.0,0.0,0.0,3.348273465262922,0.0,0.0,0.0,0.0,0.0,0.0,0.0,0.0,0.0,0.0,0.0,0.0,0.0,0.0,
1.3117,3.435119357068616,3.288738500049005,3.324579301893714,0.0,0.0,0.0,3.349479053003778,0.0,0.0,0.0,0.0,0.0,0.0,0.0,0.0,0.0,0.0,0.0,0.0,0.0,0.0,
1.3273,3.4363987221944474,3.2899161245439945,3.325787782744414,0.0,0.0,0.0,3.350700876494285,0.0,0.0,0.0,0.0,0.0,0.0,0.0,0.0,0.0,0.0,0.0,0.0,0.0,0.0,
1.343,3.4377035364109885,3.29111714837626,3.327020299493997,0.0,0.0,0.0,3.351946994760415,0.0,0.0,0.0,0.0,0.0,0.0,0.0,0.0,0.0,0.0,0.0,0.0,0.0,0.0,
1.3586,3.4390172527050664,3.292326339705523,3.328261221849957,0.0,0.0,0.0,3.353201604753515,0.0,0.0,0.0,0.0,0.0,0.0,0.0,0.0,0.0,0.0,0.0,0.0,0.0,0.0,
1.3742,3.440348202797845,3.2935513665342118,3.3295184197757957,0.0,0.0,0.0,3.3544726630359505,0.0,0.0,0.0,0.0,0.0,0.0,0.0,0.0,0.0,0.0,0.0,0.0,0.0,0.0,
1.3898,3.4416964635463025,3.2947922985234728,3.3307919657464273,0.0,0.0,0.0,3.355760242605401,0.0,0.0,0.0,0.0,0.0,0.0,0.0,0.0,0.0,0.0,0.0,0.0,0.0,0.0,
1.4054,3.443062113041854,3.29604920644906,3.3320819334007252,0.0,0.0,0.0,3.3570644176305464,0.0,0.0,0.0,0.0,0.0,0.0,0.0,0.0,0.0,0.0,0.0,0.0,0.0,0.0,
1.421,3.4444452306244924,3.297322162214103,3.3333883975550886,0.0,0.0,0.0,3.358385263464561,0.0,0.0,0.0,0.0,0.0,0.0,0.0,0.0,0.0,0.0,0.0,0.0,0.0,0.0,
1.4367,3.4458549323097363,3.2986195543340915,3.3347199688447535,0.0,0.0,0.0,3.3597314851628606,0.0,0.0,0.0,0.0,0.0,0.0,0.0,0.0,0.0,0.0,0.0,0.0,0.0,0.0,
1.4523,3.447273342437626,3.299924930118557,3.3360597622077472,0.0,0.0,0.0,3.3610860115879766,0.0,0.0,0.0,0.0,0.0,0.0,0.0,0.0,0.0,0.0,0.0,0.0,0.0,0.0,
1.4679,3.4487094668488085,3.3012465768340955,3.3374162842299944,0.0,0.0,0.0,3.362457442637633,0.0,0.0,0.0,0.0,0.0,0.0,0.0,0.0,0.0,0.0,0.0,0.0,0.0,0.0,
1.4835,3.450163390034668,3.3025845710334236,3.338789614585593,0.0,0.0,0.0,3.3638458585512283,0.0,0.0,0.0,0.0,0.0,0.0,0.0,0.0,0.0,0.0,0.0,0.0,0.0,0.0,
1.4991,3.4516351978110453,3.3039389904643173,3.3401798341977105,0.0,0.0,0.0,3.365251340824358,0.0,0.0,0.0,0.0,0.0,0.0,0.0,0.0,0.0,0.0,0.0,0.0,0.0,0.0,
1.5147,3.4531249773343564,3.3053099140840208,3.3415870252535966,0.0,0.0,0.0,3.366673972223991,0.0,0.0,0.0,0.0,0.0,0.0,0.0,0.0,0.0,0.0,0.0,0.0,0.0,0.0,
1.5304,3.4546425412072788,3.306706370026599,3.343020456197797,0.0,0.0,0.0,3.368123122477225,0.0,0.0,0.0,0.0,0.0,0.0,0.0,0.0,0.0,0.0,0.0,0.0,0.0,0.0,
1.546,3.456168647778275,3.3081106509043257,3.3444619519834657,0.0,0.0,0.0,3.3695804168886885,0.0,0.0,0.0,0.0,0.0,0.0,0.0,0.0,0.0,0.0,0.0,0.0,0.0,0.0,
1.5616,3.457712996364164,3.3095316807814417,3.345920674072293,0.0,0.0,0.0,3.3710551170726326,0.0,0.0,0.0,0.0,0.0,0.0,0.0,0.0,0.0,0.0,0.0,0.0,0.0,0.0,
1.5772,3.4592756796602124,3.310969543610808,3.347396709874905,0.0,0.0,0.0,3.372547311048642,0.0,0.0,0.0,0.0,0.0,0.0,0.0,0.0,0.0,0.0,0.0,0.0,0.0,0.0,
1.5928,3.4608567917879016,3.312424324631239,3.348890148146932,0.0,0.0,0.0,3.3740570881886907,0.0,0.0,0.0,0.0,0.0,0.0,0.0,0.0,0.0,0.0,0.0,0.0,0.0,0.0,
1.6084,3.4624564283130326,3.313896110383711,3.3504010790061263,0.0,0.0,0.0,3.3755845392342896,0.0,0.0,0.0,0.0,0.0,0.0,0.0,0.0,0.0,0.0,0.0,0.0,0.0,0.0,
1.624,3.4640746862643925,3.3153849887279234,3.3519295939498805,0.0,0.0,0.0,3.3771297563140656,0.0,0.0,0.0,0.0,0.0,0.0,0.0,0.0,0.0,0.0,0.0,0.0,0.0,0.0,
1.6397,3.465722218199967,3.3169007587082335,3.3534857545826697,0.0,0.0,0.0,3.3787029104969566,0.0,0.0,0.0,0.0,0.0,0.0,0.0,0.0,0.0,0.0,0.0,0.0,0.0,0.0,
1.6553,3.467378137003427,3.318424202189811,3.3550498320218516,0.0,0.0,0.0,3.3802840570716963,0.0,0.0,0.0,0.0,0.0,0.0,0.0,0.0,0.0,0.0,0.0,0.0,0.0,0.0,
1.6709,3.469052977944074,3.319965010518921,3.356631777114612,0.0,0.0,0.0,3.3818832551925357,0.0,0.0,0.0,0.0,0.0,0.0,0.0,0.0,0.0,0.0,0.0,0.0,0.0,0.0,
1.6865,3.470746844105637,3.3215232770115932,3.3582316870686792,0.0,0.0,0.0,3.3835006027286365,0.0,0.0,0.0,0.0,0.0,0.0,0.0,0.0,0.0,0.0,0.0,0.0,0.0,0.0,
1.7021,3.472459840133488,3.3230990963907248,3.359849660564692,0.0,0.0,0.0,3.3851361990296347,0.0,0.0,0.0,0.0,0.0,0.0,0.0,0.0,0.0,0.0,0.0,0.0,0.0,0.0,
1.7177,3.474192072255773,3.3246925648048298,3.361485797775911,0.0,0.0,0.0,3.3867901449455045,0.0,0.0,0.0,0.0,0.0,0.0,0.0,0.0,0.0,0.0,0.0,0.0,0.0,0.0,
1.7334,3.475954938988719,3.3263141656063686,3.3631508646735435,0.0,0.0,0.0,3.3884733230895434,0.0,0.0,0.0,0.0,0.0,0.0,0.0,0.0,0.0,0.0,0.0,0.0,0.0,0.0,
1.749,3.477726093480143,3.3279433410522765,3.364823753991036,0.0,0.0,0.0,3.390164396174485,0.0,0.0,0.0,0.0,0.0,0.0,0.0,0.0,0.0,0.0,0.0,0.0,0.0,0.0,
1.7646,3.479516813180268,3.3295904633744438,3.366515117380425,0.0,0.0,0.0,3.391874131311712,0.0,0.0,0.0,0.0,0.0,0.0,0.0,0.0,0.0,0.0,0.0,0.0,0.0,0.0,
1.7802,3.4813272108772617,3.331255634628425,3.368225061202131,0.0,0.0,0.0,3.3936026355692728,0.0,0.0,0.0,0.0,0.0,0.0,0.0,0.0,0.0,0.0,0.0,0.0,0.0,0.0,
1.7958,3.483157401053659,3.3329389583949904,3.3699536934146344,0.0,0.0,0.0,3.3953500176210945,0.0,0.0,0.0,0.0,0.0,0.0,0.0,0.0,0.0,0.0,0.0,0.0,0.0,0.0,
1.8114,3.4850074999101173,3.3346405398013013,3.3717011235969836,0.0,0.0,0.0,3.3971163877694672,0.0,0.0,0.0,0.0,0.0,0.0,0.0,0.0,0.0,0.0,0.0,0.0,0.0,0.0,
1.8271,3.4868896782301673,3.336371570305862,3.373478846897408,0.0,0.0,0.0,3.398913365144479,0.0,0.0,0.0,0.0,0.0,0.0,0.0,0.0,0.0,0.0,0.0,0.0,0.0,0.0,
1.8427,3.4887800795760437,3.338110107434242,3.375264330657615,0.0,0.0,0.0,3.4007181725559668,0.0,0.0,0.0,0.0,0.0,0.0,0.0,0.0,0.0,0.0,0.0,0.0,0.0,0.0,
1.8583,3.4906907495421864,3.3398672277903,3.377068951818909,0.0,0.0,0.0,3.402542309717132,0.0,0.0,0.0,0.0,0.0,0.0,0.0,0.0,0.0,0.0,0.0,0.0,0.0,0.0,
1.8739,3.4926218114608134,3.341643042917937,3.378892826686993,0.0,0.0,0.0,3.404385893688581,0.0,0.0,0.0,0.0,0.0,0.0,0.0,0.0,0.0,0.0,0.0,0.0,0.0,0.0,
1.8895,3.494573390508717,3.343437666020219,3.3807360733074674,0.0,0.0,0.0,3.4062490432788013,0.0,0.0,0.0,0.0,0.0,0.0,0.0,0.0,0.0,0.0,0.0,0.0,0.0,0.0,
1.9051,3.4965456137341637,3.345251211983327,3.3825988114912313,0.0,0.0,0.0,3.408131879069574,0.0,0.0,0.0,0.0,0.0,0.0,0.0,0.0,0.0,0.0,0.0,0.0,0.0,0.0,
1.9208,3.498551452990565,3.3470956064128905,3.384493292726196,0.0,0.0,0.0,3.4100467840432174,0.0,0.0,0.0,0.0,0.0,0.0,0.0,0.0,0.0,0.0,0.0,0.0,0.0,0.0,
1.9364,3.500565487765849,3.348947472803343,3.3863955075793166,0.0,0.0,0.0,3.411969489382836,0.0,0.0,0.0,0.0,0.0,0.0,0.0,0.0,0.0,0.0,0.0,0.0,0.0,0.0,
1.952,3.5026005602274033,3.3508186178347,3.388317585091207,0.0,0.0,0.0,3.413912254384437,0.0,0.0,0.0,0.0,0.0,0.0,0.0,0.0,0.0,0.0,0.0,0.0,0.0,0.0,
1.9676,3.5046568052024396,3.3527091633870505,3.390259652410855,0.0,0.0,0.0,3.415875207000115,0.0,0.0,0.0,0.0,0.0,0.0,0.0,0.0,0.0,0.0,0.0,0.0,0.0,0.0,
1.9832,3.5067343595330236,3.3546192331513813,3.392221838587932,0.0,0.0,0.0,3.4178584770907787,0.0,0.0,0.0,0.0,0.0,0.0,0.0,0.0,0.0,0.0,0.0,0.0,0.0,0.0,
1.9988,3.508833362106508,3.3565489526567567,3.3942042746016585,0.0,0.0,0.0,3.4198621964549747,0.0,0.0,0.0,0.0,0.0,0.0,0.0,0.0,0.0,0.0,0.0,0.0,0.0,0.0,
2.0144,3.5109539538867476,3.3584984492981262,3.3962070933901467,0.0,0.0,0.0,3.42188649885834,0.0,0.0,0.0,0.0,0.0,0.0,0.0,0.0,0.0,0.0,0.0,0.0,0.0,0.0,
2.0301,3.5131100812057374,3.3604805412368566,3.398243466464032,0.0,0.0,0.0,3.423944696302209,0.0,0.0,0.0,0.0,0.0,0.0,0.0,0.0,0.0,0.0,0.0,0.0,0.0,0.0,
