energies(eV),real_xx,real_yy,real_zz,real_xy,real_yz,real_xz,real_ave,imag_xx,imag_yy,imag_zz,imag_xy,imag_yz,imag_xz,imag_ave,absorption_xx,absorption_yy,absorption_zz,absorption_xy,absorption_yz,absorption_xz,absorption_ave,band_gap
0.0,4.076803340224835,4.0391572486441625,4.0378654690548785,0.0,0.0,-0.02382070778581394,4.051275352641292,0.0,0.0,0.0,0.0,0.0,0.0,0.0,0.0,0.0,0.0,0.0,0.0,0.0,0.0,3.8719
0.0198,4.07682608418217,4.039179840644689,4.037887928064141,0.0,0.0,-0.023821147504383928,4.051297950963666,0.0,0.0,0.0,0.0,0.0,0.0,0.0,0.0,0.0,0.0,0.0,0.0,309.73483702170836,0.0,
0.0397,4.076894779645882,4.0392480771655155,4.037955762885442,0.0,0.0,-0.02382247566010373,4.051366206565613,0.0,0.0,0.0,0.0,0.0,0.0,0.0,0.0,0.0,0.0,0.0,0.0,621.0513041354907,0.0,
0.0595,4.077008746761662,4.0393612829685726,4.038068302211721,0.0,0.0,-0.023824679219653422,4.051479443980652,0.0,0.0,0.0,0.0,0.0,0.0,0.0,0.0,0.0,0.0,0.0,0.0,930.8378236024105,0.0,
0.0793,4.0771682333744845,4.039519704366211,4.038225790832135,0.0,0.0,-0.023827763159088734,4.051637909524277,0.0,0.0,0.0,0.0,0.0,0.0,0.0,0.0,0.0,0.0,0.0,0.0,1240.675911014095,0.0,
0.0992,4.077374415166105,4.039724509363042,4.038429389770119,0.0,0.0,-0.023831750474131254,4.051842771433089,0.0,0.0,0.0,0.0,0.0,0.0,0.0,0.0,0.0,0.0,0.0,0.0,1552.1481408865297,0.0,
0.119,4.0776252516587475,4.039973671329877,4.038677084198454,0.0,0.0,-0.02383660203791735,4.052092002395693,0.0,0.0,0.0,0.0,0.0,0.0,0.0,0.0,0.0,0.0,0.0,0.0,1862.1414172558013,0.0,
0.1388,4.077921702526498,4.040268143803837,4.03896982187795,0.0,0.0,-0.02384233681497205,4.052386556069428,0.0,0.0,0.0,0.0,0.0,0.0,0.0,0.0,0.0,0.0,0.0,0.0,2172.237970881175,0.0,
0.1586,4.078263813438819,4.040607972471378,4.039307648034951,0.0,0.0,-0.02384895616979883,4.052726477981716,0.0,0.0,0.0,0.0,0.0,0.0,0.0,0.0,0.0,0.0,0.0,0.0,2482.455065070061,0.0,
0.1785,4.078653711960294,4.040995271085063,4.0396926637400545,0.0,0.0,-0.02385650183734305,4.053113882261805,0.0,0.0,0.0,0.0,0.0,0.0,0.0,0.0,0.0,0.0,0.0,0.0,2794.37782820924,0.0,
0.1983,4.079087539620287,4.0414262073273335,4.040121059013293,0.0,0.0,-0.023864899778931168,4.053544935320304,0.0,0.0,0.0,0.0,0.0,0.0,0.0,0.0,0.0,0.0,0.0,0.0,3104.8887733009788,0.0,
0.2181,4.079567207220761,4.041902679729077,4.040594720915532,0.0,0.0,-0.023874187677346743,4.0540215359551235,0.0,0.0,0.0,0.0,0.0,0.0,0.0,0.0,0.0,0.0,0.0,0.0,3415.572378147209,0.0,
0.238,4.080095560031879,4.042427515148308,4.041116459309333,0.0,0.0,-0.023884421434634855,4.054546511496507,0.0,0.0,0.0,0.0,0.0,0.0,0.0,0.0,0.0,0.0,0.0,0.0,3728.016666372462,0.0,
0.2578,4.080667369677284,4.0429955205935215,4.041681111503721,0.0,0.0,-0.02389550064535791,4.0551146672581755,0.0,0.0,0.0,0.0,0.0,0.0,0.0,0.0,0.0,0.0,0.0,0.0,4039.0990686492228,0.0,
0.2776,4.081285263790155,4.043609306827717,4.042291272486191,0.0,0.0,-0.023907477135100087,4.055728614368021,0.0,0.0,0.0,0.0,0.0,0.0,0.0,0.0,0.0,0.0,0.0,0.0,4350.406726168914,0.0,
0.2975,4.081952809532847,4.044272418004805,4.042950465058208,0.0,0.0,-0.02392042110134219,4.056391897531953,0.0,0.0,0.0,0.0,0.0,0.0,0.0,0.0,0.0,0.0,0.0,0.0,4663.5314064025515,0.0,
0.3173,4.082663401542306,4.044978293377656,4.04365216680627,0.0,0.0,-0.02393420556308106,4.057097953908744,0.0,0.0,0.0,0.0,0.0,0.0,0.0,0.0,0.0,0.0,0.0,0.0,4975.343910502013,0.0,
0.3371,4.083420388202564,4.045730259865034,4.044399684527242,0.0,0.0,-0.023948896609585844,4.057850110864947,0.0,0.0,0.0,0.0,0.0,0.0,0.0,0.0,0.0,0.0,0.0,0.0,5287.4348896780975,0.0,
0.3569,4.0842238875112145,4.046528435522182,4.045193135079596,0.0,0.0,-0.02396449778600674,4.058648486037664,0.0,0.0,0.0,0.0,0.0,0.0,0.0,0.0,0.0,0.0,0.0,0.0,5599.822218610258,0.0,
0.3768,4.085078437147903,4.047377328902764,4.046036999770061,0.0,0.0,-0.023981098600641244,4.059497588606909,0.0,0.0,0.0,0.0,0.0,0.0,0.0,0.0,0.0,0.0,0.0,0.0,5914.103993219375,0.0,
0.3966,4.085975582247075,4.048268542058027,4.046922929832023,0.0,0.0,-0.023998536231022095,4.060389018045709,0.0,0.0,0.0,0.0,0.0,0.0,0.0,0.0,0.0,0.0,0.0,0.0,6227.139742874778,0.0,
0.4164,4.086919639767274,4.04920636436572,4.047855188644899,0.0,0.0,-0.02401689602311325,4.061327064259298,0.0,0.0,0.0,0.0,0.0,0.0,0.0,0.0,0.0,0.0,0.0,0.0,6540.526131601635,0.0,
0.4363,4.087915883336954,4.050196035746298,4.048838984378488,0.0,0.0,-0.02403628221367062,4.06231696782058,0.0,0.0,0.0,0.0,0.0,0.0,0.0,0.0,0.0,0.0,0.0,0.0,6855.867026573308,0.0,
0.4561,4.088954457141366,4.051227766528908,4.049864584815796,0.0,0.0,-0.02405650469569829,4.063348936162023,0.0,0.0,0.0,0.0,0.0,0.0,0.0,0.0,0.0,0.0,0.0,0.0,7170.011642630816,0.0,
0.4759,4.090040412307708,4.0523065756797525,4.050936978437466,0.0,0.0,-0.02407766349394099,4.064427988808309,0.0,0.0,0.0,0.0,0.0,0.0,0.0,0.0,0.0,0.0,0.0,0.0,7484.562174519265,0.0,
0.4958,4.091179766344424,4.053438442426369,4.0520621081331365,0.0,0.0,-0.02409987781924667,4.065560105634643,0.0,0.0,0.0,0.0,0.0,0.0,0.0,0.0,0.0,0.0,0.0,0.0,7801.129156818111,0.0,
0.5156,4.092361248924819,4.054612171809524,4.053228844805073,0.0,0.0,-0.024122929877208554,4.0667340885131384,0.0,0.0,0.0,0.0,0.0,0.0,0.0,0.0,0.0,0.0,0.0,0.0,8116.549867190408,0.0,
0.5354,4.093590652993038,4.055833520041528,4.054442909611955,0.0,0.0,-0.02414693460899302,4.067955694215507,0.0,0.0,0.0,0.0,0.0,0.0,0.0,0.0,0.0,0.0,0.0,0.0,8432.432923453762,0.0,
0.5553,4.094874749062846,4.057109214793455,4.0557109892034955,0.0,0.0,-0.024172026483269403,4.0692316510199324,0.0,0.0,0.0,0.0,0.0,0.0,0.0,0.0,0.0,0.0,0.0,0.0,8750.396444150705,0.0,
0.5751,4.096200836682166,4.058426640199424,4.057020542139602,0.0,0.0,-0.024197959552998468,4.070549339673731,0.0,0.0,0.0,0.0,0.0,0.0,0.0,0.0,0.0,0.0,0.0,0.0,9067.264114714053,0.0,
0.5949,4.097575459447876,4.059792298564865,4.058378031010609,0.0,0.0,-0.024224863951273042,4.071915263007783,0.0,0.0,0.0,0.0,0.0,0.0,0.0,0.0,0.0,0.0,0.0,0.0,9384.651888210326,0.0,
0.6147,4.09899883833021,4.061206411035554,4.059783674682633,0.0,0.0,-0.024252746413574007,4.073329641349465,0.0,0.0,0.0,0.0,0.0,0.0,0.0,0.0,0.0,0.0,0.0,0.0,9702.579310128587,0.0,
0.6346,4.100478763757181,4.062676719138806,4.061245167246036,0.0,0.0,-0.02428176225401136,4.074800216714007,0.0,0.0,0.0,0.0,0.0,0.0,0.0,0.0,0.0,0.0,0.0,0.0,10022.676072544666,0.0,
0.6544,4.102000601309742,4.0641886853172,4.062748057265544,0.0,0.0,-0.024311627168868182,4.076312447964162,0.0,0.0,0.0,0.0,0.0,0.0,0.0,0.0,0.0,0.0,0.0,0.0,10341.745107666131,0.0,
0.6742,4.103571910899956,4.065749822136554,4.064299811209963,0.0,0.0,-0.02434249203560726,4.077873848082158,0.0,0.0,0.0,0.0,0.0,0.0,0.0,0.0,0.0,0.0,0.0,0.0,10661.413602765793,0.0,
0.6941,4.105201262144199,4.067368645787356,4.065908892870358,0.0,0.0,-0.024374528246672765,4.079492933600638,0.0,0.0,0.0,0.0,0.0,0.0,0.0,0.0,0.0,0.0,0.0,0.0,10983.321068937963,0.0,
0.7139,4.10687254572521,4.069029153012901,4.0675593941295185,0.0,0.0,-0.02440742200329434,4.081153697622543,0.0,0.0,0.0,0.0,0.0,0.0,0.0,0.0,0.0,0.0,0.0,0.0,11304.25283171793,0.0,
0.7337,4.108594097683419,4.070739627984776,4.0692595481283,0.0,0.0,-0.02444134017509775,4.0828644245988315,0.0,0.0,0.0,0.0,0.0,0.0,0.0,0.0,0.0,0.0,0.0,0.0,11625.845636096235,0.0,
0.7536,4.110375280277043,4.072509375031496,4.07101860168841,0.0,0.0,-0.024476470658072125,4.0846344189989825,0.0,0.0,0.0,0.0,0.0,0.0,0.0,0.0,0.0,0.0,0.0,0.0,11949.74982002325,0.0,
0.7734,4.1121984863238925,4.0743209022168845,4.072819167264896,0.0,0.0,-0.02451246946504606,4.086446185268557,0.0,0.0,0.0,0.0,0.0,0.0,0.0,0.0,0.0,0.0,0.0,0.0,12272.731302966264,0.0,
0.7932,4.114072841126809,4.076183278473828,4.0746702576844545,0.0,0.0,-0.02454951987377349,4.088308792428363,0.0,0.0,0.0,0.0,0.0,0.0,0.0,0.0,0.0,0.0,0.0,0.0,12596.43738900244,0.0,
0.813,4.115998656976419,4.078096816453612,4.076572182313198,0.0,0.0,-0.02458763156336642,4.09022255191441,0.0,0.0,0.0,0.0,0.0,0.0,0.0,0.0,0.0,0.0,0.0,0.0,12920.889706945663,0.0,
0.8329,4.117986375937695,4.08007189432974,4.078535254757122,0.0,0.0,-0.024627015169678284,4.092197841674852,0.0,0.0,0.0,0.0,0.0,0.0,0.0,0.0,0.0,0.0,0.0,0.0,13247.754652551406,0.0,
0.8527,4.120016354648817,4.082088996200589,4.080540076245584,0.0,0.0,-0.02466728526123425,4.094215142364997,0.0,0.0,0.0,0.0,0.0,0.0,0.0,0.0,0.0,0.0,0.0,0.0,13573.769387798175,0.0,
0.8725,4.122098793199134,4.084158259827491,4.082596721420632,0.0,0.0,-0.024708647713437004,4.096284591482419,0.0,0.0,0.0,0.0,0.0,0.0,0.0,0.0,0.0,0.0,0.0,0.0,13900.59690645004,0.0,
0.8924,4.12424496337212,4.0862908886664115,4.0847163236595,0.0,0.0,-0.024751330849887537,4.098417391899344,0.0,0.0,0.0,0.0,0.0,0.0,0.0,0.0,0.0,0.0,0.0,0.0,14229.91692604055,0.0,
0.9122,4.126433660836323,4.08846581498328,4.086877942261056,0.0,0.0,-0.02479491712943908,4.100592472693553,0.0,0.0,0.0,0.0,0.0,0.0,0.0,0.0,0.0,0.0,0.0,0.0,14558.442779208848,0.0,
0.932,4.128675911229012,4.09069399765419,4.089092467510497,0.0,0.0,-0.024839629996686943,4.102820792131233,0.0,0.0,0.0,0.0,0.0,0.0,0.0,0.0,0.0,0.0,0.0,0.0,14887.850495922472,0.0,
0.9519,4.130983834582811,4.092987483986915,4.091371870921226,0.0,0.0,-0.02488571606148609,4.105114396496984,0.0,0.0,0.0,0.0,0.0,0.0,0.0,0.0,0.0,0.0,0.0,0.0,15219.834256992119,0.0,
0.9717,4.13333463417373,4.0953236229619545,4.093693638735775,0.0,0.0,-0.024932724707641275,4.107450631957153,0.0,0.0,0.0,0.0,0.0,0.0,0.0,0.0,0.0,0.0,0.0,0.0,15551.081557325646,0.0,
0.9915,4.135740179355753,4.097714212777651,4.096069494889187,0.0,0.0,-0.024980897536756575,4.1098412956741965,0.0,0.0,0.0,0.0,0.0,0.0,0.0,0.0,0.0,0.0,0.0,0.0,15883.282595715022,0.0,
1.0114,4.138213458661125,4.100172164889818,4.098512269101866,0.0,0.0,-0.02503050010394971,4.112299297550936,0.0,0.0,0.0,0.0,0.0,0.0,0.0,0.0,0.0,0.0,0.0,0.0,16218.147207834198,0.0,
1.0312,4.140730048728084,4.102673210711142,4.100997840636748,0.0,0.0,-0.025081047659460634,4.114800366691991,0.0,0.0,0.0,0.0,0.0,0.0,0.0,0.0,0.0,0.0,0.0,0.0,16552.334964907473,0.0,
1.051,4.143302682500556,4.10523000768115,4.10353878677609,0.0,0.0,-0.025132800609697747,4.117357158985931,0.0,0.0,0.0,0.0,0.0,0.0,0.0,0.0,0.0,0.0,0.0,0.0,16887.551416457572,0.0,
1.0708,4.145931816448185,4.107843013091971,4.10613555984589,0.0,0.0,-0.02518577351794057,4.119970129795348,0.0,0.0,0.0,0.0,0.0,0.0,0.0,0.0,0.0,0.0,0.0,0.0,17223.82224246072,0.0,
1.0907,4.148631631273513,4.110526324856031,4.1088021677152895,0.0,0.0,-0.025240258327134696,4.122653374614945,0.0,0.0,0.0,0.0,0.0,0.0,0.0,0.0,0.0,0.0,0.0,0.0,17562.88009185934,0.0,
1.1105,4.151375477269236,4.11325346005573,4.111512290046562,0.0,0.0,-0.02529572297668077,4.125380409123843,0.0,0.0,0.0,0.0,0.0,0.0,0.0,0.0,0.0,0.0,0.0,0.0,17901.34392869179,0.0,
1.1303,4.154177272390374,4.116038255431652,4.114279675184049,0.0,0.0,-0.02535245405520048,4.128165067668692,0.0,0.0,0.0,0.0,0.0,0.0,0.0,0.0,0.0,0.0,0.0,0.0,18240.94169389949,0.0,
1.1502,4.15705212040709,4.118895727754127,4.117119243296527,0.0,0.0,-0.02541076425185595,4.131022363819247,0.0,0.0,0.0,0.0,0.0,0.0,0.0,0.0,0.0,0.0,0.0,0.0,18583.424696565336,0.0,
1.17,4.159971653197825,4.121797684638652,4.1200029761430095,0.0,0.0,-0.02547008450337409,4.133924104659829,0.0,0.0,0.0,0.0,0.0,0.0,0.0,0.0,0.0,0.0,0.0,0.0,18925.378764616544,0.0,
1.1898,4.162950705927507,4.124758875828629,4.122945528569087,0.0,0.0,-0.02553072197569645,4.136885036775074,0.0,0.0,0.0,0.0,0.0,0.0,0.0,0.0,0.0,0.0,0.0,0.0,19268.550169065376,0.0,
1.2097,4.166005332287771,4.1277952638855595,4.125962759667493,0.0,0.0,-0.02559301100360286,4.139921118613608,0.0,0.0,0.0,0.0,0.0,0.0,0.0,0.0,0.0,0.0,0.0,0.0,19614.710279073042,0.0,
1.2295,4.169105400850848,4.130876901994357,4.1290249088140065,0.0,0.0,-0.0256563441010487,4.1430024038864035,0.0,0.0,0.0,0.0,0.0,0.0,0.0,0.0,0.0,0.0,0.0,0.0,19960.409382158563,0.0,
1.2493,4.172266690406392,4.134019479395285,4.132147563545142,0.0,0.0,-0.02572104989742076,4.146144577782273,0.0,0.0,0.0,0.0,0.0,0.0,0.0,0.0,0.0,0.0,0.0,0.0,20307.41346667357,0.0,
1.2691,4.175489797477747,4.1372235940743645,4.135331315145163,0.0,0.0,-0.02578714796296143,4.149348235565758,0.0,0.0,0.0,0.0,0.0,0.0,0.0,0.0,0.0,0.0,0.0,0.0,20655.752709377088,0.0,
1.289,4.17879208752899,4.140506515008484,4.138593319437199,0.0,0.0,-0.025855003029977813,4.1526306406582245,0.0,0.0,0.0,0.0,0.0,0.0,0.0,0.0,0.0,0.0,0.0,0.0,21007.22752564753,0.0,
1.3088,4.182141002936465,4.143835880879315,4.141901418178527,0.0,0.0,-0.025923953974889013,4.1559594339981025,0.0,0.0,0.0,0.0,0.0,0.0,0.0,0.0,0.0,0.0,0.0,0.0,21358.336895811273,0.0,
1.3286,4.185553625149666,4.1472286782329295,4.145272486615394,0.0,0.0,-0.025994359559936807,4.159351596665997,0.0,0.0,0.0,0.0,0.0,0.0,0.0,0.0,0.0,0.0,0.0,0.0,21710.87537621023,0.0,
1.3485,4.18904834145172,4.150703193977869,4.148724690792437,0.0,0.0,-0.026066608612138432,4.162825408740676,0.0,0.0,0.0,0.0,0.0,0.0,0.0,0.0,0.0,0.0,0.0,0.0,22066.6670221103,0.0,
1.3683,4.192590711606792,4.154225192832353,4.152224011856591,0.0,0.0,-0.02613999775974695,4.166346638765245,0.0,0.0,0.0,0.0,0.0,0.0,0.0,0.0,0.0,0.0,0.0,0.0,22422.169193500966,0.0,
1.3881,4.196198831474697,4.157812671867456,4.155788327941664,0.0,0.0,-0.02621490964372072,4.169933277094606,0.0,0.0,0.0,0.0,0.0,0.0,0.0,0.0,0.0,0.0,0.0,0.0,22779.19971032921,0.0,
1.408,4.199892145410405,4.161484971311132,4.159436850279938,0.0,0.0,-0.02629175840781202,4.173604655667158,0.0,0.0,0.0,0.0,0.0,0.0,0.0,0.0,0.0,0.0,0.0,0.0,23139.607957745968,0.0,
1.4278,4.2036342725358855,4.165205923759105,4.163133641894465,0.0,0.0,-0.02636979654534033,4.1773246127298185,0.0,0.0,0.0,0.0,0.0,0.0,0.0,0.0,0.0,0.0,0.0,0.0,23499.80683865764,0.0,
1.4476,4.207444357855805,4.168994571676729,4.166897618259658,0.0,0.0,-0.026449431782189555,4.1811121825973965,0.0,0.0,0.0,0.0,0.0,0.0,0.0,0.0,0.0,0.0,0.0,0.0,23861.639110396227,0.0,
1.4675,4.211342941034332,4.172871347006465,4.170749073727361,0.0,0.0,-0.0265311049195942,4.184987787256053,0.0,0.0,0.0,0.0,0.0,0.0,0.0,0.0,0.0,0.0,0.0,0.0,24226.981285630867,0.0,
1.4873,4.215291637952257,4.176798087470243,4.1746500911488935,0.0,0.0,-0.02661402226208934,4.188913272190465,0.0,0.0,0.0,0.0,0.0,0.0,0.0,0.0,0.0,0.0,0.0,0.0,24592.198815896616,0.0,
1.5071,4.219310680450891,4.180794918777025,4.178620660731125,0.0,0.0,-0.02669861794457996,4.1929087533196805,0.0,0.0,0.0,0.0,0.0,0.0,0.0,0.0,0.0,0.0,0.0,0.0,24959.16117614598,0.0,
1.5269,4.223400905178644,4.184862680526561,4.18266161219379,0.0,0.0,-0.026784920643527693,4.196975065966332,0.0,0.0,0.0,0.0,0.0,0.0,0.0,0.0,0.0,0.0,0.0,0.0,25327.90697790144,0.0,
1.5468,4.2275843766875525,4.18902332505022,4.186794748022098,0.0,0.0,-0.02687340900168378,4.201134149919957,0.0,0.0,0.0,0.0,0.0,0.0,0.0,0.0,0.0,0.0,0.0,0.0,25700.351890699265,0.0,
1.5666,4.231819935138578,4.193235925217657,4.190979407013709,0.0,0.0,-0.026963224254460613,4.205345089123315,0.0,0.0,0.0,0.0,0.0,0.0,0.0,0.0,0.0,0.0,0.0,0.0,26072.79316894706,0.0,
1.5864,4.236129325070394,4.197522114938364,4.195237075441476,0.0,0.0,-0.0270548380197673,4.209629505150078,0.0,0.0,0.0,0.0,0.0,0.0,0.0,0.0,0.0,0.0,0.0,0.0,26447.13886898178,0.0,
1.6063,4.240535808677864,4.201905041071276,4.199590740454298,0.0,0.0,-0.027148759261402287,4.214010530067813,0.0,0.0,0.0,0.0,0.0,0.0,0.0,0.0,0.0,0.0,0.0,0.0,26825.33646693781,0.0,
1.6261,4.244996057077627,4.206341615341071,4.2039975963055,0.0,0.0,-0.02724407749659072,4.2184450895747325,0.0,0.0,0.0,0.0,0.0,0.0,0.0,0.0,0.0,0.0,0.0,0.0,27203.628080746912,0.0,
1.6459,4.249533002590305,4.210854656325526,4.2084803041705054,0.0,0.0,-0.027341294373637453,4.222955987695445,0.0,0.0,0.0,0.0,0.0,0.0,0.0,0.0,0.0,0.0,0.0,0.0,27583.95311798632,0.0,
1.6658,4.254171155322553,4.215468555945204,4.21306308575769,0.0,0.0,-0.027440951015725024,4.227567599008482,0.0,0.0,0.0,0.0,0.0,0.0,0.0,0.0,0.0,0.0,0.0,0.0,27968.29310899398,0.0,
1.6856,4.258864936802615,4.220137983975766,4.217700910911871,0.0,0.0,-0.027542082490765053,4.232234610563418,0.0,0.0,0.0,0.0,0.0,0.0,0.0,0.0,0.0,0.0,0.0,0.0,28352.83139781214,0.0,
1.7054,4.263638516753691,4.224886993549278,4.222417664965419,0.0,0.0,-0.0276452222962946,4.236981058422796,0.0,0.0,0.0,0.0,0.0,0.0,0.0,0.0,0.0,0.0,0.0,0.0,28739.5409691833,0.0,
1.7252,4.268492983167883,4.2297166776238795,4.227214427441888,0.0,0.0,-0.027750409231260733,4.241808029411216,0.0,0.0,0.0,0.0,0.0,0.0,0.0,0.0,0.0,0.0,0.0,0.0,29128.469821505405,0.0,
1.7451,4.273454595114909,4.234653173774834,4.2321171505991675,0.0,0.0,-0.027858230465937946,4.246741639829637,0.0,0.0,0.0,0.0,0.0,0.0,0.0,0.0,0.0,0.0,0.0,0.0,29521.648659795243,0.0,
1.7649,4.2784746396516775,4.239648027007593,4.237077704501415,0.0,0.0,-0.027967643822934454,4.251733457053562,0.0,0.0,0.0,0.0,0.0,0.0,0.0,0.0,0.0,0.0,0.0,0.0,29915.17643173897,0.0,
1.7847,4.283579020391753,4.244727021039729,4.242121690111778,0.0,0.0,-0.028079228401853517,4.256809243847753,0.0,0.0,0.0,0.0,0.0,0.0,0.0,0.0,0.0,0.0,0.0,0.0,30311.074624922247,0.0,
1.8046,4.2887953794027815,4.24991767439964,4.247276428377539,0.0,0.0,-0.028193608592200912,4.261996494059987,0.0,0.0,0.0,0.0,0.0,0.0,0.0,0.0,0.0,0.0,0.0,0.0,30711.41393147411,0.0,
1.8244,4.294072540561333,4.255169075764101,4.2524913531197,0.0,0.0,-0.02830968038991972,4.267244323148378,0.0,0.0,0.0,0.0,0.0,0.0,0.0,0.0,0.0,0.0,0.0,0.0,31112.22508455824,0.0,
1.8442,4.299437778324805,4.2605083776535455,4.2577934219617575,0.0,0.0,-0.028428059755311166,4.272579859313369,0.0,0.0,0.0,0.0,0.0,0.0,0.0,0.0,0.0,0.0,0.0,0.0,31515.56902596789,0.0,
1.8641,4.304920184472088,4.265964546709139,4.263211390805999,0.0,0.0,-0.02854941085758228,4.278032040662409,0.0,0.0,0.0,0.0,0.0,0.0,0.0,0.0,0.0,0.0,0.0,0.0,31923.559324647933,0.0,
1.8839,4.310466015705263,4.271484110851555,4.268692154068409,0.0,0.0,-0.028672564206497914,4.283547426875075,0.0,0.0,0.0,0.0,0.0,0.0,0.0,0.0,0.0,0.0,0.0,0.0,32332.15398216472,0.0,
1.9037,4.3161039832759185,4.277095657802482,4.274264091544552,0.0,0.0,-0.028798175161870943,4.289154577540984,0.0,0.0,0.0,0.0,0.0,0.0,0.0,0.0,0.0,0.0,0.0,0.0,32743.45625803335,0.0,
1.9236,4.321864701503618,4.28282967566771,4.2799574664507976,0.0,0.0,-0.02892695051228506,4.294883947874042,0.0,0.0,0.0,0.0,0.0,0.0,0.0,0.0,0.0,0.0,0.0,0.0,33159.62573183887,0.0,
1.9434,4.327691747478435,4.28863001867094,4.285716522243603,0.0,0.0,-0.02905765127724856,4.300679429464327,0.0,0.0,0.0,0.0,0.0,0.0,0.0,0.0,0.0,0.0,0.0,0.0,33576.54283236999,0.0,
1.9632,4.333615341278544,4.2945267822925555,4.291571132462444,0.0,0.0,-0.02919097503389213,4.3065710853445145,0.0,0.0,0.0,0.0,0.0,0.0,0.0,0.0,0.0,0.0,0.0,0.0,33996.35624323824,0.0,
1.983,4.339637035134476,4.300521528466634,4.297522838555924,0.0,0.0,-0.029326980541494675,4.312560467385678,0.0,0.0,0.0,0.0,0.0,0.0,0.0,0.0,0.0,0.0,0.0,0.0,34419.13209789601,0.0,
2.0029,4.345789597644081,4.306646899113423,4.30360403695493,0.0,0.0,-0.029466436357907067,4.318680177904144,0.0,0.0,0.0,0.0,0.0,0.0,0.0,0.0,0.0,0.0,0.0,0.0,34847.096647541446,0.0,
2.0227,4.352012843726997,4.312842993245075,4.30975524859803,0.0,0.0,-0.029608003997222944,4.324870361856701,0.0,0.0,0.0,0.0,0.0,0.0,0.0,0.0,0.0,0.0,0.0,0.0,35276.01878510317,0.0,
2.0425,4.358339128167657,4.319142040601619,4.31600846087647,0.0,0.0,-0.029752442236351807,4.3311632098819155,0.0,0.0,0.0,0.0,0.0,0.0,0.0,0.0,0.0,0.0,0.0,0.0,35708.11303948199,0.0,
2.0624,4.36480293982885,4.3255784038908045,4.322397774075986,0.0,0.0,-0.029900570184284284,4.337593039265213,0.0,0.0,0.0,0.0,0.0,0.0,0.0,0.0,0.0,0.0,0.0,0.0,36145.66010895808,0.0,
2.0822,4.371341114299057,4.3320892071967965,4.328860760728356,0.0,0.0,-0.03005096896356855,4.344097027408069,0.0,0.0,0.0,0.0,0.0,0.0,0.0,0.0,0.0,0.0,0.0,0.0,36584.338563726626,0.0,
2.102,4.377987710935621,4.338708385374876,4.3354310965592315,0.0,0.0,-0.030204447450777785,4.3507090642899096,0.0,0.0,0.0,0.0,0.0,0.0,0.0,0.0,0.0,0.0,0.0,0.0,37026.4167251755,0.0,
2.1219,4.384779037653347,4.345472121600644,4.3421446839545705,0.0,0.0,-0.030361879384382142,4.357465281069521,0.0,0.0,0.0,0.0,0.0,0.0,0.0,0.0,0.0,0.0,0.0,0.0,37474.2339296657,0.0,
2.1417,4.391648803881785,4.352314417376645,4.348936001283125,0.0,0.0,-0.03052176004092599,4.364299740847184,0.0,0.0,0.0,0.0,0.0,0.0,0.0,0.0,0.0,0.0,0.0,0.0,37923.37223633581,0.0,
