energies(eV),real_xx,real_yy,real_zz,real_xy,real_yz,real_xz,real_ave,imag_xx,imag_yy,imag_zz,imag_xy,imag_yz,imag_xz,imag_ave,absorption_xx,absorption_yy,absorption_zz,absorption_xy,absorption_yz,absorption_xz,absorption_ave,band_gap
0.0,3.2746093410067005,3.2746093410067005,3.2013577008458833,0.0,0.0,0.0,3.2501921276197616,0.0,0.0,0.0,0.0,0.0,0.0,0.0,0.0,0.0,0.0,0.0,0.0,0.0,0.0,4.870100000000001
0.0211,3.274617478086509,3.274617478086509,3.2013660581921535,0.0,0.0,0.0,3.250200338121724,0.0,0.0,0.0,0.0,0.0,0.0,0.0,0.0,0.0,0.0,0.0,0.0,0.0,0.0,
0.0421,3.2746417357469815,3.2746417357469815,3.2013909725713656,0.0,0.0,0.0,3.2502248146884427,0.0,0.0,0.0,0.0,0.0,0.0,0.0,0.0,0.0,0.0,0.0,0.0,0.0,0.0,
0.0632,3.2746823465090213,3.2746823465090213,3.201432683030589,0.0,0.0,0.0,3.25026579201621,0.0,0.0,0.0,0.0,0.0,0.0,0.0,0.0,0.0,0.0,0.0,0.0,0.0,0.0,
0.0843,3.2747392359282554,3.2747392359282554,3.2014911134971764,0.0,0.0,0.0,3.2503231951178955,0.0,0.0,0.0,0.0,0.0,0.0,0.0,0.0,0.0,0.0,0.0,0.0,0.0,0.0,
0.1053,3.274812022318174,3.274812022318174,3.2015658724798706,0.0,0.0,0.0,3.250396639038739,0.0,0.0,0.0,0.0,0.0,0.0,0.0,0.0,0.0,0.0,0.0,0.0,0.0,0.0,
0.1264,3.2749014033717634,3.2749014033717634,3.201657677274521,0.0,0.0,0.0,3.2504868280060157,0.0,0.0,0.0,0.0,0.0,0.0,0.0,0.0,0.0,0.0,0.0,0.0,0.0,0.0,
0.1475,3.2750070765831727,3.2750070765831727,3.2017662180321698,0.0,0.0,0.0,3.250593457066172,0.0,0.0,0.0,0.0,0.0,0.0,0.0,0.0,0.0,0.0,0.0,0.0,0.0,0.0,
0.1685,3.275128431951445,3.275128431951445,3.2018908691869163,0.0,0.0,0.0,3.2507159110299355,0.0,0.0,0.0,0.0,0.0,0.0,0.0,0.0,0.0,0.0,0.0,0.0,0.0,0.0,
0.1896,3.2752666327327824,3.2752666327327824,3.202032826747595,0.0,0.0,0.0,3.2508553640710534,0.0,0.0,0.0,0.0,0.0,0.0,0.0,0.0,0.0,0.0,0.0,0.0,0.0,0.0,
0.2107,3.275421148199263,3.275421148199263,3.2021915469014917,0.0,0.0,0.0,3.251011281100006,0.0,0.0,0.0,0.0,0.0,0.0,0.0,0.0,0.0,0.0,0.0,0.0,0.0,0.0,
0.2317,3.275591139705526,3.275591139705526,3.202366169620824,0.0,0.0,0.0,3.251182816343959,0.0,0.0,0.0,0.0,0.0,0.0,0.0,0.0,0.0,0.0,0.0,0.0,0.0,0.0,
0.2528,3.275778236723787,3.275778236723787,3.2025583704023477,0.0,0.0,0.0,3.251371614616641,0.0,0.0,0.0,0.0,0.0,0.0,0.0,0.0,0.0,0.0,0.0,0.0,0.0,0.0,
0.2739,3.275981680020553,3.275981680020553,3.2027673711381586,0.0,0.0,0.0,3.2515769103930885,0.0,0.0,0.0,0.0,0.0,0.0,0.0,0.0,0.0,0.0,0.0,0.0,0.0,0.0,
0.2949,3.27620040185274,3.27620040185274,3.2029920768066313,0.0,0.0,0.0,3.2517976268373707,0.0,0.0,0.0,0.0,0.0,0.0,0.0,0.0,0.0,0.0,0.0,0.0,0.0,0.0,
0.316,3.2764364988240233,3.2764364988240233,3.2032346434794983,0.0,0.0,0.0,3.2520358803758485,0.0,0.0,0.0,0.0,0.0,0.0,0.0,0.0,0.0,0.0,0.0,0.0,0.0,0.0,
0.3371,3.27668898278861,3.27668898278861,3.20349405827785,0.0,0.0,0.0,3.2522906746183566,0.0,0.0,0.0,0.0,0.0,0.0,0.0,0.0,0.0,0.0,0.0,0.0,0.0,0.0,
0.3581,3.276956556328131,3.276956556328131,3.2037689905081863,0.0,0.0,0.0,3.2525607010548163,0.0,0.0,0.0,0.0,0.0,0.0,0.0,0.0,0.0,0.0,0.0,0.0,0.0,0.0,
0.3792,3.2772417843574906,3.2772417843574906,3.204062078219143,0.0,0.0,0.0,3.2528485489780414,0.0,0.0,0.0,0.0,0.0,0.0,0.0,0.0,0.0,0.0,0.0,0.0,0.0,0.0,
0.4003,3.2775434492880215,3.2775434492880215,3.20437207313942,0.0,0.0,0.0,3.2531529905718215,0.0,0.0,0.0,0.0,0.0,0.0,0.0,0.0,0.0,0.0,0.0,0.0,0.0,0.0,
0.4213,3.2778600233232122,3.2778600233232122,3.2046974080783928,0.0,0.0,0.0,3.253472484908272,0.0,0.0,0.0,0.0,0.0,0.0,0.0,0.0,0.0,0.0,0.0,0.0,0.0,0.0,
0.4424,3.2781945411354734,3.2781945411354734,3.2050412047811263,0.0,0.0,0.0,3.2538100956840244,0.0,0.0,0.0,0.0,0.0,0.0,0.0,0.0,0.0,0.0,0.0,0.0,0.0,0.0,
0.4635,3.278545555037921,3.278545555037921,3.205401978816024,0.0,0.0,0.0,3.254164362963955,0.0,0.0,0.0,0.0,0.0,0.0,0.0,0.0,0.0,0.0,0.0,0.0,0.0,0.0,
0.4845,3.27891130602659,3.27891130602659,3.205777925521072,0.0,0.0,0.0,3.2545335125247505,0.0,0.0,0.0,0.0,0.0,0.0,0.0,0.0,0.0,0.0,0.0,0.0,0.0,0.0,
0.5056,3.279295300246894,3.279295300246894,3.206172652378852,0.0,0.0,0.0,3.25492108429088,0.0,0.0,0.0,0.0,0.0,0.0,0.0,0.0,0.0,0.0,0.0,0.0,0.0,0.0,
0.5267,3.2796958591323717,3.2796958591323717,3.20658443788143,0.0,0.0,0.0,3.255325385382058,0.0,0.0,0.0,0.0,0.0,0.0,0.0,0.0,0.0,0.0,0.0,0.0,0.0,0.0,
0.5477,3.280110991514566,3.280110991514566,3.2070112387700607,0.0,0.0,0.0,3.255744407266398,0.0,0.0,0.0,0.0,0.0,0.0,0.0,0.0,0.0,0.0,0.0,0.0,0.0,0.0,
0.5688,3.2805446769995052,3.2805446769995052,3.2074571506322194,0.0,0.0,0.0,3.25618216821041,0.0,0.0,0.0,0.0,0.0,0.0,0.0,0.0,0.0,0.0,0.0,0.0,0.0,0.0,
0.5899,3.2809950052327506,3.2809950052327506,3.2079202138174168,0.0,0.0,0.0,3.256636741427639,0.0,0.0,0.0,0.0,0.0,0.0,0.0,0.0,0.0,0.0,0.0,0.0,0.0,0.0,
0.6109,3.2814597517947695,3.2814597517947695,3.2083981451918424,0.0,0.0,0.0,3.2571058829271267,0.0,0.0,0.0,0.0,0.0,0.0,0.0,0.0,0.0,0.0,0.0,0.0,0.0,0.0,
0.632,3.2819433720157445,3.2819433720157445,3.208895531146302,0.0,0.0,0.0,3.2575940917259305,0.0,0.0,0.0,0.0,0.0,0.0,0.0,0.0,0.0,0.0,0.0,0.0,0.0,0.0,
0.6531,3.2824437227161214,3.2824437227161214,3.209410172669632,0.0,0.0,0.0,3.258099206033958,0.0,0.0,0.0,0.0,0.0,0.0,0.0,0.0,0.0,0.0,0.0,0.0,0.0,0.0,
0.6741,3.2829583450074646,3.2829583450074646,3.2099395453186363,0.0,0.0,0.0,3.2586187451111885,0.0,0.0,0.0,0.0,0.0,0.0,0.0,0.0,0.0,0.0,0.0,0.0,0.0,0.0,
0.6952,3.2834921724875854,3.2834921724875854,3.210488729323525,0.0,0.0,0.0,3.2591576914328986,0.0,0.0,0.0,0.0,0.0,0.0,0.0,0.0,0.0,0.0,0.0,0.0,0.0,0.0,
0.7163,3.2840428279842118,3.2840428279842118,3.2110552849396425,0.0,0.0,0.0,3.2597136469693555,0.0,0.0,0.0,0.0,0.0,0.0,0.0,0.0,0.0,0.0,0.0,0.0,0.0,0.0,
0.7373,3.2846076167888247,3.2846076167888247,3.2116364448213472,0.0,0.0,0.0,3.260283892799665,0.0,0.0,0.0,0.0,0.0,0.0,0.0,0.0,0.0,0.0,0.0,0.0,0.0,0.0,
0.7584,3.2851919535950875,3.2851919535950875,3.212237786418632,0.0,0.0,0.0,3.2608738978696024,0.0,0.0,0.0,0.0,0.0,0.0,0.0,0.0,0.0,0.0,0.0,0.0,0.0,0.0,
0.7795,3.285793225937969,3.285793225937969,3.212856627723187,0.0,0.0,0.0,3.261481026533042,0.0,0.0,0.0,0.0,0.0,0.0,0.0,0.0,0.0,0.0,0.0,0.0,0.0,0.0,
0.8005,3.2864085018019575,3.2864085018019575,3.2134899567318387,0.0,0.0,0.0,3.262102320111918,0.0,0.0,0.0,0.0,0.0,0.0,0.0,0.0,0.0,0.0,0.0,0.0,0.0,0.0,
0.8216,3.2870436800947975,3.2870436800947975,3.214143851846754,0.0,0.0,0.0,3.2627437373454495,0.0,0.0,0.0,0.0,0.0,0.0,0.0,0.0,0.0,0.0,0.0,0.0,0.0,0.0,
0.8426,3.287692780195467,3.287692780195467,3.214812162793224,0.0,0.0,0.0,3.263399241061386,0.0,0.0,0.0,0.0,0.0,0.0,0.0,0.0,0.0,0.0,0.0,0.0,0.0,0.0,
0.8637,3.2883620254417587,3.2883620254417587,3.21550130392606,0.0,0.0,0.0,3.2640751182698593,0.0,0.0,0.0,0.0,0.0,0.0,0.0,0.0,0.0,0.0,0.0,0.0,0.0,0.0,
0.8848,3.2890484080840254,3.2890484080840254,3.216208185756361,0.0,0.0,0.0,3.264768333974804,0.0,0.0,0.0,0.0,0.0,0.0,0.0,0.0,0.0,0.0,0.0,0.0,0.0,0.0,
0.9058,3.2897485970411564,3.2897485970411564,3.2169293842974844,0.0,0.0,0.0,3.265475526126599,0.0,0.0,0.0,0.0,0.0,0.0,0.0,0.0,0.0,0.0,0.0,0.0,0.0,0.0,
0.9269,3.2904693057204963,3.2904693057204963,3.21767182188099,0.0,0.0,0.0,3.266203477773994,0.0,0.0,0.0,0.0,0.0,0.0,0.0,0.0,0.0,0.0,0.0,0.0,0.0,0.0,
0.948,3.2912072869486937,3.2912072869486937,3.218432161880883,0.0,0.0,0.0,3.26694891192609,0.0,0.0,0.0,0.0,0.0,0.0,0.0,0.0,0.0,0.0,0.0,0.0,0.0,0.0,
0.969,3.291958967689721,3.291958967689721,3.2192067301524965,0.0,0.0,0.0,3.26770822184398,0.0,0.0,0.0,0.0,0.0,0.0,0.0,0.0,0.0,0.0,0.0,0.0,0.0,0.0,
0.9901,3.2927315553420917,3.2927315553420917,3.2200029617199357,0.0,0.0,0.0,3.268488690801373,0.0,0.0,0.0,0.0,0.0,0.0,0.0,0.0,0.0,0.0,0.0,0.0,0.0,0.0,
1.0112,3.2935215615023106,3.2935215615023106,3.220817270683682,0.0,0.0,0.0,3.269286797896101,0.0,0.0,0.0,0.0,0.0,0.0,0.0,0.0,0.0,0.0,0.0,0.0,0.0,0.0,
1.0322,3.2943251691709428,3.2943251691709428,3.2216457303574892,0.0,0.0,0.0,3.270098689566458,0.0,0.0,0.0,0.0,0.0,0.0,0.0,0.0,0.0,0.0,0.0,0.0,0.0,0.0,
1.0533,3.295150083973683,3.295150083973683,3.222496293562357,0.0,0.0,0.0,3.2709321538365743,0.0,0.0,0.0,0.0,0.0,0.0,0.0,0.0,0.0,0.0,0.0,0.0,0.0,0.0,
1.0744,3.29599257432556,3.29599257432556,3.223365122813732,0.0,0.0,0.0,3.271783423821617,0.0,0.0,0.0,0.0,0.0,0.0,0.0,0.0,0.0,0.0,0.0,0.0,0.0,0.0,
1.0954,3.296848577105152,3.296848577105152,3.224248036317512,0.0,0.0,0.0,3.2726483968426052,0.0,0.0,0.0,0.0,0.0,0.0,0.0,0.0,0.0,0.0,0.0,0.0,0.0,0.0,
1.1165,3.297726300724164,3.297726300724164,3.225153510196884,0.0,0.0,0.0,3.273535370548404,0.0,0.0,0.0,0.0,0.0,0.0,0.0,0.0,0.0,0.0,0.0,0.0,0.0,0.0,
1.1376,3.298621768316291,3.298621768316291,3.226077452890622,0.0,0.0,0.0,3.274440329841068,0.0,0.0,0.0,0.0,0.0,0.0,0.0,0.0,0.0,0.0,0.0,0.0,0.0,0.0,
1.1586,3.299530668325649,3.299530668325649,3.2270154247424516,0.0,0.0,0.0,3.2753589204645834,0.0,0.0,0.0,0.0,0.0,0.0,0.0,0.0,0.0,0.0,0.0,0.0,0.0,0.0,
1.1797,3.3004617168403794,3.3004617168403794,3.2279764310973356,0.0,0.0,0.0,3.2762999549260314,0.0,0.0,0.0,0.0,0.0,0.0,0.0,0.0,0.0,0.0,0.0,0.0,0.0,0.0,
1.2008,3.301410689460931,3.301410689460931,3.2289561236404567,0.0,0.0,0.0,3.277259167520773,0.0,0.0,0.0,0.0,0.0,0.0,0.0,0.0,0.0,0.0,0.0,0.0,0.0,0.0,
1.2218,3.3023730237262336,3.3023730237262336,3.2299498019045645,0.0,0.0,0.0,3.2782319497856776,0.0,0.0,0.0,0.0,0.0,0.0,0.0,0.0,0.0,0.0,0.0,0.0,0.0,0.0,
1.2429,3.3033579486328195,3.3033579486328195,3.2309670068052627,0.0,0.0,0.0,3.279227634690301,0.0,0.0,0.0,0.0,0.0,0.0,0.0,0.0,0.0,0.0,0.0,0.0,0.0,0.0,
1.264,3.3043609898396356,3.3043609898396356,3.232003130405914,0.0,0.0,0.0,3.280241703361728,0.0,0.0,0.0,0.0,0.0,0.0,0.0,0.0,0.0,0.0,0.0,0.0,0.0,0.0,
1.285,3.305377331347046,3.305377331347046,3.233053208278551,0.0,0.0,0.0,3.2812692903242144,0.0,0.0,0.0,0.0,0.0,0.0,0.0,0.0,0.0,0.0,0.0,0.0,0.0,0.0,
1.3061,3.3064167206438473,3.3064167206438473,3.2341273237037402,0.0,0.0,0.0,3.282320254997145,0.0,0.0,0.0,0.0,0.0,0.0,0.0,0.0,0.0,0.0,0.0,0.0,0.0,0.0,
1.3272,3.3074744308786865,3.3074744308786865,3.2352206060570508,0.0,0.0,0.0,3.2833898226048084,0.0,0.0,0.0,0.0,0.0,0.0,0.0,0.0,0.0,0.0,0.0,0.0,0.0,0.0,
1.3482,3.3085453897122084,3.3085453897122084,3.2363278235919304,0.0,0.0,0.0,3.284472867672116,0.0,0.0,0.0,0.0,0.0,0.0,0.0,0.0,0.0,0.0,0.0,0.0,0.0,0.0,
1.3693,3.3096398690728446,3.3096398690728446,3.237459609211097,0.0,0.0,0.0,3.285579782452262,0.0,0.0,0.0,0.0,0.0,0.0,0.0,0.0,0.0,0.0,0.0,0.0,0.0,0.0,
1.3904,3.3107528868647407,3.3107528868647407,3.238610826332032,0.0,0.0,0.0,3.2867055333538375,0.0,0.0,0.0,0.0,0.0,0.0,0.0,0.0,0.0,0.0,0.0,0.0,0.0,0.0,
1.4114,3.3118791114348087,3.3118791114348087,3.2397759723156105,0.0,0.0,0.0,3.287844731728409,0.0,0.0,0.0,0.0,0.0,0.0,0.0,0.0,0.0,0.0,0.0,0.0,0.0,0.0,
1.4325,3.3130293454741295,3.3130293454741295,3.2409662374260773,0.0,0.0,0.0,3.289008309458112,0.0,0.0,0.0,0.0,0.0,0.0,0.0,0.0,0.0,0.0,0.0,0.0,0.0,0.0,
1.4536,3.3141983487377136,3.3141983487377136,3.242176215640446,0.0,0.0,0.0,3.2901909710386246,0.0,0.0,0.0,0.0,0.0,0.0,0.0,0.0,0.0,0.0,0.0,0.0,0.0,0.0,
1.4746,3.315380527106016,3.315380527106016,3.2434001296287636,0.0,0.0,0.0,3.291387061280265,0.0,0.0,0.0,0.0,0.0,0.0,0.0,0.0,0.0,0.0,0.0,0.0,0.0,0.0,
1.4957,3.3165872207449767,3.3165872207449767,3.2446497352591233,0.0,0.0,0.0,3.292608058916359,0.0,0.0,0.0,0.0,0.0,0.0,0.0,0.0,0.0,0.0,0.0,0.0,0.0,0.0,
1.5168,3.317812928179798,3.317812928179798,3.245919353365679,0.0,0.0,0.0,3.2938484032417583,0.0,0.0,0.0,0.0,0.0,0.0,0.0,0.0,0.0,0.0,0.0,0.0,0.0,0.0,
1.5378,3.3190517894870055,3.3190517894870055,3.2472029278957923,0.0,0.0,0.0,3.295102168956601,0.0,0.0,0.0,0.0,0.0,0.0,0.0,0.0,0.0,0.0,0.0,0.0,0.0,0.0,
1.5589,3.32031568942306,3.32031568942306,3.2485127890894048,0.0,0.0,0.0,3.2963813893118417,0.0,0.0,0.0,0.0,0.0,0.0,0.0,0.0,0.0,0.0,0.0,0.0,0.0,0.0,
1.58,3.3215988620208146,3.3215988620208146,3.2498429807067266,0.0,0.0,0.0,3.2976802349161183,0.0,0.0,0.0,0.0,0.0,0.0,0.0,0.0,0.0,0.0,0.0,0.0,0.0,0.0,
1.601,3.3228951780240967,3.3228951780240967,3.251187163697188,0.0,0.0,0.0,3.2989925065817935,0.0,0.0,0.0,0.0,0.0,0.0,0.0,0.0,0.0,0.0,0.0,0.0,0.0,0.0,
1.6221,3.3242170743144097,3.3242170743144097,3.2525582519908594,0.0,0.0,0.0,3.3003308002065594,0.0,0.0,0.0,0.0,0.0,0.0,0.0,0.0,0.0,0.0,0.0,0.0,0.0,0.0,
1.6432,3.3255585169816104,3.3255585169816104,3.2539500081048223,0.0,0.0,0.0,3.3016890140226813,0.0,0.0,0.0,0.0,0.0,0.0,0.0,0.0,0.0,0.0,0.0,0.0,0.0,0.0,
1.6642,3.3269131037095225,3.3269131037095225,3.2553558054612792,0.0,0.0,0.0,3.303060670960108,0.0,0.0,0.0,0.0,0.0,0.0,0.0,0.0,0.0,0.0,0.0,0.0,0.0,0.0,
1.6853,3.3282938314750714,3.3282938314750714,3.2567891515759326,0.0,0.0,0.0,3.304458938175358,0.0,0.0,0.0,0.0,0.0,0.0,0.0,0.0,0.0,0.0,0.0,0.0,0.0,0.0,
1.7064,3.3296943947793474,3.3296943947793474,3.258243523305217,0.0,0.0,0.0,3.305877437621304,0.0,0.0,0.0,0.0,0.0,0.0,0.0,0.0,0.0,0.0,0.0,0.0,0.0,0.0,
1.7274,3.331108114312979,3.331108114312979,3.2597120017493464,0.0,0.0,0.0,3.3073094101251015,0.0,0.0,0.0,0.0,0.0,0.0,0.0,0.0,0.0,0.0,0.0,0.0,0.0,0.0,
1.7485,3.3325485555722913,3.3325485555722913,3.2612086985114908,0.0,0.0,0.0,3.308768603218691,0.0,0.0,0.0,0.0,0.0,0.0,0.0,0.0,0.0,0.0,0.0,0.0,0.0,0.0,
1.7696,3.33400913762154,3.33400913762154,3.262726800110652,0.0,0.0,0.0,3.310248358451244,0.0,0.0,0.0,0.0,0.0,0.0,0.0,0.0,0.0,0.0,0.0,0.0,0.0,0.0,
1.7906,3.335482900010857,3.335482900010857,3.2642590902525304,0.0,0.0,0.0,3.3117416300914146,0.0,0.0,0.0,0.0,0.0,0.0,0.0,0.0,0.0,0.0,0.0,0.0,0.0,0.0,
1.8117,3.3369839856530965,3.3369839856530965,3.2658202957675613,0.0,0.0,0.0,3.3132627556912517,0.0,0.0,0.0,0.0,0.0,0.0,0.0,0.0,0.0,0.0,0.0,0.0,0.0,0.0,
1.8328,3.338505534117504,3.338505534117504,3.267403307889677,0.0,0.0,0.0,3.3148047920415618,0.0,0.0,0.0,0.0,0.0,0.0,0.0,0.0,0.0,0.0,0.0,0.0,0.0,0.0,
1.8538,3.340040299443683,3.340040299443683,3.269000607566078,0.0,0.0,0.0,3.316360402151148,0.0,0.0,0.0,0.0,0.0,0.0,0.0,0.0,0.0,0.0,0.0,0.0,0.0,0.0,
1.8749,3.3416030113520114,3.3416030113520114,3.2706275486672083,0.0,0.0,0.0,3.3179445237904104,0.0,0.0,0.0,0.0,0.0,0.0,0.0,0.0,0.0,0.0,0.0,0.0,0.0,0.0,
1.896,3.3431865256401703,3.3431865256401703,3.27227672191041,0.0,0.0,0.0,3.3195499243969167,0.0,0.0,0.0,0.0,0.0,0.0,0.0,0.0,0.0,0.0,0.0,0.0,0.0,0.0,
1.917,3.3447833062348837,3.3447833062348837,3.2739402998148055,0.0,0.0,0.0,3.321168970761524,0.0,0.0,0.0,0.0,0.0,0.0,0.0,0.0,0.0,0.0,0.0,0.0,0.0,0.0,
1.9381,3.34640867957186,3.34640867957186,3.275634275813915,0.0,0.0,0.0,3.322817211652545,0.0,0.0,0.0,0.0,0.0,0.0,0.0,0.0,0.0,0.0,0.0,0.0,0.0,0.0,
1.9592,3.348055213172984,3.348055213172984,3.2773509345796232,0.0,0.0,0.0,3.3244871203085307,0.0,0.0,0.0,0.0,0.0,0.0,0.0,0.0,0.0,0.0,0.0,0.0,0.0,0.0,
1.9802,3.3497150760078296,3.3497150760078296,3.2790821342119303,0.0,0.0,0.0,3.326170762075863,0.0,0.0,0.0,0.0,0.0,0.0,0.0,0.0,0.0,0.0,0.0,0.0,0.0,0.0,
2.0013,3.351404201675922,3.351404201675922,3.280844520982326,0.0,0.0,0.0,3.32788430811139,0.0,0.0,0.0,0.0,0.0,0.0,0.0,0.0,0.0,0.0,0.0,0.0,0.0,0.0,
2.0224,3.353114864682155,3.353114864682155,3.2826300676759783,0.0,0.0,0.0,3.3296199323467626,0.0,0.0,0.0,0.0,0.0,0.0,0.0,0.0,0.0,0.0,0.0,0.0,0.0,0.0,
2.0434,3.3548389339417617,3.3548389339417617,3.2844303116445843,0.0,0.0,0.0,3.331369393176036,0.0,0.0,0.0,0.0,0.0,0.0,0.0,0.0,0.0,0.0,0.0,0.0,0.0,0.0,
2.0645,3.356592961233691,3.356592961233691,3.286262566069127,0.0,0.0,0.0,3.333149496178836,0.0,0.0,0.0,0.0,0.0,0.0,0.0,0.0,0.0,0.0,0.0,0.0,0.0,0.0,
2.0856,3.3583689230572715,3.3583689230572715,3.2881184856786523,0.0,0.0,0.0,3.334952110597732,0.0,0.0,0.0,0.0,0.0,0.0,0.0,0.0,0.0,0.0,0.0,0.0,0.0,0.0,
2.1066,3.3601583829117683,3.3601583829117683,3.2899892803907966,0.0,0.0,0.0,3.3367686820714444,0.0,0.0,0.0,0.0,0.0,0.0,0.0,0.0,0.0,0.0,0.0,0.0,0.0,0.0,
2.1277,3.3619785223667265,3.3619785223667265,3.291892945213499,0.0,0.0,0.0,3.338616663315651,0.0,0.0,0.0,0.0,0.0,0.0,0.0,0.0,0.0,0.0,0.0,0.0,0.0,0.0,
2.1488,3.363821014668809,3.363821014668809,3.293820810304803,0.0,0.0,0.0,3.3404876132141403,0.0,0.0,0.0,0.0,0.0,0.0,0.0,0.0,0.0,0.0,0.0,0.0,0.0,0.0,
2.1698,3.365677112263035,3.365677112263035,3.295763751086277,0.0,0.0,0.0,3.342372658537449,0.0,0.0,0.0,0.0,0.0,0.0,0.0,0.0,0.0,0.0,0.0,0.0,0.0,0.0,
2.1909,3.367564638746657,3.367564638746657,3.297740460210163,0.0,0.0,0.0,3.3442899125678256,0.0,0.0,0.0,0.0,0.0,0.0,0.0,0.0,0.0,0.0,0.0,0.0,0.0,0.0,
2.212,3.3694749585963937,3.3694749585963937,3.2997419363845397,0.0,0.0,0.0,3.3462306178591086,0.0,0.0,0.0,0.0,0.0,0.0,0.0,0.0,0.0,0.0,0.0,0.0,0.0,0.0,
2.233,3.3713990072747473,3.3713990072747473,3.301758713075256,0.0,0.0,0.0,3.348185575874917,0.0,0.0,0.0,0.0,0.0,0.0,0.0,0.0,0.0,0.0,0.0,0.0,0.0,0.0,
2.2541,3.3733552633029538,3.3733552633029538,3.303810197355251,0.0,0.0,0.0,3.3501735746537196,0.0,0.0,0.0,0.0,0.0,0.0,0.0,0.0,0.0,0.0,0.0,0.0,0.0,0.0,
2.2752,3.3753347765874806,3.3753347765874806,3.305887049219483,0.0,0.0,0.0,3.3521855341314812,0.0,0.0,0.0,0.0,0.0,0.0,0.0,0.0,0.0,0.0,0.0,0.0,0.0,0.0,
2.2962,3.377328159375894,3.377328159375894,3.3079794522976655,0.0,0.0,0.0,3.354211923683151,0.0,0.0,0.0,0.0,0.0,0.0,0.0,0.0,0.0,0.0,0.0,0.0,0.0,0.0,
2.3173,3.379354558704596,3.379354558704596,3.3101075458838123,0.0,0.0,0.0,3.3562722210976683,0.0,0.0,0.0,0.0,0.0,0.0,0.0,0.0,0.0,0.0,0.0,0.0,0.0,0.0,
2.3384,3.381404703812958,3.381404703812958,3.3122616435908276,0.0,0.0,0.0,3.358357017072248,0.0,0.0,0.0,0.0,0.0,0.0,0.0,0.0,0.0,0.0,0.0,0.0,0.0,0.0,
2.3594,3.3834688771816968,3.3834688771816968,3.314431570885814,0.0,0.0,0.0,3.360456441749736,0.0,0.0,0.0,0.0,0.0,0.0,0.0,0.0,0.0,0.0,0.0,0.0,0.0,0.0,
2.3805,3.385566908687376,3.385566908687376,3.3166382181799587,0.0,0.0,0.0,3.3625906785182367,0.0,0.0,0.0,0.0,0.0,0.0,0.0,0.0,0.0,0.0,0.0,0.0,0.0,0.0,
2.4016,3.387689200494184,3.387689200494184,3.3188715446058494,0.0,0.0,0.0,3.364749981864739,0.0,0.0,0.0,0.0,0.0,0.0,0.0,0.0,0.0,0.0,0.0,0.0,0.0,0.0,
2.4226,3.389825698428213,3.389825698428213,3.3211210086682947,0.0,0.0,0.0,3.366924135174907,0.0,0.0,0.0,0.0,0.0,0.0,0.0,0.0,0.0,0.0,0.0,0.0,0.0,0.0,
2.4437,3.391996930306927,3.391996930306927,3.3234082719663394,0.0,0.0,0.0,3.3691340441933977,0.0,0.0,0.0,0.0,0.0,0.0,0.0,0.0,0.0,0.0,0.0,0.0,0.0,0.0,
2.4647,3.394182497952409,3.394182497952409,3.325711895654647,0.0,0.0,0.0,3.371358963853155,0.0,0.0,0.0,0.0,0.0,0.0,0.0,0.0,0.0,0.0,0.0,0.0,0.0,0.0,
2.4858,3.396403402891119,3.396403402891119,3.32805406680718,0.0,0.0,0.0,3.373620290863139,0.0,0.0,0.0,0.0,0.0,0.0,0.0,0.0,0.0,0.0,0.0,0.0,0.0,0.0,
2.5069,3.398649487207268,3.398649487207268,3.3304241347094856,0.0,0.0,0.0,3.3759077030413405,0.0,0.0,0.0,0.0,0.0,0.0,0.0,0.0,0.0,0.0,0.0,0.0,0.0,0.0,
2.5279,3.40091011954665,3.40091011954665,3.332810925532389,0.0,0.0,0.0,3.378210388208563,0.0,0.0,0.0,0.0,0.0,0.0,0.0,0.0,0.0,0.0,0.0,0.0,0.0,0.0,
2.549,3.403207026385679,3.403207026385679,3.335237433828028,0.0,0.0,0.0,3.3805504955331287,0.0,0.0,0.0,0.0,0.0,0.0,0.0,0.0,0.0,0.0,0.0,0.0,0.0,0.0,
2.5701,3.4055297040052745,3.4055297040052745,3.337692630512992,0.0,0.0,0.0,3.382917346174514,0.0,0.0,0.0,0.0,0.0,0.0,0.0,0.0,0.0,0.0,0.0,0.0,0.0,0.0,
2.5911,3.4078671642523677,3.4078671642523677,3.3401649487889626,0.0,0.0,0.0,3.3852997590978995,0.0,0.0,0.0,0.0,0.0,0.0,0.0,0.0,0.0,0.0,0.0,0.0,0.0,0.0,
2.6122,3.4102418759569293,3.4102418759569293,3.3426782143410243,0.0,0.0,0.0,3.387720655418294,0.0,0.0,0.0,0.0,0.0,0.0,0.0,0.0,0.0,0.0,0.0,0.0,0.0,0.0,
2.6333,3.4126429819047663,3.4126429819047663,3.3452210098114312,0.0,0.0,0.0,3.3901689912069877,0.0,0.0,0.0,0.0,0.0,0.0,0.0,0.0,0.0,0.0,0.0,0.0,0.0,0.0,
2.6543,3.415059128862856,3.415059128862856,3.3477813646249226,0.0,0.0,0.0,3.3926332074502112,0.0,0.0,0.0,0.0,0.0,0.0,0.0,0.0,0.0,0.0,0.0,0.0,0.0,0.0,
2.6754,3.417513546382492,3.417513546382492,3.3503839607980432,0.0,0.0,0.0,3.3951370178543425,0.0,0.0,0.0,0.0,0.0,0.0,0.0,0.0,0.0,0.0,0.0,0.0,0.0,0.0,
2.6965,3.41999501566767,3.41999501566767,3.3530169822268436,0.0,0.0,0.0,3.397669004520728,0.0,0.0,0.0,0.0,0.0,0.0,0.0,0.0,0.0,0.0,0.0,0.0,0.0,0.0,
2.7175,3.422491809693483,3.422491809693483,3.3556680431160957,0.0,0.0,0.0,3.4002172208343535,0.0,0.0,0.0,0.0,0.0,0.0,0.0,0.0,0.0,0.0,0.0,0.0,0.0,0.0,
2.7386,3.42502793812696,3.42502793812696,3.3583627086846985,0.0,0.0,0.0,3.4028061949795396,0.0,0.0,0.0,0.0,0.0,0.0,0.0,0.0,0.0,0.0,0.0,0.0,0.0,0.0,
