energies(eV),real_xx,real_yy,real_zz,real_xy,real_yz,real_xz,real_ave,imag_xx,imag_yy,imag_zz,imag_xy,imag_yz,imag_xz,imag_ave,absorption_xx,absorption_yy,absorption_zz,absorption_xy,absorption_yz,absorption_xz,absorption_ave,band_gap
0.0,6.309610772889635,6.289970750235171,6.010881458491022,0.0,0.0,0.019660084446172572,6.20348766053861,0.0,0.0,0.0,0.0,0.0,0.0,0.0,0.0,0.0,0.0,0.0,0.0,0.0,0.0,0.8580000000000001
0.0176,6.309802051579763,6.29015229768344,6.011046956706213,0.0,0.0,0.01965895120075312,6.203667101989805,0.0,0.0,0.0,0.0,0.0,0.0,0.0,0.0,0.0,0.0,0.0,0.0,0.0,0.0,
0.0352,6.3103760683639205,6.2906970984461585,6.011543599077636,0.0,0.0,0.019655546978884494,6.204205588629239,0.0,0.0,0.0,0.0,0.0,0.0,0.0,0.0,0.0,0.0,0.0,0.0,0.0,0.0,
0.0528,6.311333365869937,6.291605628171129,6.0123718291631745,0.0,0.0,0.01964985830266717,6.205103607734746,0.0,0.0,0.0,0.0,0.0,0.0,0.0,0.0,0.0,0.0,0.0,0.0,0.0,0.0,
0.0704,6.312674850101367,6.292878680921407,6.013532387496716,0.0,0.0,0.019641862638546132,6.20636197283983,0.0,0.0,0.0,0.0,0.0,0.0,0.0,0.0,0.0,0.0,0.0,0.0,0.0,0.0,
0.088,6.314401792882395,6.294517371156355,6.015026313500493,0.0,0.0,0.019631528291188548,6.207981825846414,0.0,0.0,0.0,0.0,0.0,0.0,0.0,0.0,0.0,0.0,0.0,0.0,0.0,0.0,
0.1056,6.316515835298193,6.2965231365191965,6.016854948176238,0.0,0.0,0.019618814253824626,6.209964639997875,0.0,0.0,0.0,0.0,0.0,0.0,0.0,0.0,0.0,0.0,0.0,0.0,0.0,0.0,
0.1232,6.31901899214957,6.298897741443835,6.0190199375882845,0.0,0.0,0.019603670013952267,6.21231222372723,0.0,0.0,0.0,0.0,0.0,0.0,0.0,0.0,0.0,0.0,0.0,0.0,0.0,0.0,
0.1408,6.3219136574444885,6.301643281598766,6.021523237156262,0.0,0.0,0.01958603531296873,6.215026725399839,0.0,0.0,0.0,0.0,0.0,0.0,0.0,0.0,0.0,0.0,0.0,0.0,0.0,0.0,
0.1585,6.325222430565668,6.304780982121591,6.024384253034645,0.0,0.0,0.019565717645787184,6.218129221907302,0.0,0.0,0.0,0.0,0.0,0.0,0.0,0.0,0.0,0.0,0.0,0.0,0.0,0.0,
0.1761,6.3289111136267255,6.30827817784698,6.0275732609284995,0.0,0.0,0.019542865512327586,6.221587517467402,0.0,0.0,0.0,0.0,0.0,0.0,0.0,0.0,0.0,0.0,0.0,0.0,0.0,0.0,
0.1937,6.333000855012701,6.312154659471617,6.031108374459905,0.0,0.0,0.019517279979374597,6.2254212963147415,0.0,0.0,0.0,0.0,0.0,0.0,0.0,0.0,0.0,0.0,0.0,0.0,0.0,0.0,
0.2113,6.337495644743746,6.316413911701131,6.034992848378965,0.0,0.0,0.019488858343217175,6.229634134941281,0.0,0.0,0.0,0.0,0.0,0.0,0.0,0.0,0.0,0.0,0.0,0.0,0.0,0.0,
0.2289,6.342399896366328,6.32105978622872,6.039230281377416,0.0,0.0,0.01945748618201467,6.234229987990822,0.0,0.0,0.0,0.0,0.0,0.0,0.0,0.0,0.0,0.0,0.0,0.0,0.0,0.0,
0.2465,6.347718459506552,6.326096511827674,6.043824625867311,0.0,0.0,0.01942303678718097,6.23921319906718,0.0,0.0,0.0,0.0,0.0,0.0,0.0,0.0,0.0,0.0,0.0,0.0,0.0,0.0,
0.2641,6.353456633801531,6.33152870553469,6.048780198824764,0.0,0.0,0.019385370527354805,6.244588512720328,0.0,0.0,0.0,0.0,0.0,0.0,0.0,0.0,0.0,0.0,0.0,0.0,0.0,0.0,
0.2817,6.359620184288355,6.3373613849826596,6.05410169375733,0.0,0.0,0.019344334139884446,6.250361087676114,0.0,0.0,0.0,0.0,0.0,0.0,0.0,0.0,0.0,0.0,0.0,0.0,0.0,0.0,
0.2993,6.366215358338603,6.343599981948259,6.059794193861156,0.0,0.0,0.019299759944091603,6.256536511382673,0.0,0.0,0.0,0.0,0.0,0.0,0.0,0.0,0.0,0.0,0.0,0.0,0.0,0.0,
0.3169,6.373248904237865,6.350250357186811,6.065863186441655,0.0,0.0,0.01925146496985269,6.2631208159554435,0.0,0.0,0.0,0.0,0.0,0.0,0.0,0.0,0.0,0.0,0.0,0.0,0.0,0.0,
0.3345,6.380728091519926,6.357318816635532,6.072314578679106,0.0,0.0,0.019199249994224867,6.270120495611521,0.0,0.0,0.0,0.0,0.0,0.0,0.0,0.0,0.0,0.0,0.0,0.0,0.0,0.0,
0.3521,6.388660733178772,6.3648121290745925,6.079154714830214,0.0,0.0,0.019142898477942368,6.277542525694526,0.0,0.0,0.0,0.0,0.0,0.0,0.0,0.0,0.0,0.0,0.0,0.0,0.0,0.0,
0.3697,6.397055209893962,6.372737545344931,6.0863903949669265,0.0,0.0,0.019082175392600036,6.28539438340194,0.0,0.0,0.0,0.0,0.0,0.0,0.0,0.0,0.0,0.0,0.0,0.0,0.0,0.0,
0.3873,6.405920496421342,6.3811028192335195,6.09402889536328,0.0,0.0,0.019016825928210718,6.293684070339381,0.0,0.0,0.0,0.0,0.0,0.0,0.0,0.0,0.0,0.0,0.0,0.0,0.0,0.0,
0.4049,6.415266190316366,6.389916230146526,6.1020779906552045,0.0,0.0,0.018946574069552188,6.302420137039365,0.0,0.0,0.0,0.0,0.0,0.0,0.0,0.0,0.0,0.0,0.0,0.0,0.0,0.0,
0.4225,6.425102543177105,6.399186607705465,6.110545977909797,0.0,0.0,0.018871121028291492,6.311611709597456,0.0,0.0,0.0,0.0,0.0,0.0,0.0,0.0,0.0,0.0,0.0,0.0,0.0,0.0,
0.4401,6.4354404946134105,6.408923358414489,6.119441702756339,0.0,0.0,0.018790143516260415,6.321268518594747,0.0,0.0,0.0,0.0,0.0,0.0,0.0,0.0,0.0,0.0,0.0,0.0,0.0,0.0,
0.4578,6.446354853585795,6.419195904833034,6.128828883352913,0.0,0.0,0.018702780877027605,6.3314598805905815,0.0,0.0,0.0,0.0,0.0,0.0,0.0,0.0,0.0,0.0,0.0,0.0,0.0,0.0,
0.4754,6.457734784814195,6.4298988747519354,6.138611529462618,0.0,0.0,0.01860964019275751,6.3420817296762495,0.0,0.0,0.0,0.0,0.0,0.0,0.0,0.0,0.0,0.0,0.0,0.0,0.0,0.0,
0.493,6.469653724731909,6.4411002662542005,6.1488520998622915,0.0,0.0,0.01850983574733794,6.353202030282801,0.0,0.0,0.0,0.0,0.0,0.0,0.0,0.0,0.0,0.0,0.0,0.0,0.0,0.0,
0.5106,6.48212577282657,6.452812111738673,6.159561947229659,0.0,0.0,0.01840292499043924,6.364833277264967,0.0,0.0,0.0,0.0,0.0,0.0,0.0,0.0,0.0,0.0,0.0,0.0,0.0,0.0,
0.5282,6.495165936651567,6.465047191534601,6.170753141203506,0.0,0.0,0.018288429184297163,6.376988756463224,0.0,0.0,0.0,0.0,0.0,0.0,0.0,0.0,0.0,0.0,0.0,0.0,0.0,0.0,
0.5458,6.508790188017783,6.477819077153355,6.182438511164983,0.0,0.0,0.018165830293434937,6.389682592112041,0.0,0.0,0.0,0.0,0.0,0.0,0.0,0.0,0.0,0.0,0.0,0.0,0.0,0.0,
0.5634,6.5230155241829175,6.491142178209363,6.194631692731819,0.0,0.0,0.018034567545213223,6.4029297983747,0.0,0.0,0.0,0.0,0.0,0.0,0.0,0.0,0.0,0.0,0.0,0.0,0.0,0.0,
0.581,6.537860034528416,6.505031793348659,6.207347178318744,0.0,0.0,0.017894033622542077,6.4167463353986065,0.0,0.0,0.0,0.0,0.0,0.0,0.0,0.0,0.0,0.0,0.0,0.0,0.0,0.0,
0.5986,6.553342973272933,6.519504165562429,6.2206003721579615,0.0,0.0,0.017743570444825763,6.431149170331108,0.0,0.0,0.0,0.0,0.0,0.0,0.0,0.0,0.0,0.0,0.0,0.0,0.0,0.0,
0.6162,6.56948483883738,6.5345765423054765,6.234407650220609,0.0,0.0,0.017582464487147294,6.446156343787822,0.0,0.0,0.0,0.0,0.0,0.0,0.0,0.0,0.0,0.0,0.0,0.0,0.0,0.0,
0.6338,6.586307460552376,6.550267240888856,6.248786425532194,0.0,0.0,0.017409941580702287,6.4617870423244765,0.0,0.0,0.0,0.0,0.0,0.0,0.0,0.0,0.0,0.0,0.0,0.0,0.0,0.0,
0.6514,6.603834093484634,6.566595719670625,6.263755219434878,0.0,0.0,0.017225161129387344,6.478061677530046,0.0,0.0,0.0,0.0,0.0,0.0,0.0,0.0,0.0,0.0,0.0,0.0,0.0,0.0,
0.669,6.622089522256859,6.583582655631227,6.27933373941707,0.0,0.0,0.01702720966806306,6.495001972435052,0.0,0.0,0.0,0.0,0.0,0.0,0.0,0.0,0.0,0.0,0.0,0.0,0.0,0.0,
0.6866,6.64110017484878,6.6012500289914176,6.295542964208677,0.0,0.0,0.0168150936770887,6.512631056016292,0.0,0.0,0.0,0.0,0.0,0.0,0.0,0.0,0.0,0.0,0.0,0.0,0.0,0.0,
0.7042,6.660894247494376,6.619621215610305,6.31240523692818,0.0,0.0,0.016587731555011306,6.530973566677621,0.0,0.0,0.0,0.0,0.0,0.0,0.0,0.0,0.0,0.0,0.0,0.0,0.0,0.0,
0.7218,6.681501841939983,6.63872108799485,6.329944367168493,0.0,0.0,0.016343944636435043,6.550055765701109,0.0,0.0,0.0,0.0,0.0,0.0,0.0,0.0,0.0,0.0,0.0,0.0,0.0,0.0,
0.7394,6.702955116496832,6.658576125855231,6.348185743026106,0.0,0.0,0.01608244712470592,6.569905661792723,0.0,0.0,0.0,0.0,0.0,0.0,0.0,0.0,0.0,0.0,0.0,0.0,0.0,0.0,
0.757,6.725288452520005,6.679214537262673,6.367156454209451,0.0,0.0,0.015801834788625586,6.590553147997376,0.0,0.0,0.0,0.0,0.0,0.0,0.0,0.0,0.0,0.0,0.0,0.0,0.0,0.0,
0.7747,6.748673434939417,6.70079066146022,6.386999748409157,0.0,0.0,0.015498798393595739,6.612154614936265,0.0,0.0,0.0,0.0,0.0,0.0,0.0,0.0,0.0,0.0,0.0,0.0,0.0,0.0,
0.7923,6.772885419455442,6.723092935335685,6.407522473346582,0.0,0.0,0.015175072808830316,6.634500276045903,0.0,0.0,0.0,0.0,0.0,0.0,0.0,0.0,0.0,0.0,0.0,0.0,0.0,0.0,
0.8099,6.7980961334101035,6.74627517506331,6.428867632412727,0.0,0.0,0.014827162686830887,6.657746313628714,0.0,0.0,0.0,0.0,0.0,0.0,0.0,0.0,0.0,0.0,0.0,0.0,0.0,0.0,
0.8275,6.82435091287763,6.770373984956242,6.451070637363152,0.0,0.0,0.014453044474497231,6.681931845065674,0.0,0.0,0.0,0.0,0.0,0.0,0.0,0.0,0.0,0.0,0.0,0.0,0.0,0.0,
0.8451,6.851698457730637,6.795428511579931,6.474169436530604,0.0,0.0,0.014050493773479264,6.707098801947057,0.0,0.0,0.0,0.0,0.0,0.0,0.0,0.0,0.0,0.0,0.0,0.0,0.0,0.0,
0.8627,6.880191140874894,6.821480660235781,6.498204738969058,0.0,0.0,0.013617061732506878,6.733292180026577,0.0,0.0,0.0,0.0,0.0,0.0,0.0,0.0,0.0,0.0,0.0,0.0,0.0,0.0,
0.8803,6.909885353350486,6.848575334778571,6.52322026364941,0.0,0.0,0.013150048155447843,6.76056031725949,0.0,0.0,0.0,0.0,0.0,0.0,0.0,0.0,0.0,0.0,0.0,0.0,0.0,0.0,
0.8979,6.940841890279894,6.876760703770903,6.549263017055729,0.0,0.0,0.012646470793717772,6.788955203702176,0.0,0.0,0.0,0.0,0.0,0.0,0.0,0.0,0.0,0.0,0.0,0.0,0.0,0.0,
0.9155,6.973126383460117,6.906088496431744,6.5763836030601315,0.0,0.0,0.012103030192690727,6.818532827650664,0.0,0.0,0.0,0.0,0.0,0.0,0.0,0.0,0.0,0.0,0.0,0.0,0.0,0.0,
0.9331,7.006809787366128,6.936614332371847,6.60463656957806,0.0,0.0,0.011516069341783433,6.849353563105345,0.0,0.0,0.0,0.0,0.0,0.0,0.0,0.0,0.0,0.0,0.0,0.0,0.0,0.0,
0.9507,7.041968926493637,6.968398089740723,6.634080797248814,0.0,0.0,0.010881527231888993,6.8814826044943915,0.0,0.0,0.0,0.0,0.0,0.0,0.0,0.0,0.0,0.0,0.0,0.0,0.0,0.0,
0.9683,7.078687113359763,7.001504317155897,6.664779936268876,0.0,0.0,0.010194885245436922,6.914990455594846,0.0,0.0,0.0,0.0,0.0,0.0,0.0,0.0,0.0,0.0,0.0,0.0,0.0,0.0,
0.9859,7.117054848152252,7.036002695672386,6.696802898562652,0.0,0.0,0.00945110508542543,6.949953480795763,0.0,0.0,0.0,0.0,0.0,0.0,0.0,0.0,0.0,0.0,0.0,0.0,0.0,0.0,
1.0035,7.157170613042369,7.071968558105903,6.730224413741644,0.0,0.0,0.008644556679886266,6.9864545282966395,0.0,0.0,0.0,0.0,0.0,0.0,0.0,0.0,0.0,0.0,0.0,0.0,0.0,0.0,
1.0211,7.199141776631596,7.109483474286623,6.765125658833556,0.0,0.0,0.007768934163973785,7.024583636583924,0.0,0.0,0.0,0.0,0.0,0.0,0.0,0.0,0.0,0.0,0.0,0.0,0.0,0.0,
1.0387,7.243085626996964,7.148635912337197,6.801594973610056,0.0,0.0,0.006817157625809661,7.064438837648073,0.0,0.0,0.0,0.0,0.0,0.0,0.0,0.0,0.0,0.0,0.0,0.0,0.0,0.0,
1.0563,7.289130555472268,7.189521987896056,6.839728675592548,0.0,0.0,0.005781257781654137,7.106127072986958,0.0,0.0,0.0,0.0,0.0,0.0,0.0,0.0,0.0,0.0,0.0,0.0,0.0,0.0,
1.074,7.337698469015894,7.232494532374343,6.8798639858066855,0.0,0.0,0.004645540343928469,7.1500189957323075,0.0,0.0,0.0,0.0,0.0,0.0,0.0,0.0,0.0,0.0,0.0,0.0,0.0,0.0,
1.0916,7.388396246465602,7.277182633740626,6.921663179129827,0.0,0.0,0.0034126057085130572,7.195747353112019,0.0,0.0,0.0,0.0,0.0,0.0,0.0,0.0,0.0,0.0,0.0,0.0,0.0,0.0,
1.1092,7.441662614156309,7.323948473166753,6.965474354584662,0.0,0.0,0.002064745057423757,7.243695147302574,0.0,0.0,0.0,0.0,0.0,0.0,0.0,0.0,0.0,0.0,0.0,0.0,0.0,0.0,
1.1268,7.497686398462657,7.372928634359662,7.011436626040761,0.0,0.0,0.0005887859276901316,7.2940172196210264,0.0,0.0,0.0,0.0,0.0,0.0,0.0,0.0,0.0,0.0,0.0,0.0,0.0,0.0,
1.1444,7.556676884966259,7.424273025311591,7.0597033905652244,0.0,0.0,-0.0010303242902459635,7.346884433614359,0.0,0.0,0.0,0.0,0.0,0.0,0.0,0.0,0.0,0.0,0.0,0.0,3723.131226965789,0.0,
1.162,7.618866722436211,7.478146572030872,7.11044424725655,0.0,0.0,-0.0028098483007616914,7.40248584724121,0.0,0.0,0.0,0.0,0.0,0.0,0.0,0.0,0.0,0.0,0.0,0.0,6242.967732949143,0.0,
1.1796,7.684515347123349,7.53473118320583,7.163847241445883,0.0,0.0,-0.004769658796316694,7.461031257258354,0.0,0.0,0.0,0.0,0.0,0.0,0.0,0.0,0.0,0.0,0.0,0.0,8256.99355154825,0.0,
1.1972,7.7539130414417,7.594228038596897,7.22012150174734,0.0,0.0,-0.006932725916763249,7.5227541939286455,0.0,0.0,0.0,0.0,0.0,0.0,0.0,0.0,0.0,0.0,0.0,0.0,10103.27674005809,0.0,
1.2148,7.827385771087558,7.656860266229109,7.279500354217958,0.0,0.0,-0.009325715100434118,7.587915463844875,0.0,0.0,0.0,0.0,0.0,0.0,0.0,0.0,0.0,0.0,0.0,0.0,11890.206042297908,0.0,
1.2324,7.905300983906132,7.722876089074253,7.342245019579488,0.0,0.0,-0.011979725139556608,7.656807364186624,0.0,0.0,0.0,0.0,0.0,0.0,0.0,0.0,0.0,0.0,0.0,0.0,13671.577916653054,0.0,
1.25,7.988074605720845,7.792552541943834,7.408649027758629,0.0,0.0,-0.01493120572200536,7.729758725141103,0.0,0.0,0.0,0.0,0.0,0.0,0.0,0.0,0.0,0.0,0.0,0.0,15481.070128983114,0.0,
1.2676,8.076179537633566,7.866199885189501,7.479043521251916,0.0,0.0,-0.018223106707406178,7.8071409813583275,0.0,0.0,0.0,0.0,0.0,0.0,0.0,0.0,0.0,0.0,0.0,0.0,17343.508799994503,0.0,
1.2852,8.170156052788572,7.94416687552369,7.553803668342221,0.0,0.0,-0.021906329333637647,7.8893755322181605,0.0,0.0,0.0,0.0,0.0,0.0,0.0,0.0,0.0,0.0,0.0,0.0,19279.645692137332,0.0,
1.3028,8.27062461814823,8.026847098580266,7.6333564737138015,0.0,0.0,-0.02604157468416543,7.9769427301474325,0.0,0.0,0.0,0.0,0.0,0.0,0.0,0.0,0.0,0.0,0.0,0.0,21308.598974482353,0.0,
1.3204,8.378301842979257,8.114686626624357,7.7181903643818,0.0,0.0,-0.030701720382675192,8.070392944661805,0.0,0.0,0.0,0.0,0.0,0.0,0.0,0.0,0.0,0.0,0.0,0.0,23449.327763805966,0.0,
1.338,8.494020502186103,8.20819334360466,7.808867053127804,0.0,0.0,-0.035974907674455534,8.170360299639524,0.0,0.0,0.0,0.0,0.0,0.0,0.0,0.0,0.0,0.0,0.0,0.0,25721.68899664753,0.0,
1.3556,8.618754932169303,8.307948386474463,7.906036354771197,0.0,0.0,-0.04196859562136206,8.277579891138322,0.0,0.0,0.0,0.0,0.0,0.0,0.0,0.0,0.0,0.0,0.0,0.0,28147.33642485627,0.0,
1.3733,8.754451599362227,8.415247572195346,8.011070498318976,0.0,0.0,-0.04885658098032493,8.39358988995885,0.0,0.0,0.0,0.0,0.0,0.0,0.0,0.0,0.0,0.0,0.0,0.0,30765.96071529686,0.0,
1.3909,8.900949275312314,8.529656100675172,8.123674522829429,0.0,0.0,-0.05672604652171537,8.518093299605638,0.0,0.0,0.0,0.0,0.0,0.0,0.0,0.0,0.0,0.0,0.0,0.0,33576.134112526,0.0,
1.4085,9.06062317285264,8.652661577743743,8.245470095637526,0.0,0.0,-0.0658196078606292,8.65291828207797,0.0,0.0,0.0,0.0,0.0,0.0,0.0,0.0,0.0,0.0,0.0,0.0,36625.03277174438,0.0,
1.4261,9.235458657039823,8.785321583628482,8.377708706263682,0.0,0.0,-0.07639921015133447,8.799496315643996,0.0,0.0,0.0,0.0,0.0,0.0,0.0,0.0,0.0,0.0,0.0,0.0,39951.94614627911,0.0,
1.4437,9.427888587204894,8.928886106156344,8.521897130015537,0.0,0.0,-0.08880183735584878,8.959557274458925,0.0,0.0,0.0,0.0,0.0,0.0,0.0,0.0,0.0,0.0,0.0,0.0,43604.51473405056,0.0,
1.4613,9.640932096537727,9.084845237438502,8.679869377206817,0.0,0.0,-0.10346718187479238,9.13521557039435,0.0,0.0,0.0,0.0,0.0,0.0,0.0,0.0,0.0,0.0,0.0,0.0,47641.36759624744,0.0,
1.4789,9.878388630752523,9.254992264793279,8.853885069622951,0.0,0.0,-0.12097771456192935,9.329088655056252,0.0,0.0,0.0,0.0,0.0,0.0,0.0,0.0,0.0,0.0,0.0,0.0,52135.677582221,0.0,
1.4965,10.145111997888261,9.441508389571748,9.04676566341912,0.0,0.0,-0.14211699326903585,9.54446201695971,0.0,0.0,0.0,0.0,0.0,0.0,0.0,0.0,0.0,0.0,0.0,0.0,57179.88161818842,0.0,
1.5141,10.44739469587531,9.647078332555743,9.262083494289582,0.0,0.0,-0.1679527817301115,9.78551884090688,0.0,0.0,0.0,0.0,0.0,0.0,0.0,0.0,0.0,0.0,0.0,0.0,62891.461252492176,0.0,
1.5317,10.79347176422287,9.875050687413614,9.504415073199329,0.0,0.0,-0.1999430674801593,10.057645841611938,0.0,0.0,0.0,0.0,0.0,0.0,0.0,0.0,0.0,0.0,0.0,0.0,69417.7308284634,0.0,
1.5493,11.193976706973022,10.129663512930275,9.779620366497028,0.0,0.0,-0.24000303058173764,10.367753528800108,0.0,0.0,0.0,0.0,0.0,0.0,0.0,0.0,0.0,0.0,0.0,0.0,76928.52563643425,0.0,
1.5669,11.66126575080488,10.416363030116896,10.09483544414204,0.0,0.0,-0.29016901532777784,10.72415474168794,0.0,0.0,0.0,0.0,0.0,0.0,0.0,0.0,0.0,0.0,0.0,0.0,85548.0912344849,0.0,
1.5845,12.203693459054309,10.742240455777011,10.457002239293402,0.0,0.0,-0.3505671150281291,11.134312051374907,0.0213,0.0,0.0065,0.0,0.0,-0.0069,0.009266666666666666,489.5979223943025,0.0,161.40445152572892,0.0,0.0,95091.65010864119,222.99626159379824,
1.6021,12.811882809842166,11.116555810750583,10.869011464849642,0.0,0.0,-0.41469812099636116,11.599150028480798,0.2637,0.0004,0.0804,0.0,0.0,-0.0858,0.11483333333333334,5981.137780913166,9.74042688245113,1979.9818309759153,0.0,0.0,105120.29512474465,2737.4911140923678,
1.6197,13.456154483867664,11.55099527175425,11.329014152907087,0.0,0.0,-0.4682747839702634,12.112054636176333,0.776,0.0011,0.2366,0.0,0.0,-0.2525,0.33790000000000003,17356.77504243398,26.56630134033532,5769.5656404698575,0.0,0.0,116098.21143816634,7968.657384815527,
1.6373,14.099862800163873,12.05793727221032,11.833137583396176,0.0,0.0,-0.4932464560034493,12.66364588525679,1.5557,0.0105,0.4797,0.0,0.0,-0.5063,0.6819666666666667,34324.35035656706,250.8964632655463,11568.375944485279,0.0,0.0,128547.66868241312,15895.284135735608,
1.6549,14.70517800427316,12.64490520118378,12.373802769976114,0.0,0.0,-0.46944484582608326,13.241295325144351,2.5241,0.1133,0.8565,0.0,0.0,-0.8102,1.1646333333333334,55001.51487035237,2672.1021004269214,20408.04592820014,0.0,0.0,140625.95289693892,26815.785010599015,
1.6726,15.209027978748518,13.317018286307068,12.938412875445962,0.0,0.0,-0.3646319232534118,13.821486380167181,3.9279,0.3384,1.4261,0.0,0.0,-1.2706,1.8974666666666666,84680.18546569676,7859.545503673055,33555.10153025038,0.0,0.0,155673.97429826987,43160.495627153025,
1.6902,15.481153959602665,14.062139139698322,13.49363158541425,0.0,0.0,-0.1347533754099697,14.345641561571746,6.1631,0.6876,2.2207,0.0,0.0,-1.9613,3.0238,131678.83719415677,15701.173742036983,51608.52810382441,0.0,0.0,175568.370096724,68009.88116738116,
1.7078,15.388797379460337,14.851100837510561,13.994615061619996,0.0,0.0,0.2459880091329063,14.744837759530299,8.7105,1.2336,3.1931,0.0,0.0,-2.523,4.379066666666666,185387.23746056078,27680.375538094206,73402.36382568002,0.0,0.0,185176.59419109955,97650.59154305833,
1.7254,14.79996909742011,15.568898465363684,14.31964575641289,0.0,0.0,0.7642246318873366,14.896171106398896,11.7944,2.9788,5.1669,0.0,0.0,-3.0806,6.6467,251142.30053185427,65713.58708945372,117549.6713693831,0.0,0.0,191957.28968397065,147126.76694593317,
1.743,13.594262053543869,16.064431178134814,14.282721425569754,0.0,0.0,1.3163149896313564,14.647138219082812,15.4776,4.5613,7.4609,0.0,0.0,-3.0079,9.1666,330638.10701327334,99544.42101508078,169045.54334955933,0.0,0.0,175197.5104420636,202656.58982443696,
1.7606,11.820380859719078,16.05707633051278,13.636430714337587,0.0,0.0,1.6631474883589952,13.837962634856481,17.9462,8.2055,11.7521,0.0,0.0,-0.9521,12.6346,392352.9066223667,177331.31641873377,263632.3758975108,0.0,0.0,63497.741676229045,279318.9306891097,
1.7782,9.73643521211648,15.179902853599716,12.306955415382344,0.0,0.0,1.6984684794973683,12.407764493699512,18.8152,14.4043,14.7719,0.0,0.0,0.1152,15.997133333333332,431208.3943355944,305499.0833576684,335241.3521292131,0.0,0.0,7961.017174817764,356772.34030630195,
1.7958,7.632038348716625,13.654598851195223,10.549271001041177,0.0,0.0,1.5436458265999413,10.611969400317674,18.5229,15.1705,16.0978,0.0,0.0,0.7217,16.597066666666667,453236.6188805954,334526.86146444577,379556.1110943901,0.0,0.0,51541.53547242518,387983.45660921384,
1.8134,5.716207924891865,11.959855205680169,8.68665710662627,0.0,0.0,1.3508744141789741,8.787573412399434,17.4628,16.0816,16.2787,0.0,0.0,0.5932,16.6077,462392.4204128557,369460.6406200103,406118.24351776356,0.0,0.0,45858.263789638346,411016.4967560626,
1.831,4.112717224908753,10.234673201948555,6.9799971715157225,0.0,0.0,1.2086772904404939,7.109129199457676,15.8935,16.6137,15.2045,0.0,0.0,0.4958,15.903899999999998,460304.2320173578,399719.6872209203,409752.95289343235,0.0,0.0,41024.80147567,421381.0816233364,
1.8486,2.8771339148073327,8.582847578666573,5.545696421406387,0.0,0.0,1.1153476003364016,5.668559304960098,14.1497,16.3062,14.2409,0.0,0.0,0.4921,14.898933333333332,450495.14907412167,415683.2238765126,413410.97099200997,0.0,0.0,42671.15355441775,424624.6285854682,
1.8662,2.021602266014135,7.11972321980936,4.384288509115896,0.0,0.0,1.0391213228727127,4.5085379983131295,12.2626,15.5069,13.0819,0.0,0.0,0.5966,13.617133333333333,431458.95158988034,421751.7333907056,410340.917938235,0.0,0.0,53346.37485194387,419455.91804165463,
