energies(eV),real_xx,real_yy,real_zz,real_xy,real_yz,real_xz,real_ave,imag_xx,imag_yy,imag_zz,imag_xy,imag_yz,imag_xz,imag_ave,absorption_xx,absorption_yy,absorption_zz,absorption_xy,absorption_yz,absorption_xz,absorption_ave,band_gap
0.0,2.533975190336972,2.6821600806809336,2.593935146411825,0.0,0.0,0.0,2.60335680580991,0.0,0.0,0.0,0.0,0.0,0.0,0.0,0.0,0.0,0.0,0.0,0.0,0.0,0.0,6.4795
0.0235,2.5339804686826417,2.682166254889596,2.5939408012494205,0.0,0.0,0.0,2.6033625082738863,0.0,0.0,0.0,0.0,0.0,0.0,0.0,0.0,0.0,0.0,0.0,0.0,0.0,0.0,
0.0469,2.533996214284418,2.682184672895821,2.5939576699507247,0.0,0.0,0.0,2.6033795190436546,0.0,0.0,0.0,0.0,0.0,0.0,0.0,0.0,0.0,0.0,0.0,0.0,0.0,0.0,
0.0704,2.5340225626650916,2.682215493208044,2.593985897713867,0.0,0.0,0.0,2.603407984529001,0.0,0.0,0.0,0.0,0.0,0.0,0.0,0.0,0.0,0.0,0.0,0.0,0.0,0.0,
0.0939,2.5340594705782262,2.682258665213424,2.5940254382224675,0.0,0.0,0.0,2.603447858004706,0.0,0.0,0.0,0.0,0.0,0.0,0.0,0.0,0.0,0.0,0.0,0.0,0.0,0.0,
0.1173,2.5341067158592017,2.68231392900448,2.594076053485539,0.0,0.0,0.0,2.60349889944974,0.0,0.0,0.0,0.0,0.0,0.0,0.0,0.0,0.0,0.0,0.0,0.0,0.0,0.0,
0.1408,2.534164705150295,2.682381760191631,2.594138179177378,0.0,0.0,0.0,2.603561548173101,0.0,0.0,0.0,0.0,0.0,0.0,0.0,0.0,0.0,0.0,0.0,0.0,0.0,0.0,
0.1642,2.5342329483733628,2.6824615854631744,2.5942112902944494,0.0,0.0,0.0,2.603635274710329,0.0,0.0,0.0,0.0,0.0,0.0,0.0,0.0,0.0,0.0,0.0,0.0,0.0,0.0,
0.1877,2.5343120329027373,2.6825540918120234,2.5942960161475552,0.0,0.0,0.0,2.603720713620772,0.0,0.0,0.0,0.0,0.0,0.0,0.0,0.0,0.0,0.0,0.0,0.0,0.0,0.0,
0.2112,2.534401694336661,2.6826589698825773,2.5943920735190913,0.0,0.0,0.0,2.6038175792461096,0.0,0.0,0.0,0.0,0.0,0.0,0.0,0.0,0.0,0.0,0.0,0.0,0.0,0.0,
0.2346,2.5345014890629414,2.682775700687343,2.594498987201023,0.0,0.0,0.0,2.603925392317102,0.0,0.0,0.0,0.0,0.0,0.0,0.0,0.0,0.0,0.0,0.0,0.0,0.0,0.0,
0.2581,2.5346122760277954,2.6829052888419094,2.5946176774691048,0.0,0.0,0.0,2.604045080779603,0.0,0.0,0.0,0.0,0.0,0.0,0.0,0.0,0.0,0.0,0.0,0.0,0.0,0.0,
0.2816,2.5347336579361883,2.683047269512842,2.594747718749074,0.0,0.0,0.0,2.6041762153993684,0.0,0.0,0.0,0.0,0.0,0.0,0.0,0.0,0.0,0.0,0.0,0.0,0.0,0.0,
0.305,2.534865057979173,2.6832009678846416,2.5948884931482628,0.0,0.0,0.0,2.604318173004026,0.0,0.0,0.0,0.0,0.0,0.0,0.0,0.0,0.0,0.0,0.0,0.0,0.0,0.0,
0.3285,2.535007607144583,2.6833677067362074,2.595041212414939,0.0,0.0,0.0,2.60447217543191,0.0,0.0,0.0,0.0,0.0,0.0,0.0,0.0,0.0,0.0,0.0,0.0,0.0,0.0,
0.3519,2.5351601007492555,2.683546076811263,2.595204585997185,0.0,0.0,0.0,2.604636921185901,0.0,0.0,0.0,0.0,0.0,0.0,0.0,0.0,0.0,0.0,0.0,0.0,0.0,0.0,
0.3754,2.5353238513477594,2.683737613231771,2.5953800201816213,0.0,0.0,0.0,2.604813828253717,0.0,0.0,0.0,0.0,0.0,0.0,0.0,0.0,0.0,0.0,0.0,0.0,0.0,0.0,
0.3989,2.5354982397250936,2.6839415915362155,2.5955668516662183,0.0,0.0,0.0,2.605002227642509,0.0,0.0,0.0,0.0,0.0,0.0,0.0,0.0,0.0,0.0,0.0,0.0,0.0,0.0,
0.4223,2.5356824664317603,2.6841570764499028,2.5957642240517886,0.0,0.0,0.0,2.605201255644484,0.0,0.0,0.0,0.0,0.0,0.0,0.0,0.0,0.0,0.0,0.0,0.0,0.0,0.0,
0.4458,2.5358781171794473,2.684385922541547,2.595973836302746,0.0,0.0,0.0,2.605412625341247,0.0,0.0,0.0,0.0,0.0,0.0,0.0,0.0,0.0,0.0,0.0,0.0,0.0,0.0,
0.4693,2.536084439152552,2.684627249053218,2.596194881995803,0.0,0.0,0.0,2.605635523400524,0.0,0.0,0.0,0.0,0.0,0.0,0.0,0.0,0.0,0.0,0.0,0.0,0.0,0.0,
0.4927,2.5363004987383273,2.6848799637649936,2.5964263610025204,0.0,0.0,0.0,2.605868941168614,0.0,0.0,0.0,0.0,0.0,0.0,0.0,0.0,0.0,0.0,0.0,0.0,0.0,0.0,
0.5162,2.5365281556766903,2.6851462416942686,2.5966702659062473,0.0,0.0,0.0,2.606114887759069,0.0,0.0,0.0,0.0,0.0,0.0,0.0,0.0,0.0,0.0,0.0,0.0,0.0,0.0,
0.5396,2.5367654861156685,2.685423832371668,2.596924535674394,0.0,0.0,0.0,2.6063712847205767,0.0,0.0,0.0,0.0,0.0,0.0,0.0,0.0,0.0,0.0,0.0,0.0,0.0,0.0,
0.5631,2.5370145329097324,2.6857151249379876,2.5971913591010267,0.0,0.0,0.0,2.6066403389829156,0.0,0.0,0.0,0.0,0.0,0.0,0.0,0.0,0.0,0.0,0.0,0.0,0.0,0.0,
0.5866,2.537274319727376,2.68601897716091,2.5974696903099685,0.0,0.0,0.0,2.6069209957327515,0.0,0.0,0.0,0.0,0.0,0.0,0.0,0.0,0.0,0.0,0.0,0.0,0.0,0.0,
0.61,2.5375436882826827,2.686334034012135,2.5977582884693247,0.0,0.0,0.0,2.6072120035880473,0.0,0.0,0.0,0.0,0.0,0.0,0.0,0.0,0.0,0.0,0.0,0.0,0.0,0.0,
0.6335,2.537824957250332,2.6866630071415125,2.5980596379282463,0.0,0.0,0.0,2.6075158674400303,0.0,0.0,0.0,0.0,0.0,0.0,0.0,0.0,0.0,0.0,0.0,0.0,0.0,0.0,
0.657,2.5381170154874253,2.6870045966200564,2.5983725483805604,0.0,0.0,0.0,2.6078313868293477,0.0,0.0,0.0,0.0,0.0,0.0,0.0,0.0,0.0,0.0,0.0,0.0,0.0,0.0,
0.6804,2.5384185690683454,2.6873572887683643,2.598695633669329,0.0,0.0,0.0,2.608157163835346,0.0,0.0,0.0,0.0,0.0,0.0,0.0,0.0,0.0,0.0,0.0,0.0,0.0,0.0,
0.7039,2.538732213770889,2.68772411921963,2.599031675084725,0.0,0.0,0.0,2.6084960026917483,0.0,0.0,0.0,0.0,0.0,0.0,0.0,0.0,0.0,0.0,0.0,0.0,0.0,0.0,
0.7273,2.5390552992456517,2.688101987836361,2.599377833193427,0.0,0.0,0.0,2.608845040091813,0.0,0.0,0.0,0.0,0.0,0.0,0.0,0.0,0.0,0.0,0.0,0.0,0.0,0.0,
0.7508,2.539390606664549,2.688494146994696,2.599737087959063,0.0,0.0,0.0,2.609207280539436,0.0,0.0,0.0,0.0,0.0,0.0,0.0,0.0,0.0,0.0,0.0,0.0,0.0,0.0,
0.7743,2.5397367989238115,2.688899032464906,2.600108006979955,0.0,0.0,0.0,2.6095812794562243,0.0,0.0,0.0,0.0,0.0,0.0,0.0,0.0,0.0,0.0,0.0,0.0,0.0,0.0,
0.7977,2.540092354529657,2.689314864415758,2.6004889602668313,0.0,0.0,0.0,2.6099653930707487,0.0,0.0,0.0,0.0,0.0,0.0,0.0,0.0,0.0,0.0,0.0,0.0,0.0,0.0,
0.8212,2.5404603342471077,2.689745222066673,2.6008832274144096,0.0,0.0,0.0,2.6103629279093967,0.0,0.0,0.0,0.0,0.0,0.0,0.0,0.0,0.0,0.0,0.0,0.0,0.0,0.0,
0.8447,2.5408392644333397,2.690188381494852,2.6012892297236814,0.0,0.0,0.0,2.6107722918839578,0.0,0.0,0.0,0.0,0.0,0.0,0.0,0.0,0.0,0.0,0.0,0.0,0.0,0.0,
0.8681,2.5412274859518127,2.6906424019057456,2.601705189715538,0.0,0.0,0.0,2.6111916925243652,0.0,0.0,0.0,0.0,0.0,0.0,0.0,0.0,0.0,0.0,0.0,0.0,0.0,0.0,
0.8916,2.541628340870904,2.6911111913250148,2.6021346884632695,0.0,0.0,0.0,2.6116247402197295,0.0,0.0,0.0,0.0,0.0,0.0,0.0,0.0,0.0,0.0,0.0,0.0,0.0,0.0,
0.9151,2.5420402182236383,2.691592865230267,2.6025760001220526,0.0,0.0,0.0,2.6120696945253195,0.0,0.0,0.0,0.0,0.0,0.0,0.0,0.0,0.0,0.0,0.0,0.0,0.0,0.0,
0.9385,2.542461320339192,2.6920853208352553,2.6030271987594786,0.0,0.0,0.0,2.6125246133113085,0.0,0.0,0.0,0.0,0.0,0.0,0.0,0.0,0.0,0.0,0.0,0.0,0.0,0.0,
0.962,2.5428952724649276,2.692592797123521,2.6034921689535016,0.0,0.0,0.0,2.6129934128473167,0.0,0.0,0.0,0.0,0.0,0.0,0.0,0.0,0.0,0.0,0.0,0.0,0.0,0.0,
0.9854,2.543338408048478,2.693111005761605,2.6039669823092257,0.0,0.0,0.0,2.6134721320397696,0.0,0.0,0.0,0.0,0.0,0.0,0.0,0.0,0.0,0.0,0.0,0.0,0.0,0.0,
1.0089,2.5437945421131403,2.693644407503699,2.6044557268114685,0.0,0.0,0.0,2.613964892142769,0.0,0.0,0.0,0.0,0.0,0.0,0.0,0.0,0.0,0.0,0.0,0.0,0.0,0.0,
1.0324,2.54426183293094,2.6941908479842245,2.6049564293320246,0.0,0.0,0.0,2.61446970341573,0.0,0.0,0.0,0.0,0.0,0.0,0.0,0.0,0.0,0.0,0.0,0.0,0.0,0.0,
1.0558,2.544738249811702,2.694747951977642,2.6054669142151106,0.0,0.0,0.0,2.614984372001485,0.0,0.0,0.0,0.0,0.0,0.0,0.0,0.0,0.0,0.0,0.0,0.0,0.0,0.0,
1.0793,2.54522789445919,2.6953205152095294,2.6059915767324098,0.0,0.0,0.0,2.6155133288003762,0.0,0.0,0.0,0.0,0.0,0.0,0.0,0.0,0.0,0.0,0.0,0.0,0.0,0.0,
1.1028,2.545728785349821,2.6959062198633106,2.6065282939389425,0.0,0.0,0.0,2.6160544330506914,0.0,0.0,0.0,0.0,0.0,0.0,0.0,0.0,0.0,0.0,0.0,0.0,0.0,0.0,
1.1262,2.546238750493326,2.6965025255344393,2.60707473873682,0.0,0.0,0.0,2.6166053382548617,0.0,0.0,0.0,0.0,0.0,0.0,0.0,0.0,0.0,0.0,0.0,0.0,0.0,0.0,
1.1497,2.5467621806074168,2.697114565592126,2.607635616204885,0.0,0.0,0.0,2.6171707874681425,0.0,0.0,0.0,0.0,0.0,0.0,0.0,0.0,0.0,0.0,0.0,0.0,0.0,0.0,
1.1731,2.547294653593595,2.697737168585438,2.608206188159094,0.0,0.0,0.0,2.6177460034460425,0.0,0.0,0.0,0.0,0.0,0.0,0.0,0.0,0.0,0.0,0.0,0.0,0.0,0.0,
1.1966,2.5478407540918875,2.698375694402377,2.608791367563529,0.0,0.0,0.0,2.6183359386859313,0.0,0.0,0.0,0.0,0.0,0.0,0.0,0.0,0.0,0.0,0.0,0.0,0.0,0.0,
1.2201,2.548398265227968,2.6990275500915617,2.609388779229855,0.0,0.0,0.0,2.618938198183128,0.0,0.0,0.0,0.0,0.0,0.0,0.0,0.0,0.0,0.0,0.0,0.0,0.0,0.0,
1.2435,2.5489647768974617,2.6996899169426456,2.6099958408317034,0.0,0.0,0.0,2.6195501782239368,0.0,0.0,0.0,0.0,0.0,0.0,0.0,0.0,0.0,0.0,0.0,0.0,0.0,0.0,
1.267,2.549545167042157,2.700368497392485,2.610617779771057,0.0,0.0,0.0,2.6201771480685663,0.0,0.0,0.0,0.0,0.0,0.0,0.0,0.0,0.0,0.0,0.0,0.0,0.0,0.0,
1.2905,2.550137075946946,2.701060531530583,2.611252067752215,0.0,0.0,0.0,2.620816558409915,0.0,0.0,0.0,0.0,0.0,0.0,0.0,0.0,0.0,0.0,0.0,0.0,0.0,0.0,
1.3139,2.550737948849519,2.70176303160431,2.611895967378634,0.0,0.0,0.0,2.621465649277488,0.0,0.0,0.0,0.0,0.0,0.0,0.0,0.0,0.0,0.0,0.0,0.0,0.0,0.0,
1.3374,2.5513529598143165,2.702482045822939,2.6125550235364248,0.0,0.0,0.0,2.62213000972456,0.0,0.0,0.0,0.0,0.0,0.0,0.0,0.0,0.0,0.0,0.0,0.0,0.0,0.0,
1.3608,2.5519769137085015,2.703211499530087,2.6132236693592836,0.0,0.0,0.0,2.622804027532624,0.0,0.0,0.0,0.0,0.0,0.0,0.0,0.0,0.0,0.0,0.0,0.0,0.0,0.0,
1.3843,2.552615183531451,2.7039576731817174,2.6139076630316183,0.0,0.0,0.0,2.6234935065815956,0.0,0.0,0.0,0.0,0.0,0.0,0.0,0.0,0.0,0.0,0.0,0.0,0.0,0.0,
1.4078,2.5532651686434136,2.7047175253166986,2.6146042179916167,0.0,0.0,0.0,2.6241956373172433,0.0,0.0,0.0,0.0,0.0,0.0,0.0,0.0,0.0,0.0,0.0,0.0,0.0,0.0,
1.4312,2.553924070055023,2.7054877828500583,2.6153103350097773,0.0,0.0,0.0,2.62490739597162,0.0,0.0,0.0,0.0,0.0,0.0,0.0,0.0,0.0,0.0,0.0,0.0,0.0,0.0,
1.4547,2.5545975620174195,2.706275077864234,2.616032095292937,0.0,0.0,0.0,2.6256349117248634,0.0,0.0,0.0,0.0,0.0,0.0,0.0,0.0,0.0,0.0,0.0,0.0,0.0,0.0,
1.4782,2.5552828973956045,2.7070761977362516,2.6167665552234527,0.0,0.0,0.0,2.626375216785103,0.0,0.0,0.0,0.0,0.0,0.0,0.0,0.0,0.0,0.0,0.0,0.0,0.0,0.0,
1.5016,2.5559771285523043,2.707887695757278,2.617510556191152,0.0,0.0,0.0,2.6271251268335782,0.0,0.0,0.0,0.0,0.0,0.0,0.0,0.0,0.0,0.0,0.0,0.0,0.0,0.0,
1.5251,2.5566862343355297,2.7087165594490026,2.6182705060369145,0.0,0.0,0.0,2.627891099940482,0.0,0.0,0.0,0.0,0.0,0.0,0.0,0.0,0.0,0.0,0.0,0.0,0.0,0.0,
1.5485,2.5574042256847354,2.709555786998762,2.6190399866437426,0.0,0.0,0.0,2.6286666664424136,0.0,0.0,0.0,0.0,0.0,0.0,0.0,0.0,0.0,0.0,0.0,0.0,0.0,0.0,
1.572,2.5581372863270158,2.7104126049499593,2.6198256255684433,0.0,0.0,0.0,2.629458505615139,0.0,0.0,0.0,0.0,0.0,0.0,0.0,0.0,0.0,0.0,0.0,0.0,0.0,0.0,
1.5955,2.5588824215786365,2.7112835115188982,2.6206242137707525,0.0,0.0,0.0,2.6302633822894292,0.0,0.0,0.0,0.0,0.0,0.0,0.0,0.0,0.0,0.0,0.0,0.0,0.0,0.0,
1.6189,2.559636432370156,2.7121647664001296,2.6214323230243615,0.0,0.0,0.0,2.631077840598216,0.0,0.0,0.0,0.0,0.0,0.0,0.0,0.0,0.0,0.0,0.0,0.0,0.0,0.0,
1.6424,2.5604058130638543,2.7130639584489105,2.6222569140386036,0.0,0.0,0.0,2.6319088951837895,0.0,0.0,0.0,0.0,0.0,0.0,0.0,0.0,0.0,0.0,0.0,0.0,0.0,0.0,
1.6659,2.56118741817299,2.7139774097760956,2.623094616063783,0.0,0.0,0.0,2.6327531480042894,0.0,0.0,0.0,0.0,0.0,0.0,0.0,0.0,0.0,0.0,0.0,0.0,0.0,0.0,
1.6893,2.561977895309269,2.7149012011010996,2.623941836447692,0.0,0.0,0.0,2.6336069776193534,0.0,0.0,0.0,0.0,0.0,0.0,0.0,0.0,0.0,0.0,0.0,0.0,0.0,0.0,
1.7128,2.562784053384425,2.715843288039167,2.6248058732772184,0.0,0.0,0.0,2.634477738233603,0.0,0.0,0.0,0.0,0.0,0.0,0.0,0.0,0.0,0.0,0.0,0.0,0.0,0.0,
1.7363,2.563602594314005,2.7167998145393697,2.62568319215468,0.0,0.0,0.0,2.635361867002685,0.0,0.0,0.0,0.0,0.0,0.0,0.0,0.0,0.0,0.0,0.0,0.0,0.0,0.0,
1.7597,2.5644300104516926,2.7177666801282676,2.6265700339077185,0.0,0.0,0.0,2.6362555748292262,0.0,0.0,0.0,0.0,0.0,0.0,0.0,0.0,0.0,0.0,0.0,0.0,0.0,0.0,
1.7832,2.5652734293998316,2.7187522118811858,2.627474038470222,0.0,0.0,0.0,2.63716655991708,0.0,0.0,0.0,0.0,0.0,0.0,0.0,0.0,0.0,0.0,0.0,0.0,0.0,0.0,
1.8066,2.5661257294868762,2.71974808632031,2.6283875730215502,0.0,0.0,0.0,2.6380871296095787,0.0,0.0,0.0,0.0,0.0,0.0,0.0,0.0,0.0,0.0,0.0,0.0,0.0,0.0,
1.8301,2.5669942530386862,2.7207628807217707,2.629318507836875,0.0,0.0,0.0,2.6390252138657773,0.0,0.0,0.0,0.0,0.0,0.0,0.0,0.0,0.0,0.0,0.0,0.0,0.0,0.0,
1.8536,2.5678754434476816,2.7217924373007256,2.6302630312419697,0.0,0.0,0.0,2.6399769706634593,0.0,0.0,0.0,0.0,0.0,0.0,0.0,0.0,0.0,0.0,0.0,0.0,0.0,0.0,
1.877,2.5687655297768908,2.7228323484266923,2.6312171016414334,0.0,0.0,0.0,2.6409383266150055,0.0,0.0,0.0,0.0,0.0,0.0,0.0,0.0,0.0,0.0,0.0,0.0,0.0,0.0,
1.9005,2.56967218046947,2.723891571249644,2.632188939171659,0.0,0.0,0.0,2.641917563630258,0.0,0.0,0.0,0.0,0.0,0.0,0.0,0.0,0.0,0.0,0.0,0.0,0.0,0.0,
1.924,2.5705916810251908,2.7249657637673406,2.6331745627919223,0.0,0.0,0.0,2.642910669194818,0.0,0.0,0.0,0.0,0.0,0.0,0.0,0.0,0.0,0.0,0.0,0.0,0.0,0.0,
1.9474,2.5715200995431835,2.7260503306441892,2.634169758225391,0.0,0.0,0.0,2.6439133961375876,0.0,0.0,0.0,0.0,0.0,0.0,0.0,0.0,0.0,0.0,0.0,0.0,0.0,0.0,
1.9709,2.5724654353719165,2.727154614318076,2.6351831006356567,0.0,0.0,0.0,2.6449343834418833,0.0,0.0,0.0,0.0,0.0,0.0,0.0,0.0,0.0,0.0,0.0,0.0,0.0,0.0,
1.9943,2.5734197079985126,2.7282692900795165,2.6362060358590904,0.0,0.0,0.0,2.645965011312373,0.0,0.0,0.0,0.0,0.0,0.0,0.0,0.0,0.0,0.0,0.0,0.0,0.0,0.0,
2.0178,2.574391140003541,2.729403960187674,2.6372473785807076,0.0,0.0,0.0,2.6470141595906407,0.0,0.0,0.0,0.0,0.0,0.0,0.0,0.0,0.0,0.0,0.0,0.0,0.0,0.0,
2.0413,2.5753757488912488,2.730553970088813,2.638302860254269,0.0,0.0,0.0,2.6480775264114436,0.0,0.0,0.0,0.0,0.0,0.0,0.0,0.0,0.0,0.0,0.0,0.0,0.0,0.0,
2.0647,2.576369329278627,2.731714405676937,2.639367973176413,0.0,0.0,0.0,2.649150569377326,0.0,0.0,0.0,0.0,0.0,0.0,0.0,0.0,0.0,0.0,0.0,0.0,0.0,0.0,
2.0882,2.577380443212219,2.732895264158775,2.6404518962940964,0.0,0.0,0.0,2.6502425345550304,0.0,0.0,0.0,0.0,0.0,0.0,0.0,0.0,0.0,0.0,0.0,0.0,0.0,0.0,
2.1117,2.578404944211459,2.7340916998163007,2.641550185116552,0.0,0.0,0.0,2.651348943048104,0.0,0.0,0.0,0.0,0.0,0.0,0.0,0.0,0.0,0.0,0.0,0.0,0.0,0.0,
2.1351,2.5794384593831783,2.7352986033913744,2.6426581521921895,0.0,0.0,0.0,2.652465071655581,0.0,0.0,0.0,0.0,0.0,0.0,0.0,0.0,0.0,0.0,0.0,0.0,0.0,0.0,
2.1586,2.580489895745278,2.73652637323662,2.643785346667562,0.0,0.0,0.0,2.6536005385498203,0.0,0.0,0.0,0.0,0.0,0.0,0.0,0.0,0.0,0.0,0.0,0.0,0.0,0.0,
2.182,2.5815503792834242,2.737764644067437,2.6449222556270593,0.0,0.0,0.0,2.6547457596593067,0.0,0.0,0.0,0.0,0.0,0.0,0.0,0.0,0.0,0.0,0.0,0.0,0.0,0.0,
2.2055,2.582629050031091,2.7390240850721055,2.646078678290407,0.0,0.0,0.0,2.6559106044645344,0.0,0.0,0.0,0.0,0.0,0.0,0.0,0.0,0.0,0.0,0.0,0.0,0.0,0.0,
2.229,2.5837214826463315,2.7402995256114124,2.6472498709306076,0.0,0.0,0.0,2.6570902930627835,0.0,0.0,0.0,0.0,0.0,0.0,0.0,0.0,0.0,0.0,0.0,0.0,0.0,0.0,
2.2524,2.584823019090278,2.741585524412183,2.648430840080313,0.0,0.0,0.0,2.6582797945275916,0.0,0.0,0.0,0.0,0.0,0.0,0.0,0.0,0.0,0.0,0.0,0.0,0.0,0.0,
2.2759,2.585943154191238,2.7428931628420674,2.6496317657515975,0.0,0.0,0.0,2.659489360928301,0.0,0.0,0.0,0.0,0.0,0.0,0.0,0.0,0.0,0.0,0.0,0.0,0.0,0.0,
2.2994,2.58707729165159,2.744217071175755,2.650847720748336,0.0,0.0,0.0,2.6607140278585604,0.0,0.0,0.0,0.0,0.0,0.0,0.0,0.0,0.0,0.0,0.0,0.0,0.0,0.0,
2.3228,2.5882205984459006,2.745551604514074,2.652073523786375,0.0,0.0,0.0,2.6619485755821164,0.0,0.0,0.0,0.0,0.0,0.0,0.0,0.0,0.0,0.0,0.0,0.0,0.0,0.0,
2.3463,2.5893829305047293,2.746908263470377,2.6533197424699977,0.0,0.0,0.0,2.663203645481701,0.0,0.0,0.0,0.0,0.0,0.0,0.0,0.0,0.0,0.0,0.0,0.0,0.0,0.0,
2.3697,2.5905544806369827,2.748275597325724,2.654575862323762,0.0,0.0,0.0,2.664468646762156,0.0,0.0,0.0,0.0,0.0,0.0,0.0,0.0,0.0,0.0,0.0,0.0,0.0,0.0,
2.3932,2.5917453489980025,2.749665390086082,2.6558527131093657,0.0,0.0,0.0,2.6657544840644833,0.0,0.0,0.0,0.0,0.0,0.0,0.0,0.0,0.0,0.0,0.0,0.0,0.0,0.0,
2.4167,2.59295064802159,2.7510719330314117,2.6571450550035838,0.0,0.0,0.0,2.6670558786855287,0.0,0.0,0.0,0.0,0.0,0.0,0.0,0.0,0.0,0.0,0.0,0.0,0.0,0.0,
2.4401,2.5941652462375666,2.752489234205367,2.658447386356632,0.0,0.0,0.0,2.6683672889331884,0.0,0.0,0.0,0.0,0.0,0.0,0.0,0.0,0.0,0.0,0.0,0.0,0.0,0.0,
2.4636,2.595399616144981,2.7539295094187093,2.6597709366385214,0.0,0.0,0.0,2.6697000207340706,0.0,0.0,0.0,0.0,0.0,0.0,0.0,0.0,0.0,0.0,0.0,0.0,0.0,0.0,
2.4871,2.5966486912757922,2.7553868418696217,2.6611102739821115,0.0,0.0,0.0,2.671048602375842,0.0,0.0,0.0,0.0,0.0,0.0,0.0,0.0,0.0,0.0,0.0,0.0,0.0,0.0,
2.5105,2.5979071566595184,2.7568550263669325,2.6624596997360888,0.0,0.0,0.0,2.67240729425418,0.0,0.0,0.0,0.0,0.0,0.0,0.0,0.0,0.0,0.0,0.0,0.0,0.0,0.0,
2.534,2.59918586435073,2.758346718559833,2.6638308508496804,0.0,0.0,0.0,2.673787811253414,0.0,0.0,0.0,0.0,0.0,0.0,0.0,0.0,0.0,0.0,0.0,0.0,0.0,0.0,
2.5575,2.60047956572477,2.759855789890709,2.6652180999004647,0.0,0.0,0.0,2.675184485171981,0.0,0.0,0.0,0.0,0.0,0.0,0.0,0.0,0.0,0.0,0.0,0.0,0.0,0.0,
2.5809,2.6017827588249256,2.761375818011551,2.6666155474759075,0.0,0.0,0.0,2.6765913747707946,0.0,0.0,0.0,0.0,0.0,0.0,0.0,0.0,0.0,0.0,0.0,0.0,0.0,0.0,
2.6044,2.6031066828427964,2.7629199068357684,2.668035246171993,0.0,0.0,0.0,2.678020611950186,0.0,0.0,0.0,0.0,0.0,0.0,0.0,0.0,0.0,0.0,0.0,0.0,0.0,0.0,
2.6278,2.6044401722162727,2.764475028524054,2.669465223210243,0.0,0.0,0.0,2.679460141316857,0.0,0.0,0.0,0.0,0.0,0.0,0.0,0.0,0.0,0.0,0.0,0.0,0.0,0.0,
2.6513,2.6057947284435166,2.7660545904980154,2.670917812825297,0.0,0.0,0.0,2.68092237725561,0.0,0.0,0.0,0.0,0.0,0.0,0.0,0.0,0.0,0.0,0.0,0.0,0.0,0.0,
2.6748,2.60716479172475,2.7676521027374568,2.6723870534918617,0.0,0.0,0.0,2.6824013159846896,0.0,0.0,0.0,0.0,0.0,0.0,0.0,0.0,0.0,0.0,0.0,0.0,0.0,0.0,
2.6982,2.6085445403367253,2.7692607718521574,2.6738667024360296,0.0,0.0,0.0,2.6838906715416377,0.0,0.0,0.0,0.0,0.0,0.0,0.0,0.0,0.0,0.0,0.0,0.0,0.0,0.0,
2.7217,2.6099458764192964,2.770894468486327,2.6753695240834805,0.0,0.0,0.0,2.6854032896630344,0.0,0.0,0.0,0.0,0.0,0.0,0.0,0.0,0.0,0.0,0.0,0.0,0.0,0.0,
2.7452,2.611363048536273,2.7725464801976125,2.676889351129258,0.0,0.0,0.0,2.6869329599543814,0.0,0.0,0.0,0.0,0.0,0.0,0.0,0.0,0.0,0.0,0.0,0.0,0.0,0.0,
2.7686,2.6127900378250892,2.7742097850565837,2.6784197290912073,0.0,0.0,0.0,2.68847318399096,0.0,0.0,0.0,0.0,0.0,0.0,0.0,0.0,0.0,0.0,0.0,0.0,0.0,0.0,
2.7921,2.614239155729398,2.7758987264909623,2.679973861912033,0.0,0.0,0.0,2.6900372480441312,0.0,0.0,0.0,0.0,0.0,0.0,0.0,0.0,0.0,0.0,0.0,0.0,0.0,0.0,
2.8155,2.61569818553103,2.7775990589419997,2.681538648050548,0.0,0.0,0.0,2.6916119641745255,0.0,0.0,0.0,0.0,0.0,0.0,0.0,0.0,0.0,0.0,0.0,0.0,0.0,0.0,
2.839,2.617179716375148,2.779325446336353,2.6831275896627558,0.0,0.0,0.0,2.693210917458085,0.0,0.0,0.0,0.0,0.0,0.0,0.0,0.0,0.0,0.0,0.0,0.0,0.0,0.0,
2.8625,2.6186776688147804,2.7810707958735614,2.6847341671866563,0.0,0.0,0.0,2.6948275439583327,0.0,0.0,0.0,0.0,0.0,0.0,0.0,0.0,0.0,0.0,0.0,0.0,0.0,0.0,
2.8859,2.620185686186824,2.7828276944200985,2.686351563339287,0.0,0.0,0.0,2.6964549813154033,0.0,0.0,0.0,0.0,0.0,0.0,0.0,0.0,0.0,0.0,0.0,0.0,0.0,0.0,
2.9094,2.6217167823736656,2.7846112956559916,2.6879937364041346,0.0,0.0,0.0,2.6981072714779306,0.0,0.0,0.0,0.0,0.0,0.0,0.0,0.0,0.0,0.0,0.0,0.0,0.0,0.0,
2.9329,2.6232646755266043,2.786414272307658,2.6896539494338185,0.0,0.0,0.0,2.6997776324226934,0.0,0.0,0.0,0.0,0.0,0.0,0.0,0.0,0.0,0.0,0.0,0.0,0.0,0.0,
2.9563,2.624822800308685,2.7882289698439386,2.691325161006769,0.0,0.0,0.0,2.701458977053131,0.0,0.0,0.0,0.0,0.0,0.0,0.0,0.0,0.0,0.0,0.0,0.0,0.0,0.0,
2.9798,2.6264046052434353,2.7900710425443567,2.693021796189412,0.0,0.0,0.0,2.703165814659068,0.0,0.0,0.0,0.0,0.0,0.0,0.0,0.0,0.0,0.0,0.0,0.0,0.0,0.0,
3.0032,2.627996760823395,2.791924958676673,2.6947295582815682,0.0,0.0,0.0,2.7048837592605453,0.0,0.0,0.0,0.0,0.0,0.0,0.0,0.0,0.0,0.0,0.0,0.0,0.0,0.0,
3.0267,2.629613010876329,2.793806712294728,2.6964631895011597,0.0,0.0,0.0,2.7066276375574057,0.0,0.0,0.0,0.0,0.0,0.0,0.0,0.0,0.0,0.0,0.0,0.0,0.0,0.0,
3.0502,2.63124672642558,2.795708574426717,2.6982155800392045,0.0,0.0,0.0,2.708390293630501,0.0,0.0,0.0,0.0,0.0,0.0,0.0,0.0,0.0,0.0,0.0,0.0,0.0,0.0,
