energies(eV),real_xx,real_yy,real_zz,real_xy,real_yz,real_xz,real_ave,imag_xx,imag_yy,imag_zz,imag_xy,imag_yz,imag_xz,imag_ave,absorption_xx,absorption_yy,absorption_zz,absorption_xy,absorption_yz,absorption_xz,absorption_ave,band_gap
0.0,1.9908150376647462,1.9790460741946974,1.9823870145478022,-0.007219270455904779,0.013863748902596031,0.0012801127951081158,1.984082708802415,0.0,0.0,0.0,0.0,0.0,0.0,0.0,0.0,0.0,0.0,0.0,0.0,0.0,0.0,6.5004
0.0143,1.9908163540579777,1.9790473749688218,1.982388327165232,-0.0072192868250850585,0.013863768379029641,0.0012801118982834945,1.9840840187306774,0.0,0.0,0.0,0.0,0.0,0.0,0.0,0.0,0.0,0.0,123.14781518939756,0.0,0.0,0.0,
0.0286,1.9908203032674188,1.9790512773205444,1.9823922650472812,-0.00721933593327304,0.013863826808495221,0.0012801092075602606,1.9840879485450813,0.0,0.0,0.0,0.0,0.0,0.0,0.0,0.0,0.0,0.0,246.29646807314356,0.0,0.0,0.0,
0.0428,1.990826830211708,1.9790577268218792,1.9823987732707655,-0.007219417096353549,0.013863923375236654,0.0012801047597901895,1.984094443434784,0.0,0.0,0.0,0.0,0.0,0.0,0.0,0.0,0.0,0.0,368.58559753448816,0.0,0.0,0.0,
0.0571,1.9908360269673842,1.979066814456619,1.982407943648489,-0.007219531460681328,0.013864059440166691,0.0012800984910904254,1.9841035950241641,0.0,0.0,0.0,0.0,0.0,0.0,0.0,0.0,0.0,0.0,491.7384186339055,0.0,0.0,0.0,
0.0714,1.9908478569841248,1.979078504107711,1.9824197397354393,-0.007219678573689054,0.013864234460590246,0.0012800904247645874,1.984115366942425,0.0,0.0,0.0,0.0,0.0,0.0,0.0,0.0,0.0,0.0,614.8945851072411,0.0,0.0,0.0,
0.0857,1.9908623205294538,1.9790927960390317,1.9824341617990089,-0.00721985844119402,0.013864448437987224,0.0012800805585706002,1.9841297594558316,0.0,0.0,0.0,0.0,0.0,0.0,0.0,0.0,0.0,0.0,738.0549351044896,0.0,0.0,0.0,
0.1,1.9908794179304832,1.9791096905732222,1.9824512101661305,-0.007220071070309574,0.013864701374166583,0.0012800688897669167,1.9841467728899456,0.0,0.0,0.0,0.0,0.0,0.0,0.0,0.0,0.0,0.0,861.2203070039478,0.0,0.0,0.0,
0.1142,1.9908990024431823,1.9791290427067447,1.9824707385145137,-0.007220314639567229,0.013864991094747566,0.0012800555156186355,1.98416626122148,0.0,0.0,0.0,0.0,0.0,0.0,0.0,0.0,0.0,0.0,983.5301798849932,0.0,0.0,0.0,
0.1285,1.9909213503493017,1.9791511254423266,1.9824930223346233,-0.007220592589166947,0.01386532168275237,0.0012800402440389042,1.984188499375417,0.0,0.0,0.0,0.0,0.0,0.0,0.0,0.0,0.0,0.0,1106.708062102384,0.0,0.0,0.0,
0.1428,1.9909463334464577,1.979175812097846,1.9825179337929297,-0.007220903329420955,0.013865691236917168,0.0012800231586543517,1.9842133597790779,0.0,0.0,0.0,0.0,0.0,0.0,0.0,0.0,0.0,0.0,1229.893477313976,0.0,0.0,0.0,
0.1571,1.9909739522999437,1.9792031032308732,1.9825454734544365,-0.0072212468726271664,0.013866099760361876,0.001280004254723947,1.9842408429950844,0.0,0.0,0.0,0.0,0.0,0.0,0.0,0.0,0.0,0.0,1353.0872652666094,0.0,0.0,0.0,
0.1714,1.991004207534813,1.9792329994578979,1.982575641943853,-0.007221623232385035,0.013866547256534066,0.0012799835270046185,1.984270949645521,0.0,0.0,0.0,0.0,0.0,0.0,0.0,0.0,0.0,0.0,1476.290266164541,0.0,0.0,0.0,
0.1856,1.991036860662092,1.979265265118673,1.9826082014575208,-0.007222029448090797,0.013867030191963997,0.0012799611338597965,1.984303442412762,0.0,0.0,0.0,0.0,0.0,0.0,0.0,0.0,0.0,0.0,1598.6416541164533,0.0,0.0,0.0,
0.1999,1.9910723723251216,1.9793003553891322,1.982643611319872,-0.007222471257200625,0.013867555372635348,0.0012799367536815661,1.9843387796780416,0.0,0.0,0.0,0.0,0.0,0.0,0.0,0.0,0.0,0.0,1721.8655244672857,0.0,0.0,0.0,
0.2142,1.9911105225977668,1.9793380529513511,1.982681652237196,-0.007222945931358154,0.013868119538305862,0.0012799105310137362,1.984376742595438,0.0,0.0,0.0,0.0,0.0,0.0,0.0,0.0,0.0,0.0,1845.1011256922661,0.0,0.0,0.0,
0.2285,1.9911513123441344,1.9793783586575995,1.9827223250731398,-0.007223453489376252,0.013868722693726394,0.001279882458600306,1.984417332024958,0.0,0.0,0.0,0.0,0.0,0.0,0.0,0.0,0.0,0.0,1968.3493002819132,0.0,0.0,0.0,
0.2428,1.9911947424883445,1.9794212734193561,1.9827656307513126,-0.00722399395137824,0.013869364843972803,0.0012798525286789248,1.9844605488863376,0.0,0.0,0.0,0.0,0.0,0.0,0.0,0.0,0.0,0.0,2091.6108914148654,0.0,0.0,0.0,
0.257,1.9912404826626784,1.9794664707876959,1.9828112398529552,-0.007224563214727536,0.013870041095731839,0.0012798209618254033,1.9845060644344432,0.0,0.0,0.0,0.0,0.0,0.0,0.0,0.0,0.0,0.0,2214.0246226511745,0.0,0.0,0.0,
0.2713,1.991289178133013,1.979514588369124,1.9828597957972809,-0.007225169319832268,0.013870760979365881,0.0012797873047105909,1.9845545207664728,0.0,0.0,0.0,0.0,0.0,0.0,0.0,0.0,0.0,0.0,2337.3154708265442,0.0,0.0,0.0,
0.2856,1.9913405171263672,1.9795653180884774,1.9829109877073319,-0.007225808397004633,0.01387151987495454,0.0012797517638182777,1.9846056076407255,0.0,0.0,0.0,0.0,0.0,0.0,0.0,0.0,0.0,0.0,2460.622263759474,0.0,0.0,0.0,
0.2999,1.99139450080719,1.979618661094269,1.9829648167469327,-0.007226480471625062,0.01387231778886519,0.0012797143293527989,1.9846593262161305,0.0,0.0,0.0,0.0,0.0,0.0,0.0,0.0,0.0,0.0,2583.945847840684,0.0,0.0,0.0,
0.3142,1.991451130400352,1.9796746185946055,1.9830212841402726,-0.00722718557039704,0.01387315472778697,0.001279674991006283,1.9847156777117434,0.0,0.0,0.0,0.0,0.0,0.0,0.0,0.0,0.0,0.0,2707.287070382136,0.0,0.0,0.0,
0.3284,1.9915099834738943,1.979732773168899,1.9830799686680616,-0.007227918444629909,0.013874024437520657,0.0012796340331136863,1.9847742417702847,0.0,0.0,0.0,0.0,0.0,0.0,0.0,0.0,0.0,0.0,2829.784058209189,0.0,0.0,0.0,
0.3427,1.9915718902822106,1.9797939452152185,1.98314169821007,-0.007228689445679765,0.013874939174785219,0.0012795908675340684,1.9848358445691663,0.0,0.0,0.0,0.0,0.0,0.0,0.0,0.0,0.0,0.0,2953.162965359407,0.0,0.0,0.0,
0.357,1.9916364470306496,1.9798577357287412,1.9832060701313727,-0.007229493558743249,0.013875892958994156,0.001279545764145728,1.984900084296921,0.0,0.0,0.0,0.0,0.0,0.0,0.0,0.0,0.0,0.0,3076.562052954461,0.0,0.0,0.0,
0.3713,1.9917036551861473,1.9799241461563144,1.9832730858980894,-0.007230330815839255,0.01387688579811214,0.0012794987105802112,1.9849669624135169,0.0,0.0,0.0,0.0,0.0,0.0,0.0,0.0,0.0,0.0,3199.98217245555,0.0,0.0,0.0,
0.3856,1.9917735162765275,1.9799931780048565,1.983342747037179,-0.007231201250326477,0.013877917700420584,0.001279449693948908,1.985036480439521,0.0,0.0,0.0,0.0,0.0,0.0,0.0,0.0,0.0,0.0,3323.424176481578,0.0,0.0,0.0,
0.3998,1.9918455155679988,1.9800643226477734,1.9834145402913606,-0.007232098462303841,0.013878981049507914,0.0012793990643309259,1.9851081261690444,0.0,0.0,0.0,0.0,0.0,0.0,0.0,0.0,0.0,0.0,3446.0254481298257,0.0,0.0,0.0,
0.4141,1.9919206687752022,1.9801385837399494,1.9834894784723995,-0.0072330351243949514,0.013880090830981082,0.0012793460947817972,1.9851829103291838,0.0,0.0,0.0,0.0,0.0,0.0,0.0,0.0,0.0,0.0,3569.5136159716553,0.0,0.0,0.0,
0.4284,1.9919984798550168,1.980215471123211,1.9835670669607262,-0.007234005071764307,0.01388123970231508,0.0012792911204658017,1.9852603393129844,0.0,0.0,0.0,0.0,0.0,0.0,0.0,0.0,0.0,0.0,3693.026227627094,0.0,0.0,0.0,
0.4427,1.9920789505795327,1.9802949865453638,1.9836473075273866,-0.007235008343159466,0.013882427673046144,0.0012792341263994276,1.9853404148840943,0.0,0.0,0.0,0.0,0.0,0.0,0.0,0.0,0.0,0.0,3816.564140816177,0.0,0.0,0.0,
0.457,1.9921620827823134,1.9803771318148795,1.9837302020048968,-0.007236044978688074,0.01388365475302227,0.0012791750970695514,1.985423138867363,0.0,0.0,0.0,0.0,0.0,0.0,0.0,0.0,0.0,0.0,3940.128214657168,0.0,0.0,0.0,
0.4712,1.9922472691376605,1.9804613068130554,1.9838151448080457,-0.007237107420933367,0.01388491196201176,0.0012791144507289115,1.9855079069195873,0.0,0.0,0.0,0.0,0.0,0.0,0.0,0.0,0.0,0.0,4062.8549405166927,0.0,0.0,0.0,
0.4855,1.9923357113987334,1.980548699021955,1.9839033342585397,-0.00723821067645839,0.01388621701758817,0.0012790513167233038,1.985595914893076,0.0,0.0,0.0,0.0,0.0,0.0,0.0,0.0,0.0,0.0,4186.473720868668,0.0,0.0,0.0,
0.4998,1.992426820994765,1.9806387268546626,1.9839941834730959,-0.007239347424333144,0.013887561213732066,0.0012789860978373083,1.9856865771075078,0.0,0.0,0.0,0.0,0.0,0.0,0.0,0.0,0.0,0.0,4310.121242060709,0.0,0.0,0.0,
0.5141,1.9925206000062285,1.9807313923631562,1.984087694530933,-0.007240517710143364,0.013888944561521363,0.001278918776421254,1.9857798956334392,0.0,0.0,0.0,0.0,0.0,0.0,0.0,0.0,0.0,0.0,4433.798369282362,0.0,0.0,0.0,
0.5284,1.9926170505758105,1.9808266976607491,1.9841838695734424,-0.00724172158085915,0.013890367072338638,0.0012788493342844938,1.9858758726033339,0.0,0.0,0.0,0.0,0.0,0.0,0.0,0.0,0.0,0.0,4557.505969366941,0.0,0.0,0.0,
0.5426,1.992715472442767,1.9809239507982341,1.9842820103445638,-0.007242950314076141,0.013891818400248146,0.0012787782607359959,1.9859738111951881,0.0,0.0,0.0,0.0,0.0,0.0,0.0,0.0,0.0,0.0,4680.379492733124,0.0,0.0,0.0,
0.5569,1.99281725408474,1.9810245237613615,1.9843835013614528,-0.0072442212653568375,0.013893318998404184,0.0012787045355737575,1.9860750930691848,0.0,0.0,0.0,0.0,0.0,0.0,0.0,0.0,0.0,0.0,4804.150417586197,0.0,0.0,0.0,
0.5712,1.9929217140711957,1.9811277432069567,1.9844876631452044,-0.0072455259504521615,0.013894858795460497,0.0012786286319883705,1.9861790401411188,0.0,0.0,0.0,0.0,0.0,0.0,0.0,0.0,0.0,0.0,4927.954420060103,0.0,0.0,0.0,
0.5855,1.9930288547948423,1.9812336114949032,1.9845944980869983,-0.007246864421915553,0.01389643780400017,0.001278550529603398,1.9862856547922478,0.0,0.0,0.0,0.0,0.0,0.0,0.0,0.0,0.0,0.0,5051.792374051389,0.0,0.0,0.0,
0.5998,1.9931386787114072,1.9813421310472603,1.984704008641013,-0.0072482367337131925,0.013898056036902397,0.0012784702074882719,1.9863949394665603,0.0,0.0,0.0,0.0,0.0,0.0,0.0,0.0,0.0,0.0,5175.665155351821,0.0,0.0,0.0,
0.614,1.993250392228374,1.981452517692986,1.9848154034838363,-0.007249632989793456,0.013899701780373332,0.0012783882293534278,1.9865061044683987,0.0,0.0,0.0,0.0,0.0,0.0,0.0,0.0,0.0,0.0,5298.70702279027,0.0,0.0,0.0,
0.6283,1.9933655713426848,1.9815663287054766,1.984930254122368,-0.007251072912210211,0.01390139822728593,0.0012783034186596525,1.986620718056843,0.0,0.0,0.0,0.0,0.0,0.0,0.0,0.0,0.0,0.0,5422.651835024718,0.0,0.0,0.0,
0.6426,1.9934834413784883,1.9816827986049592,1.9850477880967072,-0.007252546844987759,0.01390313393886278,0.0012782163222493702,1.9867380093600515,0.0,0.0,0.0,0.0,0.0,0.0,0.0,0.0,0.0,0.0,5546.634107654761,0.0,0.0,0.0,
0.6569,1.993604005045103,1.9818019300636012,1.9851680081144008,-0.007254054847797456,0.013904908929148935,0.0012781269169493564,1.9868579810743683,0.0,0.0,0.0,0.0,0.0,0.0,0.0,0.0,0.0,0.0,5670.654724552863,0.0,0.0,0.0,
0.6712,1.9937272651158597,1.9819237258166615,1.9852909169469242,-0.007255596981756177,0.013906723212476189,0.0012780351790169606,1.9869806359598152,0.0,0.0,0.0,0.0,0.0,0.0,0.0,0.0,0.0,0.0,5794.714571745102,0.0,0.0,0.0,
0.6854,1.9938523342153642,1.9820473090263384,1.9854156297526546,-0.007257162167293788,0.013908563704774519,0.0012779417503834295,1.987105090998119,0.0,0.0,0.0,0.0,0.0,0.0,0.0,0.0,0.0,0.0,5917.946564189445,0.0,0.0,0.0,
0.6997,1.9939809767650734,1.9821744231464695,1.9855439059328575,-0.007258772512928629,0.013910456343282716,0.001277845290407843,1.9872331019481333,0.0,0.0,0.0,0.0,0.0,0.0,0.0,0.0,0.0,0.0,6042.087249052828,0.0,0.0,0.0,
0.714,1.9941123244040244,1.9823042101269284,1.9856748796071022,-0.007260417181344883,0.013912388319422571,0.001277746423301869,1.987363804712685,0.0,0.0,0.0,0.0,0.0,0.0,0.0,0.0,0.0,0.0,6166.269829486967,0.0,0.0,0.0,
0.7283,1.9942463801631947,1.9824366729571026,1.9858085538042893,-0.0072620962395037,0.013914359648650954,0.0012776451230153512,1.9874972023081954,0.0,0.0,0.0,0.0,0.0,0.0,0.0,0.0,0.0,0.0,6290.495200645507,0.0,0.0,0.0,
0.7426,1.9943831471386757,1.9825718146905502,1.9859449316183209,-0.0072638097558490565,0.013916370346701679,0.0012775413629113558,1.987633297815849,0.0,0.0,0.0,0.0,0.0,0.0,0.0,0.0,0.0,0.0,6414.764260102018,0.0,0.0,0.0,
0.7568,1.9945216436658946,1.9827086653233574,1.9860830341833777,-0.00726554545618087,0.013918405956554249,0.0012774358674484895,1.9877711143908765,0.0,0.0,0.0,0.0,0.0,0.0,0.0,0.0,0.0,0.0,6538.208424802324,0.0,0.0,0.0,
0.7711,1.9946638236081107,1.982849155493097,1.9862248098116626,-0.007267327857995003,0.013920495164953035,0.001277327123117511,1.98791259630429,0.0,0.0,0.0,0.0,0.0,0.0,0.0,0.0,0.0,0.0,6662.567242268777,0.0,0.0,0.0,
0.7854,1.9948087244244572,1.9829923340912998,1.9863692987077193,-0.007269144931788491,0.01392262379089116,0.0012772158357009862,1.9880567857411588,0.0,0.0,0.0,0.0,0.0,0.0,0.0,0.0,0.0,0.0,6786.972449479362,0.0,0.0,0.0,
0.7997,1.994956349473246,1.9831382044301487,1.986516504227422,-0.007270996752006819,0.013924791851180734,0.001277101976181267,1.9882036860436056,0.0,0.0,0.0,0.0,0.0,0.0,0.0,0.0,0.0,0.0,6911.424954215631,0.0,0.0,0.0,
0.814,1.9951067021791156,1.983286769887212,1.9866664297928747,-0.007272883394619964,0.013926999362898122,0.0012769855149343734,1.9883533006197343,0.0,0.0,0.0,0.0,0.0,0.0,0.0,0.0,0.0,0.0,7035.925666954189,0.0,0.0,0.0,
0.8282,1.9952587060259246,1.9834369667377514,1.9868180019520176,-0.007274791378415249,0.013929230493152263,0.001276867263754846,1.9885045582385645,0.0,0.0,0.0,0.0,0.0,0.0,0.0,0.0,0.0,0.0,7159.6043504002055,0.0,0.0,0.0,
0.8425,1.9954145054499746,1.9835909139188146,1.986973359058375,-0.007276747654984203,0.013931516683805534,0.0012767455264659688,1.9886595928090547,0.0,0.0,0.0,0.0,0.0,0.0,0.0,0.0,0.0,0.0,7284.203868536852,0.0,0.0,0.0,
0.8568,1.9955730431797942,1.983747566720416,1.9871314468511403,-0.0072787389905255365,0.013933842378545256,0.0012766210951213885,1.9888173522504502,0.0,0.0,0.0,0.0,0.0,0.0,0.0,0.0,0.0,0.0,7408.854336404516,0.0,0.0,0.0,
0.8711,1.9957343229073756,1.9839069287837883,1.9872922690194579,-0.007280765467187099,0.01393620759547395,0.0012764939376343997,1.988977840236874,0.0,0.0,0.0,0.0,0.0,0.0,0.0,0.0,0.0,0.0,7533.5566758060995,0.0,0.0,0.0,
0.8854,1.995898348392355,1.9840690038168483,1.9874558293200268,-0.007282827168687971,0.01393861235294383,0.0012763640212903767,1.9891410605097433,0.0,0.0,0.0,0.0,0.0,0.0,0.0,0.0,0.0,0.0,7658.311811524813,0.0,0.0,0.0,
0.8996,1.9960639476474218,1.98423263376298,1.987620959095384,-0.007284909393112908,0.013941039439035841,0.0012762322505468562,1.989305846835262,0.0,0.0,0.0,0.0,0.0,0.0,0.0,0.0,0.0,0.0,7782.24769347423,0.0,0.0,0.0,
0.9139,1.996233456929346,1.98440012708891,1.9877899879868157,-0.007287041553946503,0.01394352305679332,0.0012760967356935876,1.9894745240016907,0.0,0.0,0.0,0.0,0.0,0.0,0.0,0.0,0.0,0.0,7907.110822947612,0.0,0.0,0.0,
0.9282,1.9964057236283956,1.984570344883862,1.987961766660903,-0.007289209199678694,0.0139460462714824,0.001275958360270174,1.9896459450577204,0.0,0.0,0.0,0.0,0.0,0.0,0.0,0.0,0.0,0.0,8032.029535012464,0.0,0.0,0.0,
0.9425,1.996580751777245,1.9847432911250047,1.988136299147023,-0.007291412420403085,0.013948609102421634,0.0012758170890080733,1.989820114016424,0.0,0.0,0.0,0.0,0.0,0.0,0.0,0.0,0.0,0.0,8157.004766939194,0.0,0.0,0.0,
0.9568,1.9967585454777024,1.9849189698576781,1.9883135895435897,-0.007293651307835942,0.013951211569163692,0.0012756728859867406,1.9899970349596565,0.0,0.0,0.0,0.0,0.0,0.0,0.0,0.0,0.0,0.0,8282.037459274787,0.0,0.0,0.0,
0.971,1.9969378365933772,1.9850961280247548,1.9884923733103324,-0.007295909924322711,0.013953835077379547,0.001275526754190706,1.9901754459761547,0.0,0.0,0.0,0.0,0.0,0.0,0.0,0.0,0.0,0.0,8406.253588024492,0.0,0.0,0.0,
0.9853,1.997121154567361,1.9852772649697514,1.9886751727410028,-0.0072982201757998445,0.013956516597781904,0.0012753765984050208,1.990357864092705,0.0,0.0,0.0,0.0,0.0,0.0,0.0,0.0,0.0,0.0,8531.4036178872,0.0,0.0,0.0,
0.9996,1.997307250785994,1.9854611469245196,1.9888607427643854,-0.007300566378301074,0.013959237813871688,0.001275223399403055,1.9905430468249665,0.0,0.0,0.0,0.0,0.0,0.0,0.0,0.0,0.0,0.0,8656.613943409939,0.0,0.0,0.0,
1.0139,1.9974961296303508,1.9856477782097848,1.9890490877577496,-0.00730294863013483,0.013961998746100619,0.0012750671186093426,1.9907309985326282,0.0,0.0,0.0,0.0,0.0,0.0,0.0,0.0,0.0,0.0,8781.885518835015,0.0,0.0,0.0,
1.0282,1.9976877955522823,1.9858371632160603,1.989240212169029,-0.007305367031289488,0.013964799415136467,0.0012749077167700147,1.9909217236457906,0.0,0.0,0.0,0.0,0.0,0.0,0.0,0.0,0.0,0.0,8907.219301990255,0.0,0.0,0.0,
1.0424,1.9978808835288095,1.9860279531583598,1.9894327548382154,-0.0073078043919433365,0.013967619840646123,0.0012747463018184997,1.991113863841795,0.0,0.0,0.0,0.0,0.0,0.0,0.0,0.0,0.0,0.0,9031.739131036982,0.0,0.0,0.0,
1.0567,1.9980781176763562,1.9862228397234662,1.9896294321972272,-0.007310295143897426,0.013970499767897241,0.0012745805599159244,1.9913101298656832,0.0,0.0,0.0,0.0,0.0,0.0,0.0,0.0,0.0,0.0,9157.19976594457,0.0,0.0,0.0,
1.071,1.9982781526523006,1.986420493570836,1.9898289027125555,-0.007312822354600309,0.01397341949506672,0.0012744115753701578,1.9915091829785638,0.0,0.0,0.0,0.0,0.0,0.0,0.0,0.0,0.0,0.0,9282.725497428139,0.0,0.0,0.0,
1.0853,1.9984809931945966,1.9866209193730953,1.9900311711177987,-0.007315386130872625,0.01397637904364571,0.0012742393061612408,1.9917110278951633,0.0,0.0,0.0,0.0,0.0,0.0,0.0,0.0,0.0,0.0,9408.317298271508,0.0,0.0,0.0,
1.0996,1.9986866441137874,1.9868241218744143,1.990236242218979,-0.007317986581278259,0.013979378435321415,0.0012740637095615657,1.9919156694023936,0.0,0.0,0.0,0.0,0.0,0.0,0.0,0.0,0.0,0.0,9533.976145166944,0.0,0.0,0.0,
1.1138,1.9988936427017778,1.9870286557744348,1.9904426574384786,-0.007320605245960635,0.013982396299965864,0.001273886005455445,1.9921216519715639,0.0,0.0,0.0,0.0,0.0,0.0,0.0,0.0,0.0,0.0,9658.823571413755,0.0,0.0,0.0,
1.1281,1.999104909359326,1.9872374066919938,1.9906533289558754,-0.007323279118952919,0.013985475164651744,0.0012737036470662994,1.992331881669065,0.0,0.0,0.0,0.0,0.0,0.0,0.0,0.0,0.0,0.0,9784.61897043046,0.0,0.0,0.0,
1.1424,1.9993190012291409,1.9874489489392513,1.990866817990323,-0.007325990001561352,0.01398859393847215,0.0012735178291122852,1.9925449227195717,0.0,0.0,0.0,0.0,0.0,0.0,0.0,0.0,0.0,0.0,9910.484362764473,0.0,0.0,0.0,
1.1567,1.9995359234153276,1.9876632875498488,1.9910831296409066,-0.007328738009445865,0.01399175264385318,0.0012733285059777029,1.9927607802020277,0.0,0.0,0.0,0.0,0.0,0.0,0.0,0.0,0.0,0.0,10036.420741382735,0.0,0.0,0.0,
1.171,1.9997556810965338,1.9878804276309059,1.9913022690811033,-0.007331523260078994,0.013994951303393897,0.0012731356313073333,1.9929794592695143,0.0,0.0,0.0,0.0,0.0,0.0,0.0,0.0,0.0,0.0,10162.429103498755,0.0,0.0,0.0,
1.1852,1.9999767130184731,1.988098826517469,1.9915226794553829,-0.007334326004208529,0.013998167153200052,0.001272940544543452,1.993199406330442,0.0,0.0,0.0,0.0,0.0,0.0,0.0,0.0,0.0,0.0,10287.628507174231,0.0,0.0,0.0,
1.1995,2.000202137604448,1.9883215654746365,1.9917474704274276,-0.007337185837534138,0.014001445509728622,0.001272740450411562,1.9934237245021709,0.0,0.0,0.0,0.0,0.0,0.0,0.0,0.0,0.0,0.0,10413.783324338925,0.0,0.0,0.0,
1.2138,2.0004304136345574,1.9885471216310218,1.9919751051218615,-0.007340083276181374,0.01400476388904508,0.0012725366615153,1.993650880129147,0.0,0.0,0.0,0.0,0.0,0.0,0.0,0.0,0.0,0.0,10540.013135739566,0.0,0.0,0.0,
1.2281,2.000661546589166,1.9887755003912275,1.9922055890132868,-0.007343018445008371,0.014008122314392218,0.0012723291284777924,1.9938808786645599,0.0,0.0,0.0,0.0,0.0,0.0,0.0,0.0,0.0,0.0,10666.318956247282,0.0,0.0,0.0,
1.2424,2.0008955420252805,1.9890067072354203,1.9924389276527839,-0.007345991470761643,0.014011520809161373,0.001272117801147732,1.9941137256378283,0.0,0.0,0.0,0.0,0.0,0.0,0.0,0.0,0.0,0.0,10792.701805334686,0.0,0.0,0.0,
1.2566,2.001130739217139,1.9892391012215331,1.9926734649825297,-0.007348981293880707,0.01401493521155925,0.001271904146764677,1.9943477684737339,0.0,0.0,0.0,0.0,0.0,0.0,0.0,0.0,0.0,0.0,10918.278091804632,0.0,0.0,0.0,
1.2709,2.001370456479382,1.9894759611038928,1.9929125100171048,-0.007352030154355146,0.014018413635293924,0.001271685104693141,1.9945863092001266,0.0,0.0,0.0,0.0,0.0,0.0,0.0,0.0,0.0,0.0,11044.817518639917,0.0,0.0,0.0,
