energies(eV),real_xx,real_yy,real_zz,real_xy,real_yz,real_xz,real_ave,imag_xx,imag_yy,imag_zz,imag_xy,imag_yz,imag_xz,imag_ave,absorption_xx,absorption_yy,absorption_zz,absorption_xy,absorption_yz,absorption_xz,absorption_ave,band_gap
0.0,3.483036214682976,3.51537227499989,3.6008856494495114,0.0,0.0,-0.03126597502082894,3.533098046377459,0.0,0.0,0.0,0.0,0.0,0.0,0.0,0.0,0.0,0.0,0.0,0.0,0.0,0.0,4.1272
0.017,3.483046064385786,3.5153808814722916,3.6008961546228804,0.0,0.0,-0.0312661630410454,3.5331077001603197,0.0,0.0,0.0,0.0,0.0,0.0,0.0,0.0,0.0,0.0,0.0,0.0,304.67003388723583,0.0,
0.0339,3.483075382806058,3.5154064992155973,3.600927424115723,0.0,0.0,-0.0312667226991958,3.533136435379126,0.0,0.0,0.0,0.0,0.0,0.0,0.0,0.0,0.0,0.0,0.0,0.0,607.5533285739127,0.0,
0.0509,3.4831245191087294,3.5154494330102515,3.600979830367087,0.0,0.0,-0.03126766066376785,3.533184594162023,0.0,0.0,0.0,0.0,0.0,0.0,0.0,0.0,0.0,0.0,0.0,0.0,912.2397719630825,0.0,
0.0678,3.483192898859001,3.515509180417441,3.6010527607771516,0.0,0.0,-0.031268965974797995,3.5332516133511978,0.0,0.0,0.0,0.0,0.0,0.0,0.0,0.0,0.0,0.0,0.0,0.0,1215.1502461458488,0.0,
0.0848,3.483281336420295,3.515586452267178,3.6011470839937316,0.0,0.0,-0.03127065418546615,3.533338290893735,0.0,0.0,0.0,0.0,0.0,0.0,0.0,0.0,0.0,0.0,0.0,0.0,1519.8749635262077,0.0,
0.1017,3.48338879790318,3.515680344276083,3.6012616974336455,0.0,0.0,-0.031272705569346186,3.533443613204303,0.0,0.0,0.0,0.0,0.0,0.0,0.0,0.0,0.0,0.0,0.0,0.0,1822.8343598722333,0.0,
0.1187,3.483516563115542,3.515791973503307,3.6013979662202256,0.0,0.0,-0.03127514456936991,3.5335688342796914,0.0,0.0,0.0,0.0,0.0,0.0,0.0,0.0,0.0,0.0,0.0,0.0,2127.619231680349,0.0,
0.1357,3.4836640637844503,3.5159208420685313,3.601555284426573,0.0,0.0,-0.03127796035189259,3.5337133967598517,0.0,0.0,0.0,0.0,0.0,0.0,0.0,0.0,0.0,0.0,0.0,0.0,2432.442514399068,0.0,
0.1526,3.483830269421552,3.5160660481285224,3.601732553162052,0.0,0.0,-0.03128113326099288,3.5338762902373753,0.0,0.0,0.0,0.0,0.0,0.0,0.0,0.0,0.0,0.0,0.0,0.0,2735.5162449930067,0.0,
0.1696,3.484017159458481,3.516229319247797,3.6019318838313046,0.0,0.0,-0.03128470110319245,3.5340594541791943,0.0,0.0,0.0,0.0,0.0,0.0,0.0,0.0,0.0,0.0,0.0,0.0,3040.4325850294235,0.0,
0.1865,3.4842225490595977,3.5164087447407617,3.60215094640235,0.0,0.0,-0.031288622189362084,3.5342607467342364,0.0,0.0,0.0,0.0,0.0,0.0,0.0,0.0,0.0,0.0,0.0,0.0,3343.609735735745,0.0,
0.2035,3.4844488843336197,3.5166064593008035,3.6023923500922166,0.0,0.0,-0.031292943241127816,3.5344825645755464,0.0,0.0,0.0,0.0,0.0,0.0,0.0,0.0,0.0,0.0,0.0,0.0,3648.6410934540068,0.0,
0.2205,3.4846950251595823,3.516821464495483,3.6026548791801574,0.0,0.0,-0.03129764251807539,3.534723789611741,0.0,0.0,0.0,0.0,0.0,0.0,0.0,0.0,0.0,0.0,0.0,0.0,3953.7384119261037,0.0,
0.2374,3.484959367569557,3.517052356733762,3.6029368232138794,0.0,0.0,-0.031302689423923835,3.5349828491723994,0.0,0.0,0.0,0.0,0.0,0.0,0.0,0.0,0.0,0.0,0.0,0.0,4257.111901997998,0.0,
0.2544,3.4852450598119034,3.5173018830503446,3.603241540420508,0.0,0.0,-0.03130814409563208,3.5352628277609184,0.0,0.0,0.0,0.0,0.0,0.0,0.0,0.0,0.0,0.0,0.0,0.0,4562.357304216277,0.0,
0.2713,3.485548762067332,3.5175671233941523,3.603565468945811,0.0,0.0,-0.03131394279820911,3.535560451469099,0.0,0.0,0.0,0.0,0.0,0.0,0.0,0.0,0.0,0.0,0.0,0.0,4865.888982647497,0.0,
0.2883,3.4858740913820374,3.5178512334758354,3.603912467129726,0.0,0.0,-0.03132015462733252,3.5358792639958665,0.0,0.0,0.0,0.0,0.0,0.0,0.0,0.0,0.0,0.0,0.0,0.0,5171.304566564427,0.0,
0.3052,3.486217244605396,3.5181508885549198,3.604278478935172,0.0,0.0,-0.03132670700170305,3.5362155373651625,0.0,0.0,0.0,0.0,0.0,0.0,0.0,0.0,0.0,0.0,0.0,0.0,5475.016435603084,0.0,
0.3222,3.4865823086802803,3.5184696538191953,3.604667864006967,0.0,0.0,-0.03133367799831119,3.5365732755021475,0.0,0.0,0.0,0.0,0.0,0.0,0.0,0.0,0.0,0.0,0.0,0.0,5780.624370493382,0.0,
0.3392,3.486967339318871,3.518805827444623,3.605078549036807,0.0,0.0,-0.03134103053325573,3.5369505719334335,0.0,0.0,0.0,0.0,0.0,0.0,0.0,0.0,0.0,0.0,0.0,0.0,6086.337135751411,0.0,
0.3561,3.487369924639092,3.5191572997046063,3.605507961923656,0.0,0.0,-0.03134871858963017,3.537345062089118,0.0,0.0,0.0,0.0,0.0,0.0,0.0,0.0,0.0,0.0,0.0,0.0,6390.361043853854,0.0,
0.3731,3.487794859503146,3.5195282523419893,3.6059612175925215,0.0,0.0,-0.03135683377859786,3.537761443145886,0.0,0.0,0.0,0.0,0.0,0.0,0.0,0.0,0.0,0.0,0.0,0.0,6696.299601320444,0.0,
0.39,3.488237176503584,3.519914344450783,3.606433018137372,0.0,0.0,-0.031365281282038075,3.538194846363913,0.0,0.0,0.0,0.0,0.0,0.0,0.0,0.0,0.0,0.0,0.0,0.0,7000.559089747046,0.0,
0.407,3.4887021437846366,3.5203201697174693,3.6069289834612612,0.0,0.0,-0.03137416176202312,3.538650432321122,0.0,0.0,0.0,0.0,0.0,0.0,0.0,0.0,0.0,0.0,0.0,0.0,7306.745828578965,0.0,
0.424,3.48918723846349,3.520743520798146,3.6074464231591303,0.0,0.0,-0.03138342708879684,3.539125727473589,0.0,0.0,0.0,0.0,0.0,0.0,0.0,0.0,0.0,0.0,0.0,0.0,7613.065485615789,0.0,
0.4409,3.489689466320175,3.5211817797090434,3.6079821439755797,0.0,0.0,-0.03139302012257448,3.539617796668266,0.0,0.0,0.0,0.0,0.0,0.0,0.0,0.0,0.0,0.0,0.0,0.0,7917.720619704249,0.0,
0.4579,3.4902148091924086,3.5216401608961063,3.6085425273599254,0.0,0.0,-0.031403055178286336,3.5401324991494802,0.0,0.0,0.0,0.0,0.0,0.0,0.0,0.0,0.0,0.0,0.0,0.0,8224.32227458423,0.0,
0.4748,3.4907571261544885,3.5221133005043312,3.609121023500422,0.0,0.0,-0.031413415010325865,3.5406638167197477,0.0,0.0,0.0,0.0,0.0,0.0,0.0,0.0,0.0,0.0,0.0,0.0,8529.269000303117,0.0,
0.4918,3.491322876637311,3.52260682806037,3.6097245235035533,0.0,0.0,-0.03142422307312951,3.541218076067078,0.0,0.0,0.0,0.0,0.0,0.0,0.0,0.0,0.0,0.0,0.0,0.0,8836.175322514382,0.0,
0.5087,3.491905447490916,3.5231149685072407,3.610345973737181,0.0,0.0,-0.031435353091711034,3.541788796578446,0.0,0.0,0.0,0.0,0.0,0.0,0.0,0.0,0.0,0.0,0.0,0.0,9141.436239064136,0.0,
0.5257,3.4925117777272403,3.523643767897205,3.6109927771229438,0.0,0.0,-0.03144693770085316,3.542382774249129,0.0,0.0,0.0,0.0,0.0,0.0,0.0,0.0,0.0,0.0,0.0,0.0,9448.670027472137,0.0,
0.5427,3.493138526537719,3.5241903053770867,3.611661370771445,0.0,0.0,-0.031458913143757004,3.54299673422875,0.0,0.0,0.0,0.0,0.0,0.0,0.0,0.0,0.0,0.0,0.0,0.0,9756.076658574268,0.0,
0.5596,3.4937818750012126,3.524751244506804,3.6123476815950997,0.0,0.0,-0.03147120651422357,3.5436269337010384,0.0,0.0,0.0,0.0,0.0,0.0,0.0,0.0,0.0,0.0,0.0,0.0,10061.85206059969,0.0,
0.5766,3.4944494862790663,3.5253332596980442,3.6130598854129574,0.0,0.0,-0.031483964314703586,3.5442808771300225,0.0,0.0,0.0,0.0,0.0,0.0,0.0,0.0,0.0,0.0,0.0,0.0,10369.620654936341,0.0,
0.5935,3.4951335569396327,3.5259295406869007,3.6137896585139964,0.0,0.0,-0.031497037497756675,3.54495091871351,0.0,0.0,0.0,0.0,0.0,0.0,0.0,0.0,0.0,0.0,0.0,0.0,10675.76738644858,0.0,
0.6105,3.495842235375365,3.526547182512756,3.614545694668056,0.0,0.0,-0.031510581862218244,3.545645037518726,0.0,0.0,0.0,0.0,0.0,0.0,0.0,0.0,0.0,0.0,0.0,0.0,10983.921111019496,0.0,
0.6274,3.4965672383211412,3.527178958151627,3.615319158092439,0.0,0.0,-0.03152443917472348,3.5463551181884028,0.0,0.0,0.0,0.0,0.0,0.0,0.0,0.0,0.0,0.0,0.0,0.0,11290.46228362495,0.0,
0.6444,3.4973172019356964,3.527832385108768,3.6161192632615755,0.0,0.0,-0.031538774582537496,3.5470896167686803,0.0,0.0,0.0,0.0,0.0,0.0,0.0,0.0,0.0,0.0,0.0,0.0,11599.024470796849,0.0,
0.6614,3.498087955351685,3.5285038201211303,3.616941561658429,0.0,0.0,-0.03155350845190252,3.5478444457104144,0.0,0.0,0.0,0.0,0.0,0.0,0.0,0.0,0.0,0.0,0.0,0.0,11907.80033063176,0.0,
0.6783,3.498874840952368,3.529189198048172,3.617781085196064,0.0,0.0,-0.03156855182211597,3.548615041398868,0.0,0.0,0.0,0.0,0.0,0.0,0.0,0.0,0.0,0.0,0.0,0.0,12214.977523930467,0.0,
0.6953,3.499687232380614,3.529896674422132,3.6186478357316885,0.0,0.0,-0.03158408398185989,3.5494105808448118,0.0,0.0,0.0,0.0,0.0,0.0,0.0,0.0,0.0,0.0,0.0,0.0,12524.197213286116,0.0,
0.7122,3.5005156347243274,3.5306179714263615,3.6195316842290675,0.0,0.0,-0.031599923485912555,3.5502217634599185,0.0,0.0,0.0,0.0,0.0,0.0,0.0,0.0,0.0,0.0,0.0,0.0,12831.827427299617,0.0,
0.7292,3.5013699164465795,3.5313616721655676,3.620443160915354,0.0,0.0,-0.03161625911613472,3.5510582498425003,0.0,0.0,0.0,0.0,0.0,0.0,0.0,0.0,0.0,0.0,0.0,0.0,13141.514739283126,0.0,
0.7462,3.5022453044951565,3.5321236105587657,3.621377174620323,0.0,0.0,-0.03163299970705501,3.5519153632247487,0.0,0.0,0.0,0.0,0.0,0.0,0.0,0.0,0.0,0.0,0.0,0.0,13451.445573272413,0.0,
0.7631,3.503136531705541,3.532899193298047,3.6223281066098947,0.0,0.0,-0.03165004461500257,3.5527879438711607,0.0,0.0,0.0,0.0,0.0,0.0,0.0,0.0,0.0,0.0,0.0,0.0,13759.800658173359,0.0,
0.7801,3.5040542153984298,3.5336976497390893,3.623307286856653,0.0,0.0,-0.0316675969965571,3.5536863839980573,0.0,0.0,0.0,0.0,0.0,0.0,0.0,0.0,0.0,0.0,0.0,0.0,14070.235225324952,0.0,
0.797,3.5049876308038077,3.534509638020555,3.624303273306615,0.0,0.0,-0.03168545182034917,3.554600180710326,0.0,0.0,0.0,0.0,0.0,0.0,0.0,0.0,0.0,0.0,0.0,0.0,14379.103142368513,0.0,
0.814,3.50594789816892,3.535344820924927,3.6253279331163903,0.0,0.0,-0.03170382190235918,3.5555402174034128,0.0,0.0,0.0,0.0,0.0,0.0,0.0,0.0,0.0,0.0,0.0,0.0,14690.065766346614,0.0,
0.8309,3.506923795403405,3.5361934271075186,3.626369293181276,0.0,0.0,-0.03172249266589858,3.556495505230733,0.0,0.0,0.0,0.0,0.0,0.0,0.0,0.0,0.0,0.0,0.0,0.0,14999.470810171188,0.0,
0.8479,3.5079269492269,3.537065555333664,3.627439761698946,0.0,0.0,-0.03174168665901392,3.5574774220865035,0.0,0.0,0.0,0.0,0.0,0.0,0.0,0.0,0.0,0.0,0.0,0.0,15310.98604706611,0.0,
0.8649,3.5089517282381077,3.537956296433649,3.6285333312017096,0.0,0.0,-0.03176129625703107,3.558480451957822,0.0,0.0,0.0,0.0,0.0,0.0,0.0,0.0,0.0,0.0,0.0,0.0,15622.787726510765,0.0,
0.8818,3.5099919948563953,3.5388603052698335,3.629643453547245,0.0,0.0,-0.031781204109390705,3.5594985845578244,0.0,0.0,0.0,0.0,0.0,0.0,0.0,0.0,0.0,0.0,0.0,0.0,15933.045399611634,0.0,
0.8988,3.5110601433101936,3.539788340302433,3.6307833569677532,0.0,0.0,-0.03180164752107269,3.5605439468601268,0.0,0.0,0.0,0.0,0.0,0.0,0.0,0.0,0.0,0.0,0.0,0.0,16245.43702516282,0.0,
0.9157,3.512143691811115,3.540729544491265,3.6319397229335473,0.0,0.0,-0.03182238771642221,3.561604319745309,0.0,0.0,0.0,0.0,0.0,0.0,0.0,0.0,0.0,0.0,0.0,0.0,16556.293661821255,0.0,
0.9327,3.5132555507236605,3.5416951192311297,3.633126331235255,0.0,0.0,-0.0318436719303946,3.562692333730015,0.0,0.0,0.0,0.0,0.0,0.0,0.0,0.0,0.0,0.0,0.0,0.0,16869.30042407849,0.0,
0.9496,3.514382727954511,3.5426737685949568,3.6343293181847174,0.0,0.0,-0.03186525157549326,3.5637952715780616,0.0,0.0,0.0,0.0,0.0,0.0,0.0,0.0,0.0,0.0,0.0,0.0,17180.781202117843,0.0,
0.9666,3.5155386541948497,3.5436771399202986,3.635563019694367,0.0,0.0,-0.03188738390241149,3.5649262712698384,0.0,0.0,0.0,0.0,0.0,0.0,0.0,0.0,0.0,0.0,0.0,0.0,17494.428567306037,0.0,
0.9836,3.516716818520649,3.544699565537498,3.6368204890227,0.0,0.0,-0.03190994439194271,3.566078957693616,0.0,0.0,0.0,0.0,0.0,0.0,0.0,0.0,0.0,0.0,0.0,0.0,17808.4068563131,0.0,
1.0005,3.5179101895782607,3.545734931527905,3.6380942232562443,0.0,0.0,-0.03193279850684311,3.5672464481208035,0.0,0.0,0.0,0.0,0.0,0.0,0.0,0.0,0.0,0.0,0.0,0.0,18120.872667956355,0.0,
1.0175,3.5191329876109347,3.5467955607457795,3.6393994023460388,0.0,0.0,-0.03195621870584784,3.568442650234251,0.0,0.0,0.0,0.0,0.0,0.0,0.0,0.0,0.0,0.0,0.0,0.0,18435.530343003702,0.0,
1.0344,3.5203709255982623,3.5478690461080102,3.640720778883771,0.0,0.0,-0.031979931479805324,3.5696535835300147,0.0,0.0,0.0,0.0,0.0,0.0,0.0,0.0,0.0,0.0,0.0,0.0,18748.684534630032,0.0,
1.0514,3.5216387554489756,3.548968164531442,3.642074101296839,0.0,0.0,-0.032004219535054265,3.5708936737590857,0.0,0.0,0.0,0.0,0.0,0.0,0.0,0.0,0.0,0.0,0.0,0.0,19064.04780910104,0.0,
1.0684,3.522929322881215,3.55008669557372,3.6434517355078384,0.0,0.0,-0.03202894597426152,3.572155917987591,0.0,0.0,0.0,0.0,0.0,0.0,0.0,0.0,0.0,0.0,0.0,0.0,19379.774893431866,0.0,
1.0853,3.5242349415730514,3.551217964199314,3.644845478629133,0.0,0.0,-0.032053963644307674,3.5734327948004996,0.0,0.0,0.0,0.0,0.0,0.0,0.0,0.0,0.0,0.0,0.0,0.0,19694.012008447222,0.0,
1.1023,3.5255711709593593,3.5523754356901613,3.646271942719796,0.0,0.0,-0.0320795708268961,3.574739516456439,0.0,0.0,0.0,0.0,0.0,0.0,0.0,0.0,0.0,0.0,0.0,0.0,20010.484661304283,0.0,
1.1192,3.5269224003971487,3.553545571147169,3.6477144654302434,0.0,0.0,-0.03210546850322253,3.576060812324853,0.0,0.0,0.0,0.0,0.0,0.0,0.0,0.0,0.0,0.0,0.0,0.0,20325.476359537886,0.0,
1.1362,3.5283047336079947,3.5547422989201554,3.649190241060514,0.0,0.0,-0.03213196546035537,3.577412424529555,0.0,0.0,0.0,0.0,0.0,0.0,0.0,0.0,0.0,0.0,0.0,0.0,20642.721628245843,0.0,
1.1531,3.5297020220875175,3.555951621386439,3.6506820321194433,0.0,0.0,-0.032158752303023584,3.5787785585311336,0.0,0.0,0.0,0.0,0.0,0.0,0.0,0.0,0.0,0.0,0.0,0.0,20958.494974491034,0.0,
1.1701,3.5311309192663574,3.557187933822133,3.652207621065738,0.0,0.0,-0.032186148434293786,3.580175491384743,0.0,0.0,0.0,0.0,0.0,0.0,0.0,0.0,0.0,0.0,0.0,0.0,21276.540265368487,0.0,
1.1871,3.532583346208017,3.558444224617374,3.6537583855125484,0.0,0.0,-0.03221399913572156,3.581595318779313,0.0,0.0,0.0,0.0,0.0,0.0,0.0,0.0,0.0,0.0,0.0,0.0,21594.997181999148,0.0,
1.204,3.534050673527833,3.559713014397945,3.655325114202891,0.0,0.0,-0.0322421390566698,3.583029600709556,0.0,0.0,0.0,0.0,0.0,0.0,0.0,0.0,0.0,0.0,0.0,0.0,21911.995782442027,0.0,
1.221,3.535550390706106,3.561009407099529,3.6569264843574,0.0,0.0,-0.03227090375751011,3.584495427387678,0.0,0.0,0.0,0.0,0.0,0.0,0.0,0.0,0.0,0.0,0.0,0.0,22231.294578871024,0.0,
1.2379,3.5370649801340175,3.562318240679026,3.6585437940067393,0.0,0.0,-0.03229995740260748,3.5859756716065943,0.0,0.0,0.0,0.0,0.0,0.0,0.0,0.0,0.0,0.0,0.0,0.0,22549.144158974534,0.0,
1.2549,3.5386124955584264,3.563655096326386,3.660196324429934,0.0,0.0,-0.03232964646502044,3.5874879721049155,0.0,0.0,0.0,0.0,0.0,0.0,0.0,0.0,0.0,0.0,0.0,0.0,22869.31320731768,0.0,
1.2719,3.5401841781346315,3.5650123833060468,3.6618747261565536,0.0,0.0,-0.032359803098583335,3.589023762532411,0.0,0.0,0.0,0.0,0.0,0.0,0.0,0.0,0.0,0.0,0.0,0.0,23189.92947602742,0.0,
1.2888,3.5417707037637016,3.5663820325748765,3.663569044692176,0.0,0.0,-0.03239024852267655,3.5905739270102512,0.0,0.0,0.0,0.0,0.0,0.0,0.0,0.0,0.0,0.0,0.0,0.0,23509.110262986214,0.0,
1.3058,3.5433909852074414,3.56778035023943,3.6652994811751594,0.0,0.0,-0.03242134583531462,3.59215693887401,0.0,0.0,0.0,0.0,0.0,0.0,0.0,0.0,0.0,0.0,0.0,0.0,23830.64016714253,0.0,
1.3227,3.545026099182924,3.569190983743469,3.66704582928151,0.0,0.0,-0.032452732013305154,3.5937543040693014,0.0,0.0,0.0,0.0,0.0,0.0,0.0,0.0,0.0,0.0,0.0,0.0,24150.743793139067,0.0,
1.3397,3.5466955387758934,3.570630727788847,3.6688289117668518,0.0,0.0,-0.032484781394041304,3.595385059443864,0.0,0.0,0.0,0.0,0.0,0.0,0.0,0.0,0.0,0.0,0.0,0.0,24473.21677339182,0.0,
1.3566,3.5483798077218753,3.5720827460418803,3.6706279088679055,0.0,0.0,-0.032517119860340477,3.597030154210554,0.0,0.0,0.0,0.0,0.0,0.0,0.0,0.0,0.0,0.0,0.0,0.0,24794.27273116177,0.0,
1.3736,3.550098986294015,3.5735643266312276,3.672464272469455,0.0,0.0,-0.03255013312842733,3.598709195131566,0.0,0.0,0.0,0.0,0.0,0.0,0.0,0.0,0.0,0.0,0.0,0.0,25117.71868586087,0.0,
1.3906,3.5518433333267025,3.575067046258987,3.674327602015741,0.0,0.0,-0.03258363434987362,3.6004126605338107,0.0,0.0,0.0,0.0,0.0,0.0,0.0,0.0,0.0,0.0,0.0,0.0,25441.663967545974,0.0,
1.4075,3.553602519149513,3.576581986851914,3.676206866524767,0.0,0.0,-0.03261742526806289,3.6021304575087316,0.0,0.0,0.0,0.0,0.0,0.0,0.0,0.0,0.0,0.0,0.0,0.0,25764.206235635495,0.0,
1.4245,3.555397519155486,3.5781271868685063,3.678124477258101,0.0,0.0,-0.03265190895772732,3.603883061094031,0.0,0.0,0.0,0.0,0.0,0.0,0.0,0.0,0.0,0.0,0.0,0.0,26089.17028315569,0.0,
1.4414,3.557207374001496,3.5796845787183584,3.6800580474192923,0.0,0.0,-0.032686682943371105,3.6056500000463827,0.0,0.0,0.0,0.0,0.0,0.0,0.0,0.0,0.0,0.0,0.0,0.0,26412.7407311391,0.0,
1.4584,3.5590536646163335,3.58127270715669,3.6820306375007394,0.0,0.0,-0.03272216205080928,3.6074523364245876,0.0,0.0,0.0,0.0,0.0,0.0,0.0,0.0,0.0,0.0,0.0,0.0,26738.754669132526,0.0,
1.4753,3.56091483418592,3.582873003489966,3.68401922050521,0.0,0.0,-0.032757932211677256,3.6092690193936985,0.0,0.0,0.0,0.0,0.0,0.0,0.0,0.0,0.0,0.0,0.0,0.0,27063.384496699327,0.0,
1.4923,3.5628130770037645,3.584504524241394,3.68604751474175,0.0,0.0,-0.03279442016145712,3.6111217053289693,0.0,0.0,0.0,0.0,0.0,0.0,0.0,0.0,0.0,0.0,0.0,0.0,27390.479974176775,0.0,
1.5093,3.564737629354155,3.5861579848923486,3.6881040246953285,0.0,0.0,-0.03283141922738892,3.6129998796472775,0.0,0.0,0.0,0.0,0.0,0.0,0.0,0.0,0.0,0.0,0.0,0.0,27718.129901901004,0.0,
1.5262,3.5666771125340397,3.587823587520213,3.690176595439046,0.0,0.0,-0.03286871079035058,3.6148924318311,0.0,0.0,0.0,0.0,0.0,0.0,0.0,0.0,0.0,0.0,0.0,0.0,28044.41012324186,0.0,
1.5432,3.568654657142211,3.589521167756766,3.6922899498273964,0.0,0.0,-0.032906739778533374,3.616821924908791,0.0,0.0,0.0,0.0,0.0,0.0,0.0,0.0,0.0,0.0,0.0,0.0,28373.190140500556,0.0,
1.5601,3.5706471779354065,3.591230879578373,3.694419422351586,0.0,0.0,-0.032945062435721616,3.618765826621789,0.0,0.0,0.0,0.0,0.0,0.0,0.0,0.0,0.0,0.0,0.0,0.0,28700.61015944684,0.0,
1.5771,3.5726784397782545,3.5929730849333277,3.6965904166302255,0.0,0.0,-0.03298413602239747,3.6207473137806025,0.0,0.0,0.0,0.0,0.0,0.0,0.0,0.0,0.0,0.0,0.0,0.0,29030.55331824952,0.0,
1.5941,3.5747369207891153,3.594737864458013,3.6987906247046625,0.0,0.0,-0.03302373913923668,3.622755136650597,0.0,0.0,0.0,0.0,0.0,0.0,0.0,0.0,0.0,0.0,0.0,0.0,29361.09239388968,0.0,
1.611,3.5768104629980737,3.5965147706362623,3.7010070560691988,0.0,0.0,-0.033063638012851816,3.624777429901178,0.0,0.0,0.0,0.0,0.0,0.0,0.0,0.0,0.0,0.0,0.0,0.0,29690.286239076297,0.0,
1.628,3.57892380043817,3.5983249673326467,3.7032661549988566,0.0,0.0,-0.03310430876003594,3.626838307589891,0.0,0.0,0.0,0.0,0.0,0.0,0.0,0.0,0.0,0.0,0.0,0.0,30022.03921566327,0.0,
1.6449,3.5810522673915264,3.6001472947289916,3.705541560453217,0.0,0.0,-0.03314527688045479,3.6289137075245783,0.0,0.0,0.0,0.0,0.0,0.0,0.0,0.0,0.0,0.0,0.0,0.0,30352.456936434126,0.0,
1.6619,3.583221255069771,3.6020034588604206,3.7078604226706386,0.0,0.0,-0.03318703128521038,3.6310283788669433,0.0,0.0,0.0,0.0,0.0,0.0,0.0,0.0,0.0,0.0,0.0,0.0,30685.458408712413,0.0,
1.6788,3.5854054502956303,3.6038717637898463,3.7101956856398997,0.0,0.0,-0.03322908486668508,3.633157633241792,0.0,0.0,0.0,0.0,0.0,0.0,0.0,0.0,0.0,0.0,0.0,0.0,31017.134720616566,0.0,
1.6958,3.5876309112214786,3.6057744644481433,3.7125752163127395,0.0,0.0,-0.03327193952671981,3.6353268639941203,0.0,0.0,0.0,0.0,0.0,0.0,0.0,0.0,0.0,0.0,0.0,0.0,31351.419941982123,0.0,
1.7128,3.5898850113581937,3.6077007223262187,3.7149855220758816,0.0,0.0,-0.03331535236999393,3.637523751920098,0.0,0.0,0.0,0.0,0.0,0.0,0.0,0.0,0.0,0.0,0.0,0.0,31686.362417060813,0.0,
1.7297,3.5921544552055726,3.609639147912621,3.717412391601365,0.0,0.0,-0.03335906746184432,3.639735331573186,0.0,0.0,0.0,0.0,0.0,0.0,0.0,0.0,0.0,0.0,0.0,0.0,32019.995135546225,0.0,
1.7467,3.594466321442132,3.611612833430758,3.7198847890548206,0.0,0.0,-0.033403606593740885,3.641987981309237,0.0,0.0,0.0,0.0,0.0,0.0,0.0,0.0,0.0,0.0,0.0,0.0,32356.275584336752,0.0,
1.7636,3.5967936352568293,3.6135987126766964,3.722373873809801,0.0,0.0,-0.03344845027152675,3.6442554072477757,0.0,0.0,0.0,0.0,0.0,0.0,0.0,0.0,0.0,0.0,0.0,0.0,32691.25671236985,0.0,
1.7806,3.5991641683062388,3.6156204446229046,3.7249093554577093,0.0,0.0,-0.033494133800079186,3.6465646561289513,0.0,0.0,0.0,0.0,0.0,0.0,0.0,0.0,0.0,0.0,0.0,0.0,33028.91214854733,0.0,
1.7975,3.60155026379217,3.617654403021846,3.7274616604581827,0.0,0.0,-0.03354012438049336,3.6488887757573996,0.0,0.0,0.0,0.0,0.0,0.0,0.0,0.0,0.0,0.0,0.0,0.0,33365.27885200115,0.0,
1.8145,3.603980397440841,3.6197248211639472,3.7300612560774074,0.0,0.0,-0.033586971053148236,3.651255491560732,0.0,0.0,0.0,0.0,0.0,0.0,0.0,0.0,0.0,0.0,0.0,0.0,33704.34704052578,0.0,
