energies(eV),real_xx,real_yy,real_zz,real_xy,real_yz,real_xz,real_ave,imag_xx,imag_yy,imag_zz,imag_xy,imag_yz,imag_xz,imag_ave,absorption_xx,absorption_yy,absorption_zz,absorption_xy,absorption_yz,absorption_xz,absorption_ave,band_gap
0.0,2.6770074373418202,2.6770074373418202,2.4627427447751846,0.0,0.0,0.0,2.6055858731529415,0.0,0.0,0.0,0.0,0.0,0.0,0.0,0.0,0.0,0.0,0.0,0.0,0.0,0.0,5.5887
0.0151,2.6770099468927846,2.6770099468927846,2.462744778200581,0.0,0.0,0.0,2.6055882239953836,0.0,0.0,0.0,0.0,0.0,0.0,0.0,0.0,0.0,0.0,0.0,0.0,0.0,0.0,
0.0302,2.677017475610545,2.677017475610545,2.4627508785231647,0.0,0.0,0.0,2.6055952765814183,0.0,0.0,0.0,0.0,0.0,0.0,0.0,0.0,0.0,0.0,0.0,0.0,0.0,0.0,
0.0453,2.677030023689791,2.677030023689791,2.462761045882038,0.0,0.0,0.0,2.6056070310872066,0.0,0.0,0.0,0.0,0.0,0.0,0.0,0.0,0.0,0.0,0.0,0.0,0.0,0.0,
0.0604,2.677047591454966,2.677047591454966,2.4627752805090894,0.0,0.0,0.0,2.6056234878063402,0.0,0.0,0.0,0.0,0.0,0.0,0.0,0.0,0.0,0.0,0.0,0.0,0.0,0.0,
0.0755,2.6770701793603653,2.6770701793603653,2.4627935827289478,0.0,0.0,0.0,2.6056446471498926,0.0,0.0,0.0,0.0,0.0,0.0,0.0,0.0,0.0,0.0,0.0,0.0,0.0,0.0,
0.0906,2.677097787990145,2.677097787990145,2.462815952959067,0.0,0.0,0.0,2.6056705096464525,0.0,0.0,0.0,0.0,0.0,0.0,0.0,0.0,0.0,0.0,0.0,0.0,0.0,0.0,
0.1057,2.677130418058341,2.677130418058341,2.4628423917096924,0.0,0.0,0.0,2.605701075942125,0.0,0.0,0.0,0.0,0.0,0.0,0.0,0.0,0.0,0.0,0.0,0.0,0.0,0.0,
0.1208,2.677168070408985,2.677168070408985,2.4628728995839753,0.0,0.0,0.0,2.6057363468006485,0.0,0.0,0.0,0.0,0.0,0.0,0.0,0.0,0.0,0.0,0.0,0.0,0.0,0.0,
0.1359,2.6772107460161427,2.6772107460161427,2.4629074772779367,0.0,0.0,0.0,2.6057763231034072,0.0,0.0,0.0,0.0,0.0,0.0,0.0,0.0,0.0,0.0,0.0,0.0,0.0,0.0,
0.151,2.677258445984001,2.677258445984001,2.4629461255805367,0.0,0.0,0.0,2.605821005849513,0.0,0.0,0.0,0.0,0.0,0.0,0.0,0.0,0.0,0.0,0.0,0.0,0.0,0.0,
0.1661,2.677311171546936,2.677311171546936,2.46298884537377,0.0,0.0,0.0,2.605870396155881,0.0,0.0,0.0,0.0,0.0,0.0,0.0,0.0,0.0,0.0,0.0,0.0,0.0,0.0,
0.1812,2.6773689240696648,2.6773689240696648,2.463035637632688,0.0,0.0,0.0,2.605924495257339,0.0,0.0,0.0,0.0,0.0,0.0,0.0,0.0,0.0,0.0,0.0,0.0,0.0,0.0,
0.1963,2.6774317050473155,2.6774317050473155,2.463086503425467,0.0,0.0,0.0,2.6059833045066996,0.0,0.0,0.0,0.0,0.0,0.0,0.0,0.0,0.0,0.0,0.0,0.0,0.0,0.0,
0.2114,2.6774995161055584,2.6774995161055584,2.463141443913506,0.0,0.0,0.0,2.6060468253748743,0.0,0.0,0.0,0.0,0.0,0.0,0.0,0.0,0.0,0.0,0.0,0.0,0.0,0.0,
0.2265,2.67757235900078,2.67757235900078,2.463200460351506,0.0,0.0,0.0,2.606115059451022,0.0,0.0,0.0,0.0,0.0,0.0,0.0,0.0,0.0,0.0,0.0,0.0,0.0,0.0,
0.2416,2.677650235620174,2.677650235620174,2.4632635540875074,0.0,0.0,0.0,2.6061880084426186,0.0,0.0,0.0,0.0,0.0,0.0,0.0,0.0,0.0,0.0,0.0,0.0,0.0,0.0,
0.2567,2.6777331479819155,2.6777331479819155,2.4633307265630804,0.0,0.0,0.0,2.606265674175637,0.0,0.0,0.0,0.0,0.0,0.0,0.0,0.0,0.0,0.0,0.0,0.0,0.0,0.0,
0.2718,2.6778210982353654,2.6778210982353654,2.463401979313316,0.0,0.0,0.0,2.606348058594682,0.0,0.0,0.0,0.0,0.0,0.0,0.0,0.0,0.0,0.0,0.0,0.0,0.0,0.0,
0.2869,2.677914088661189,2.677914088661189,2.4634773139670285,0.0,0.0,0.0,2.6064351637631353,0.0,0.0,0.0,0.0,0.0,0.0,0.0,0.0,0.0,0.0,0.0,0.0,0.0,0.0,
0.302,2.6780121216715793,2.6780121216715793,2.4635567322468055,0.0,0.0,0.0,2.6065269918633214,0.0,0.0,0.0,0.0,0.0,0.0,0.0,0.0,0.0,0.0,0.0,0.0,0.0,0.0,
0.3171,2.6781151998105015,2.6781151998105015,2.463640235969157,0.0,0.0,0.0,2.60662354519672,0.0,0.0,0.0,0.0,0.0,0.0,0.0,0.0,0.0,0.0,0.0,0.0,0.0,0.0,
0.3322,2.6782233257537986,2.6782233257537986,2.463727827044634,0.0,0.0,0.0,2.606724826184077,0.0,0.0,0.0,0.0,0.0,0.0,0.0,0.0,0.0,0.0,0.0,0.0,0.0,0.0,
0.3473,2.6783365023095,2.6783365023095,2.4638195074779987,0.0,0.0,0.0,2.6068308373656666,0.0,0.0,0.0,0.0,0.0,0.0,0.0,0.0,0.0,0.0,0.0,0.0,0.0,0.0,
0.3624,2.678454732418048,2.678454732418048,2.463915279368281,0.0,0.0,0.0,2.606941581401459,0.0,0.0,0.0,0.0,0.0,0.0,0.0,0.0,0.0,0.0,0.0,0.0,0.0,0.0,
0.3775,2.6785780191524897,2.6785780191524897,2.4640151449090197,0.0,0.0,0.0,2.607057061071333,0.0,0.0,0.0,0.0,0.0,0.0,0.0,0.0,0.0,0.0,0.0,0.0,0.0,0.0,
0.3926,2.678706365718811,2.678706365718811,2.4641191063883543,0.0,0.0,0.0,2.607177279275325,0.0,0.0,0.0,0.0,0.0,0.0,0.0,0.0,0.0,0.0,0.0,0.0,0.0,0.0,
0.4077,2.678839775456141,2.678839775456141,2.4642271661892234,0.0,0.0,0.0,2.607302239033835,0.0,0.0,0.0,0.0,0.0,0.0,0.0,0.0,0.0,0.0,0.0,0.0,0.0,0.0,
0.4228,2.678978251837059,2.678978251837059,2.464339326789498,0.0,0.0,0.0,2.6074319434878723,0.0,0.0,0.0,0.0,0.0,0.0,0.0,0.0,0.0,0.0,0.0,0.0,0.0,0.0,
0.4379,2.679121798467901,2.679121798467901,2.464455590762194,0.0,0.0,0.0,2.607566395899332,0.0,0.0,0.0,0.0,0.0,0.0,0.0,0.0,0.0,0.0,0.0,0.0,0.0,0.0,
0.453,2.6792704190890175,2.6792704190890175,2.464575960775619,0.0,0.0,0.0,2.607705599651218,0.0,0.0,0.0,0.0,0.0,0.0,0.0,0.0,0.0,0.0,0.0,0.0,0.0,0.0,
0.4681,2.6794241175751203,2.6794241175751203,2.4647004395935754,0.0,0.0,0.0,2.607849558247939,0.0,0.0,0.0,0.0,0.0,0.0,0.0,0.0,0.0,0.0,0.0,0.0,0.0,0.0,
0.4833,2.679583966409174,2.679583966409174,2.4648298953796646,0.0,0.0,0.0,2.6079992760660042,0.0,0.0,0.0,0.0,0.0,0.0,0.0,0.0,0.0,0.0,0.0,0.0,0.0,0.0,
0.4984,2.6797478664848366,2.6797478664848366,2.4649626277403054,0.0,0.0,0.0,2.6081527869033265,0.0,0.0,0.0,0.0,0.0,0.0,0.0,0.0,0.0,0.0,0.0,0.0,0.0,0.0,
0.5135,2.679916856887871,2.679916856887871,2.465099477792414,0.0,0.0,0.0,2.608311063856052,0.0,0.0,0.0,0.0,0.0,0.0,0.0,0.0,0.0,0.0,0.0,0.0,0.0,0.0,
0.5286,2.680090942034719,2.680090942034719,2.4652404486844364,0.0,0.0,0.0,2.608474110917958,0.0,0.0,0.0,0.0,0.0,0.0,0.0,0.0,0.0,0.0,0.0,0.0,0.0,0.0,
0.5437,2.6802701264778763,2.6802701264778763,2.465385543661362,0.0,0.0,0.0,2.608641932205705,0.0,0.0,0.0,0.0,0.0,0.0,0.0,0.0,0.0,0.0,0.0,0.0,0.0,0.0,
0.5588,2.6804544149063694,2.6804544149063694,2.465534766064983,0.0,0.0,0.0,2.6088145319592404,0.0,0.0,0.0,0.0,0.0,0.0,0.0,0.0,0.0,0.0,0.0,0.0,0.0,0.0,
0.5739,2.6806438121460787,2.6806438121460787,2.465688119334059,0.0,0.0,0.0,2.6089919145420724,0.0,0.0,0.0,0.0,0.0,0.0,0.0,0.0,0.0,0.0,0.0,0.0,0.0,0.0,
0.589,2.6808383231601924,2.6808383231601924,2.4658456070046473,0.0,0.0,0.0,2.6091740844416775,0.0,0.0,0.0,0.0,0.0,0.0,0.0,0.0,0.0,0.0,0.0,0.0,0.0,0.0,
0.6041,2.681037953049626,2.681037953049626,2.466007232710277,0.0,0.0,0.0,2.6093610462698433,0.0,0.0,0.0,0.0,0.0,0.0,0.0,0.0,0.0,0.0,0.0,0.0,0.0,0.0,
0.6192,2.6812427070534337,2.6812427070534337,2.466173000182238,0.0,0.0,0.0,2.609552804763035,0.0,0.0,0.0,0.0,0.0,0.0,0.0,0.0,0.0,0.0,0.0,0.0,0.0,0.0,
0.6343,2.681452590549269,2.681452590549269,2.466342913249915,0.0,0.0,0.0,2.6097493647828176,0.0,0.0,0.0,0.0,0.0,0.0,0.0,0.0,0.0,0.0,0.0,0.0,0.0,0.0,
0.6494,2.6816676090538314,2.6816676090538314,2.4665169758409347,0.0,0.0,0.0,2.609950731316199,0.0,0.0,0.0,0.0,0.0,0.0,0.0,0.0,0.0,0.0,0.0,0.0,0.0,0.0,
0.6645,2.681887768223344,2.681887768223344,2.4666951919815188,0.0,0.0,0.0,2.610156909476069,0.0,0.0,0.0,0.0,0.0,0.0,0.0,0.0,0.0,0.0,0.0,0.0,0.0,0.0,
0.6796,2.6821130738540786,2.6821130738540786,2.4668775657967723,0.0,0.0,0.0,2.610367904501643,0.0,0.0,0.0,0.0,0.0,0.0,0.0,0.0,0.0,0.0,0.0,0.0,0.0,0.0,
0.6947,2.6823435318827324,2.6823435318827324,2.467064101510986,0.0,0.0,0.0,2.610583721758817,0.0,0.0,0.0,0.0,0.0,0.0,0.0,0.0,0.0,0.0,0.0,0.0,0.0,0.0,
0.7098,2.6825791483870933,2.6825791483870933,2.4672548034478967,0.0,0.0,0.0,2.6108043667406946,0.0,0.0,0.0,0.0,0.0,0.0,0.0,0.0,0.0,0.0,0.0,0.0,0.0,0.0,
0.7249,2.682819929586458,2.682819929586458,2.4674496760310363,0.0,0.0,0.0,2.611029845067984,0.0,0.0,0.0,0.0,0.0,0.0,0.0,0.0,0.0,0.0,0.0,0.0,0.0,0.0,
0.74,2.683065881842161,2.683065881842161,2.4676487237840425,0.0,0.0,0.0,2.611260162489455,0.0,0.0,0.0,0.0,0.0,0.0,0.0,0.0,0.0,0.0,0.0,0.0,0.0,0.0,
0.7551,2.683317011658203,2.683317011658203,2.4678519513309585,0.0,0.0,0.0,2.611495324882455,0.0,0.0,0.0,0.0,0.0,0.0,0.0,0.0,0.0,0.0,0.0,0.0,0.0,0.0,
0.7702,2.68357332568172,2.68357332568172,2.4680593633966073,0.0,0.0,0.0,2.611735338253349,0.0,0.0,0.0,0.0,0.0,0.0,0.0,0.0,0.0,0.0,0.0,0.0,0.0,0.0,
0.7853,2.6838348307036317,2.6838348307036317,2.468270964806907,0.0,0.0,0.0,2.611980208738057,0.0,0.0,0.0,0.0,0.0,0.0,0.0,0.0,0.0,0.0,0.0,0.0,0.0,0.0,
0.8004,2.6841015336591774,2.6841015336591774,2.468486760489206,0.0,0.0,0.0,2.61222994260252,0.0,0.0,0.0,0.0,0.0,0.0,0.0,0.0,0.0,0.0,0.0,0.0,0.0,0.0,
0.8155,2.6843734416285585,2.6843734416285585,2.468706755472711,0.0,0.0,0.0,2.612484546243276,0.0,0.0,0.0,0.0,0.0,0.0,0.0,0.0,0.0,0.0,0.0,0.0,0.0,0.0,
0.8306,2.6846505618375156,2.6846505618375156,2.4689309548887204,0.0,0.0,0.0,2.6127440261879173,0.0,0.0,0.0,0.0,0.0,0.0,0.0,0.0,0.0,0.0,0.0,0.0,0.0,0.0,
0.8457,2.6849329016579677,2.6849329016579677,2.4691593639711407,0.0,0.0,0.0,2.613008389095692,0.0,0.0,0.0,0.0,0.0,0.0,0.0,0.0,0.0,0.0,0.0,0.0,0.0,0.0,
0.8608,2.685220468608691,2.685220468608691,2.469391988056775,0.0,0.0,0.0,2.6132776417580525,0.0,0.0,0.0,0.0,0.0,0.0,0.0,0.0,0.0,0.0,0.0,0.0,0.0,0.0,
0.8759,2.6855132703559113,2.6855132703559113,2.469628832585732,0.0,0.0,0.0,2.613551791099185,0.0,0.0,0.0,0.0,0.0,0.0,0.0,0.0,0.0,0.0,0.0,0.0,0.0,0.0,
0.891,2.6858113147140497,2.6858113147140497,2.46986990310183,0.0,0.0,0.0,2.613830844176643,0.0,0.0,0.0,0.0,0.0,0.0,0.0,0.0,0.0,0.0,0.0,0.0,0.0,0.0,
0.9061,2.686114609646305,2.686114609646305,2.4701152052530064,0.0,0.0,0.0,2.614114808181872,0.0,0.0,0.0,0.0,0.0,0.0,0.0,0.0,0.0,0.0,0.0,0.0,0.0,0.0,
0.9212,2.6864231632655082,2.6864231632655082,2.47036474479173,0.0,0.0,0.0,2.614403690440916,0.0,0.0,0.0,0.0,0.0,0.0,0.0,0.0,0.0,0.0,0.0,0.0,0.0,0.0,
0.9363,2.68673698383465,2.68673698383465,2.4706185275753914,0.0,0.0,0.0,2.614697498414897,0.0,0.0,0.0,0.0,0.0,0.0,0.0,0.0,0.0,0.0,0.0,0.0,0.0,0.0,
0.9514,2.6870560797677383,2.6870560797677383,2.4708765595667552,0.0,0.0,0.0,2.614996239700744,0.0,0.0,0.0,0.0,0.0,0.0,0.0,0.0,0.0,0.0,0.0,0.0,0.0,0.0,
0.9665,2.6873804596305435,2.6873804596305435,2.4711388468344424,0.0,0.0,0.0,2.615299922031843,0.0,0.0,0.0,0.0,0.0,0.0,0.0,0.0,0.0,0.0,0.0,0.0,0.0,0.0,
0.9816,2.6877101321412695,2.6877101321412695,2.4714053955532833,0.0,0.0,0.0,2.6156085532786073,0.0,0.0,0.0,0.0,0.0,0.0,0.0,0.0,0.0,0.0,0.0,0.0,0.0,0.0,
0.9967,2.6880451061714092,2.6880451061714092,2.471676212004839,0.0,0.0,0.0,2.6159221414492193,0.0,0.0,0.0,0.0,0.0,0.0,0.0,0.0,0.0,0.0,0.0,0.0,0.0,0.0,
1.0118,2.6883853907464816,2.6883853907464816,2.471951302577856,0.0,0.0,0.0,2.616240694690273,0.0,0.0,0.0,0.0,0.0,0.0,0.0,0.0,0.0,0.0,0.0,0.0,0.0,0.0,
1.0269,2.68873099504689,2.68873099504689,2.472230673768722,0.0,0.0,0.0,2.6165642212875007,0.0,0.0,0.0,0.0,0.0,0.0,0.0,0.0,0.0,0.0,0.0,0.0,0.0,0.0,
1.042,2.6890819284086773,2.6890819284086773,2.4725143321819667,0.0,0.0,0.0,2.6168927296664406,0.0,0.0,0.0,0.0,0.0,0.0,0.0,0.0,0.0,0.0,0.0,0.0,0.0,0.0,
1.0571,2.6894382003244326,2.6894382003244326,2.472802284530724,0.0,0.0,0.0,2.6172262283931964,0.0,0.0,0.0,0.0,0.0,0.0,0.0,0.0,0.0,0.0,0.0,0.0,0.0,0.0,
1.0722,2.6897998204440614,2.6897998204440614,2.4730945376372637,0.0,0.0,0.0,2.6175647261751287,0.0,0.0,0.0,0.0,0.0,0.0,0.0,0.0,0.0,0.0,0.0,0.0,0.0,0.0,
1.0873,2.6901667985757225,2.6901667985757225,2.473391098433489,0.0,0.0,0.0,2.6179082318616445,0.0,0.0,0.0,0.0,0.0,0.0,0.0,0.0,0.0,0.0,0.0,0.0,0.0,0.0,
1.1024,2.690539144686712,2.690539144686712,2.473691973961417,0.0,0.0,0.0,2.618256754444947,0.0,0.0,0.0,0.0,0.0,0.0,0.0,0.0,0.0,0.0,0.0,0.0,0.0,0.0,
1.1175,2.6909168689043153,2.6909168689043153,2.473997171373762,0.0,0.0,0.0,2.6186103030607977,0.0,0.0,0.0,0.0,0.0,0.0,0.0,0.0,0.0,0.0,0.0,0.0,0.0,0.0,
1.1326,2.6912999815167487,2.6912999815167487,2.4743066979344386,0.0,0.0,0.0,2.618968886989312,0.0,0.0,0.0,0.0,0.0,0.0,0.0,0.0,0.0,0.0,0.0,0.0,0.0,0.0,
1.1477,2.6916884929741203,2.6916884929741203,2.4746205610191248,0.0,0.0,0.0,2.6193325156557883,0.0,0.0,0.0,0.0,0.0,0.0,0.0,0.0,0.0,0.0,0.0,0.0,0.0,0.0,
1.1628,2.6920824138893487,2.6920824138893487,2.47493876811579,0.0,0.0,0.0,2.6197011986314958,0.0,0.0,0.0,0.0,0.0,0.0,0.0,0.0,0.0,0.0,0.0,0.0,0.0,0.0,
1.1779,2.6924817550391316,2.6924817550391316,2.4752613268252754,0.0,0.0,0.0,2.620074945634513,0.0,0.0,0.0,0.0,0.0,0.0,0.0,0.0,0.0,0.0,0.0,0.0,0.0,0.0,
1.193,2.6928865273649656,2.6928865273649656,2.4755882448618824,0.0,0.0,0.0,2.6204537665306042,0.0,0.0,0.0,0.0,0.0,0.0,0.0,0.0,0.0,0.0,0.0,0.0,0.0,0.0,
1.2081,2.693296741974123,2.693296741974123,2.4759195300539156,0.0,0.0,0.0,2.620837671334054,0.0,0.0,0.0,0.0,0.0,0.0,0.0,0.0,0.0,0.0,0.0,0.0,0.0,0.0,
1.2232,2.6937124101406695,2.6937124101406695,2.476255190344318,0.0,0.0,0.0,2.6212266702085523,0.0,0.0,0.0,0.0,0.0,0.0,0.0,0.0,0.0,0.0,0.0,0.0,0.0,0.0,
1.2383,2.694133543306554,2.694133543306554,2.4765952337912704,0.0,0.0,0.0,2.621620773468126,0.0,0.0,0.0,0.0,0.0,0.0,0.0,0.0,0.0,0.0,0.0,0.0,0.0,0.0,
1.2534,2.694560153082585,2.694560153082585,2.47693966856877,0.0,0.0,0.0,2.62201999157798,0.0,0.0,0.0,0.0,0.0,0.0,0.0,0.0,0.0,0.0,0.0,0.0,0.0,0.0,
1.2685,2.694992251249585,2.694992251249585,2.477288502967263,0.0,0.0,0.0,2.6224243351554777,0.0,0.0,0.0,0.0,0.0,0.0,0.0,0.0,0.0,0.0,0.0,0.0,0.0,0.0,
1.2836,2.6954298497594564,2.6954298497594564,2.477641745394325,0.0,0.0,0.0,2.6228338149710795,0.0,0.0,0.0,0.0,0.0,0.0,0.0,0.0,0.0,0.0,0.0,0.0,0.0,0.0,
1.2987,2.695872960736295,2.695872960736295,2.4779994043752502,0.0,0.0,0.0,2.62324844194928,0.0,0.0,0.0,0.0,0.0,0.0,0.0,0.0,0.0,0.0,0.0,0.0,0.0,0.0,
1.3138,2.69632159647752,2.69632159647752,2.4783614885537375,0.0,0.0,0.0,2.6236682271695924,0.0,0.0,0.0,0.0,0.0,0.0,0.0,0.0,0.0,0.0,0.0,0.0,0.0,0.0,
1.3289,2.696775769455056,2.696775769455056,2.4787280066925304,0.0,0.0,0.0,2.6240931818675475,0.0,0.0,0.0,0.0,0.0,0.0,0.0,0.0,0.0,0.0,0.0,0.0,0.0,0.0,
1.344,2.6972354923164907,2.6972354923164907,2.479098967674126,0.0,0.0,0.0,2.6245233174357026,0.0,0.0,0.0,0.0,0.0,0.0,0.0,0.0,0.0,0.0,0.0,0.0,0.0,0.0,
1.3591,2.6977007778862507,2.6977007778862507,2.479474380501414,0.0,0.0,0.0,2.6249586454246385,0.0,0.0,0.0,0.0,0.0,0.0,0.0,0.0,0.0,0.0,0.0,0.0,0.0,0.0,
1.3742,2.698171639166848,2.698171639166848,2.4798542542984525,0.0,0.0,0.0,2.62539917754405,0.0,0.0,0.0,0.0,0.0,0.0,0.0,0.0,0.0,0.0,0.0,0.0,0.0,0.0,
1.3893,2.6986480893400966,2.6986480893400966,2.4802385983110664,0.0,0.0,0.0,2.625844925663753,0.0,0.0,0.0,0.0,0.0,0.0,0.0,0.0,0.0,0.0,0.0,0.0,0.0,0.0,
1.4044,2.6991301417684177,2.6991301417684177,2.4806274219076743,0.0,0.0,0.0,2.6262959018148364,0.0,0.0,0.0,0.0,0.0,0.0,0.0,0.0,0.0,0.0,0.0,0.0,0.0,0.0,
1.4196,2.699621058335957,2.699621058335957,2.481023354283941,0.0,0.0,0.0,2.626755156985285,0.0,0.0,0.0,0.0,0.0,0.0,0.0,0.0,0.0,0.0,0.0,0.0,0.0,0.0,
1.4347,2.700114393418032,2.700114393418032,2.4814211954725995,0.0,0.0,0.0,2.627216660769555,0.0,0.0,0.0,0.0,0.0,0.0,0.0,0.0,0.0,0.0,0.0,0.0,0.0,0.0,
1.4498,2.700613372031383,2.700613372031383,2.4818235451580435,0.0,0.0,0.0,2.62768342974027,0.0,0.0,0.0,0.0,0.0,0.0,0.0,0.0,0.0,0.0,0.0,0.0,0.0,0.0,
1.4649,2.7011180082749116,2.7011180082749116,2.4822304132071227,0.0,0.0,0.0,2.6281554765856487,0.0,0.0,0.0,0.0,0.0,0.0,0.0,0.0,0.0,0.0,0.0,0.0,0.0,0.0,
1.48,2.7016283164346864,2.7016283164346864,2.4826418096130443,0.0,0.0,0.0,2.6286328141608055,0.0,0.0,0.0,0.0,0.0,0.0,0.0,0.0,0.0,0.0,0.0,0.0,0.0,0.0,
1.4951,2.7021443109853776,2.7021443109853776,2.4830577444960813,0.0,0.0,0.0,2.6291154554889453,0.0,0.0,0.0,0.0,0.0,0.0,0.0,0.0,0.0,0.0,0.0,0.0,0.0,0.0,
1.5102,2.7026660065916377,2.7026660065916377,2.4834782281044525,0.0,0.0,0.0,2.629603413762576,0.0,0.0,0.0,0.0,0.0,0.0,0.0,0.0,0.0,0.0,0.0,0.0,0.0,0.0,
1.5253,2.7031934181095263,2.7031934181095263,2.4839032708151114,0.0,0.0,0.0,2.6300967023447215,0.0,0.0,0.0,0.0,0.0,0.0,0.0,0.0,0.0,0.0,0.0,0.0,0.0,0.0,
1.5404,2.703726560588027,2.703726560588027,2.484332883134555,0.0,0.0,0.0,2.630595334770203,0.0,0.0,0.0,0.0,0.0,0.0,0.0,0.0,0.0,0.0,0.0,0.0,0.0,0.0,
1.5555,2.7042654492704514,2.7042654492704514,2.4847670756996747,0.0,0.0,0.0,2.631099324746859,0.0,0.0,0.0,0.0,0.0,0.0,0.0,0.0,0.0,0.0,0.0,0.0,0.0,0.0,
1.5706,2.70481009959602,2.70481009959602,2.485205859278622,0.0,0.0,0.0,2.6316086861568873,0.0,0.0,0.0,0.0,0.0,0.0,0.0,0.0,0.0,0.0,0.0,0.0,0.0,0.0,
1.5857,2.705360527201327,2.705360527201327,2.485649244771662,0.0,0.0,0.0,2.6321234330581054,0.0,0.0,0.0,0.0,0.0,0.0,0.0,0.0,0.0,0.0,0.0,0.0,0.0,0.0,
1.6008,2.7059167479219868,2.7059167479219868,2.48609724321204,0.0,0.0,0.0,2.632643579685338,0.0,0.0,0.0,0.0,0.0,0.0,0.0,0.0,0.0,0.0,0.0,0.0,0.0,0.0,
1.6159,2.7064787777941177,2.7064787777941177,2.486549865766883,0.0,0.0,0.0,2.6331691404517064,0.0,0.0,0.0,0.0,0.0,0.0,0.0,0.0,0.0,0.0,0.0,0.0,0.0,0.0,
1.631,2.7070466330560183,2.7070466330560183,2.487007123738116,0.0,0.0,0.0,2.633700129950051,0.0,0.0,0.0,0.0,0.0,0.0,0.0,0.0,0.0,0.0,0.0,0.0,0.0,0.0,
1.6461,2.7076203301498016,2.7076203301498016,2.4874690285633614,0.0,0.0,0.0,2.6342365629543214,0.0,0.0,0.0,0.0,0.0,0.0,0.0,0.0,0.0,0.0,0.0,0.0,0.0,0.0,
1.6612,2.7081998857230336,2.7081998857230336,2.487935591816863,0.0,0.0,0.0,2.6347784544209767,0.0,0.0,0.0,0.0,0.0,0.0,0.0,0.0,0.0,0.0,0.0,0.0,0.0,0.0,
1.6763,2.708785316630399,2.708785316630399,2.48840682521048,0.0,0.0,0.0,2.635325819490426,0.0,0.0,0.0,0.0,0.0,0.0,0.0,0.0,0.0,0.0,0.0,0.0,0.0,0.0,
1.6914,2.709376639935509,2.709376639935509,2.488882740594576,0.0,0.0,0.0,2.635878673488531,0.0,0.0,0.0,0.0,0.0,0.0,0.0,0.0,0.0,0.0,0.0,0.0,0.0,0.0,
1.7065,2.7099738729125487,2.7099738729125487,2.489363349959036,0.0,0.0,0.0,2.6364370319280446,0.0,0.0,0.0,0.0,0.0,0.0,0.0,0.0,0.0,0.0,0.0,0.0,0.0,0.0,
1.7216,2.7105770330481125,2.7105770330481125,2.4898486654342444,0.0,0.0,0.0,2.6370009105101566,0.0,0.0,0.0,0.0,0.0,0.0,0.0,0.0,0.0,0.0,0.0,0.0,0.0,0.0,
1.7367,2.7111861380429754,2.7111861380429754,2.490338699292108,0.0,0.0,0.0,2.6375703251260196,0.0,0.0,0.0,0.0,0.0,0.0,0.0,0.0,0.0,0.0,0.0,0.0,0.0,0.0,
1.7518,2.711801205813965,2.711801205813965,2.490833463947041,0.0,0.0,0.0,2.6381452918583235,0.0,0.0,0.0,0.0,0.0,0.0,0.0,0.0,0.0,0.0,0.0,0.0,0.0,0.0,
1.7669,2.7124222544957597,2.7124222544957597,2.491332971957005,0.0,0.0,0.0,2.6387258269828417,0.0,0.0,0.0,0.0,0.0,0.0,0.0,0.0,0.0,0.0,0.0,0.0,0.0,0.0,
1.782,2.713049302442857,2.713049302442857,2.491837236024559,0.0,0.0,0.0,2.639311946970091,0.0,0.0,0.0,0.0,0.0,0.0,0.0,0.0,0.0,0.0,0.0,0.0,0.0,0.0,
1.7971,2.7136823682314195,2.7136823682314195,2.492346268997947,0.0,0.0,0.0,2.639903668486929,0.0,0.0,0.0,0.0,0.0,0.0,0.0,0.0,0.0,0.0,0.0,0.0,0.0,0.0,
1.8122,2.714321470661294,2.714321470661294,2.4928600838721335,0.0,0.0,0.0,2.6405010083982403,0.0,0.0,0.0,0.0,0.0,0.0,0.0,0.0,0.0,0.0,0.0,0.0,0.0,0.0,
1.8273,2.7149666287579777,2.7149666287579777,2.493378693789918,0.0,0.0,0.0,2.6411039837686245,0.0,0.0,0.0,0.0,0.0,0.0,0.0,0.0,0.0,0.0,0.0,0.0,0.0,0.0,
1.8424,2.715617861774637,2.715617861774637,2.4939021120430405,0.0,0.0,0.0,2.6417126118641048,0.0,0.0,0.0,0.0,0.0,0.0,0.0,0.0,0.0,0.0,0.0,0.0,0.0,0.0,
1.8575,2.7162751891941106,2.7162751891941106,2.494430352073352,0.0,0.0,0.0,2.642326910153858,0.0,0.0,0.0,0.0,0.0,0.0,0.0,0.0,0.0,0.0,0.0,0.0,0.0,0.0,
1.8726,2.7169386307311068,2.7169386307311068,2.494963427473854,0.0,0.0,0.0,2.6429468963120226,0.0,0.0,0.0,0.0,0.0,0.0,0.0,0.0,0.0,0.0,0.0,0.0,0.0,0.0,
1.8877,2.7176082063342006,2.7176082063342006,2.4955013519899807,0.0,0.0,0.0,2.643572588219461,0.0,0.0,0.0,0.0,0.0,0.0,0.0,0.0,0.0,0.0,0.0,0.0,0.0,0.0,
1.9028,2.7182839361880755,2.7182839361880755,2.4960441395206576,0.0,0.0,0.0,2.6442040039656027,0.0,0.0,0.0,0.0,0.0,0.0,0.0,0.0,0.0,0.0,0.0,0.0,0.0,0.0,
1.9179,2.7189658407156747,2.7189658407156747,2.4965918041196113,0.0,0.0,0.0,2.6448411618503203,0.0,0.0,0.0,0.0,0.0,0.0,0.0,0.0,0.0,0.0,0.0,0.0,0.0,0.0,
1.933,2.719653940580398,2.719653940580398,2.4971443599964656,0.0,0.0,0.0,2.645484080385754,0.0,0.0,0.0,0.0,0.0,0.0,0.0,0.0,0.0,0.0,0.0,0.0,0.0,0.0,
1.9481,2.7203482566884496,2.7203482566884496,2.4977018215180675,0.0,0.0,0.0,2.646132778298322,0.0,0.0,0.0,0.0,0.0,0.0,0.0,0.0,0.0,0.0,0.0,0.0,0.0,0.0,
1.9632,2.7210488101910224,2.7210488101910224,2.4982642032096685,0.0,0.0,0.0,2.646787274530571,0.0,0.0,0.0,0.0,0.0,0.0,0.0,0.0,0.0,0.0,0.0,0.0,0.0,0.0,
