energies(eV),real_xx,real_yy,real_zz,real_xy,real_yz,real_xz,real_ave,imag_xx,imag_yy,imag_zz,imag_xy,imag_yz,imag_xz,imag_ave,absorption_xx,absorption_yy,absorption_zz,absorption_xy,absorption_yz,absorption_xz,absorption_ave,band_gap
0.0,3.0531883238426576,3.01441847262867,3.079692341049609,0.0,0.0,0.0,3.049099712506979,0.0,0.0,0.0,0.0,0.0,0.0,0.0,0.0,0.0,0.0,0.0,0.0,0.0,0.0,3.8418
0.0193,3.0531948326141714,3.014424898472021,3.0796989979362865,0.0,0.0,0.0,3.0491062430074933,0.0,0.0,0.0,0.0,0.0,0.0,0.0,0.0,0.0,0.0,0.0,0.0,0.0,0.0,
0.0386,3.053214359360463,3.014444176437418,3.079718969029448,0.0,0.0,0.0,3.049125834942443,0.0,0.0,0.0,0.0,0.0,0.0,0.0,0.0,0.0,0.0,0.0,0.0,0.0,0.0,
0.0579,3.053246905376746,3.014476307830952,3.079752255628647,0.0,0.0,0.0,3.0491584896121147,0.0,0.0,0.0,0.0,0.0,0.0,0.0,0.0,0.0,0.0,0.0,0.0,0.0,0.0,
0.0771,3.0532922031570844,3.0145210285995887,3.079798584099358,0.0,0.0,0.0,3.049203938618677,0.0,0.0,0.0,0.0,0.0,0.0,0.0,0.0,0.0,0.0,0.0,0.0,0.0,0.0,
0.0964,3.0533507275615417,3.0145788076180926,3.079858440047915,0.0,0.0,0.0,3.0492626584091833,0.0,0.0,0.0,0.0,0.0,0.0,0.0,0.0,0.0,0.0,0.0,0.0,0.0,0.0,
0.1157,3.053422280284764,3.014649449189385,3.0799316205809286,0.0,0.0,0.0,3.049334450018359,0.0,0.0,0.0,0.0,0.0,0.0,0.0,0.0,0.0,0.0,0.0,0.0,0.0,0.0,
0.135,3.0535068660768987,3.014732958103431,3.080018130463975,0.0,0.0,0.0,3.049419318214768,0.0,0.0,0.0,0.0,0.0,0.0,0.0,0.0,0.0,0.0,0.0,0.0,0.0,0.0,
0.1543,3.0536044905553297,3.014829340024798,3.0801179753325094,0.0,0.0,0.0,3.049517268637546,0.0,0.0,0.0,0.0,0.0,0.0,0.0,0.0,0.0,0.0,0.0,0.0,0.0,0.0,
0.1736,3.0537151602060275,3.0149386014938764,3.080231161693181,0.0,0.0,0.0,3.049628307797695,0.0,0.0,0.0,0.0,0.0,0.0,0.0,0.0,0.0,0.0,0.0,0.0,0.0,0.0,
0.1928,3.0538382076842483,3.0150600838084256,3.080357006885205,0.0,0.0,0.0,3.0497517661259597,0.0,0.0,0.0,0.0,0.0,0.0,0.0,0.0,0.0,0.0,0.0,0.0,0.0,0.0,
0.2121,3.053974922924954,3.01519506066846,3.080496830011877,0.0,0.0,0.0,3.0498889378684297,0.0,0.0,0.0,0.0,0.0,0.0,0.0,0.0,0.0,0.0,0.0,0.0,0.0,0.0,
0.2314,3.0541247079750153,3.0153429419203728,3.0806500193442528,0.0,0.0,0.0,3.0500392230798803,0.0,0.0,0.0,0.0,0.0,0.0,0.0,0.0,0.0,0.0,0.0,0.0,0.0,0.0,
0.2507,3.0542875728082906,3.015503737621954,3.080816584886302,0.0,0.0,0.0,3.050202631772182,0.0,0.0,0.0,0.0,0.0,0.0,0.0,0.0,0.0,0.0,0.0,0.0,0.0,0.0,
0.27,3.0544635282773918,3.015677458717162,3.0809965375226978,0.0,0.0,0.0,3.0503791748390836,0.0,0.0,0.0,0.0,0.0,0.0,0.0,0.0,0.0,0.0,0.0,0.0,0.0,0.0,
0.2893,3.0546525861162257,3.015864117038831,3.0811898890214735,0.0,0.0,0.0,3.0505688640588438,0.0,0.0,0.0,0.0,0.0,0.0,0.0,0.0,0.0,0.0,0.0,0.0,0.0,0.0,
0.3085,3.054853677592057,3.0160626576735874,3.0813955461380145,0.0,0.0,0.0,3.0507706271345527,0.0,0.0,0.0,0.0,0.0,0.0,0.0,0.0,0.0,0.0,0.0,0.0,0.0,0.0,
0.3278,3.055068910852795,3.0162751623116155,3.0816156646162587,0.0,0.0,0.0,3.0509865792602233,0.0,0.0,0.0,0.0,0.0,0.0,0.0,0.0,0.0,0.0,0.0,0.0,0.0,0.0,
0.3471,3.055297286926529,3.0165006449607104,3.0818492225119662,0.0,0.0,0.0,3.0512157181330686,0.0,0.0,0.0,0.0,0.0,0.0,0.0,0.0,0.0,0.0,0.0,0.0,0.0,0.0,
0.3664,3.0555388210992804,3.016739121036141,3.082096235151186,0.0,0.0,0.0,3.051458059095536,0.0,0.0,0.0,0.0,0.0,0.0,0.0,0.0,0.0,0.0,0.0,0.0,0.0,0.0,
0.3857,3.0557935295550944,3.01699060685897,3.082356718759095,0.0,0.0,0.0,3.051713618391053,0.0,0.0,0.0,0.0,0.0,0.0,0.0,0.0,0.0,0.0,0.0,0.0,0.0,0.0,
0.405,3.0560614293801804,3.017255119660166,3.08263069046374,0.0,0.0,0.0,3.0519824131680284,0.0,0.0,0.0,0.0,0.0,0.0,0.0,0.0,0.0,0.0,0.0,0.0,0.0,0.0,
0.4243,3.056342538567123,3.0175326775849483,3.082918168300198,0.0,0.0,0.0,3.0522644614840897,0.0,0.0,0.0,0.0,0.0,0.0,0.0,0.0,0.0,0.0,0.0,0.0,0.0,0.0,
0.4435,3.056635316828773,3.0178217601797095,3.0832175767229266,0.0,0.0,0.0,3.0525582179104696,0.0,0.0,0.0,0.0,0.0,0.0,0.0,0.0,0.0,0.0,0.0,0.0,0.0,0.0,
0.4628,3.056942833669921,3.018125398620478,3.083532054343572,0.0,0.0,0.0,3.0528667622113232,0.0,0.0,0.0,0.0,0.0,0.0,0.0,0.0,0.0,0.0,0.0,0.0,0.0,0.0,
0.4821,3.05726361922536,3.0184421420418537,3.0838600975764936,0.0,0.0,0.0,3.0531886196145694,0.0,0.0,0.0,0.0,0.0,0.0,0.0,0.0,0.0,0.0,0.0,0.0,0.0,0.0,
0.5014,3.0575976951558532,3.0187720122892157,3.0842017281245218,0.0,0.0,0.0,3.05352381185653,0.0,0.0,0.0,0.0,0.0,0.0,0.0,0.0,0.0,0.0,0.0,0.0,0.0,0.0,
0.5207,3.0579450840534226,3.019115032147343,3.084556968621018,0.0,0.0,0.0,3.0538723616072616,0.0,0.0,0.0,0.0,0.0,0.0,0.0,0.0,0.0,0.0,0.0,0.0,0.0,0.0,
0.54,3.0583058094470963,3.019471225346328,3.0849258426351995,0.0,0.0,0.0,3.054234292476208,0.0,0.0,0.0,0.0,0.0,0.0,0.0,0.0,0.0,0.0,0.0,0.0,0.0,0.0,
0.5592,3.058677923059922,3.019838668565264,3.0853063574031663,0.0,0.0,0.0,3.0546076496761176,0.0,0.0,0.0,0.0,0.0,0.0,0.0,0.0,0.0,0.0,0.0,0.0,0.0,0.0,
0.5785,3.0590653263845513,3.0202212148637297,3.0857025019662823,0.0,0.0,0.0,3.054996347738188,0.0,0.0,0.0,0.0,0.0,0.0,0.0,0.0,0.0,0.0,0.0,0.0,0.0,0.0,
0.5978,3.0594661423364964,3.020617011286458,3.0861123562884174,0.0,0.0,0.0,3.0553985033037905,0.0,0.0,0.0,0.0,0.0,0.0,0.0,0.0,0.0,0.0,0.0,0.0,0.0,0.0,
0.6171,3.059880398250337,3.0210260854028324,3.0865359477361833,0.0,0.0,0.0,3.0558141437964514,0.0,0.0,0.0,0.0,0.0,0.0,0.0,0.0,0.0,0.0,0.0,0.0,0.0,0.0,
0.6364,3.0603081224301047,3.021448465760378,3.086973304642761,0.0,0.0,0.0,3.0562432976110814,0.0,0.0,0.0,0.0,0.0,0.0,0.0,0.0,0.0,0.0,0.0,0.0,0.0,0.0,
0.6557,3.0607493441567155,3.021884181892275,3.0874244563146935,0.0,0.0,0.0,3.056685994121228,0.0,0.0,0.0,0.0,0.0,0.0,0.0,0.0,0.0,0.0,0.0,0.0,0.0,0.0,
0.675,3.0612040936954994,3.022333264324927,3.0878894330390803,0.0,0.0,0.0,3.057142263686502,0.0,0.0,0.0,0.0,0.0,0.0,0.0,0.0,0.0,0.0,0.0,0.0,0.0,0.0,
0.6942,3.0616699408346864,3.022793313730394,3.08836574932465,0.0,0.0,0.0,3.0576096679632436,0.0,0.0,0.0,0.0,0.0,0.0,0.0,0.0,0.0,0.0,0.0,0.0,0.0,0.0,
0.7135,3.0621517702650123,3.0232691546842325,3.088858398928259,0.0,0.0,0.0,3.058093107959168,0.0,0.0,0.0,0.0,0.0,0.0,0.0,0.0,0.0,0.0,0.0,0.0,0.0,0.0,
0.7328,3.0626472241154183,3.0237584593825884,3.089364970229391,0.0,0.0,0.0,3.0585902179091327,0.0,0.0,0.0,0.0,0.0,0.0,0.0,0.0,0.0,0.0,0.0,0.0,0.0,0.0,
0.7521,3.0631563366654393,3.0242612624024714,3.0898854975088845,0.0,0.0,0.0,3.059101032192265,0.0,0.0,0.0,0.0,0.0,0.0,0.0,0.0,0.0,0.0,0.0,0.0,0.0,0.0,
0.7714,3.063679143221337,3.0247775993568915,3.090420016067895,0.0,0.0,0.0,3.059625586215375,0.0,0.0,0.0,0.0,0.0,0.0,0.0,0.0,0.0,0.0,0.0,0.0,0.0,0.0,
0.7907,3.0642156801255207,3.025307506904555,3.0909685622366707,0.0,0.0,0.0,3.060163916422249,0.0,0.0,0.0,0.0,0.0,0.0,0.0,0.0,0.0,0.0,0.0,0.0,0.0,0.0,
0.8099,3.0647630978985525,3.025848171477157,3.0915282219855853,0.0,0.0,0.0,3.060713163787098,0.0,0.0,0.0,0.0,0.0,0.0,0.0,0.0,0.0,0.0,0.0,0.0,0.0,0.0,
0.8292,3.065327137084435,3.026405263606896,3.0921048633513153,0.0,0.0,0.0,3.0612790880142153,0.0,0.0,0.0,0.0,0.0,0.0,0.0,0.0,0.0,0.0,0.0,0.0,0.0,0.0,
0.8485,3.0659050217538613,3.026976042469843,3.09269564737723,0.0,0.0,0.0,3.061858903866978,0.0,0.0,0.0,0.0,0.0,0.0,0.0,0.0,0.0,0.0,0.0,0.0,0.0,0.0,
0.8678,3.0664967924884943,3.0275605490027657,3.093300614598337,0.0,0.0,0.0,3.062452652029865,0.0,0.0,0.0,0.0,0.0,0.0,0.0,0.0,0.0,0.0,0.0,0.0,0.0,0.0,
0.8871,3.067102490957957,3.028158825240389,3.093919806627222,0.0,0.0,0.0,3.063060374275189,0.0,0.0,0.0,0.0,0.0,0.0,0.0,0.0,0.0,0.0,0.0,0.0,0.0,0.0,
0.9064,3.0677221599311455,3.0287709143268065,3.0945532661646498,0.0,0.0,0.0,3.0636821134742007,0.0,0.0,0.0,0.0,0.0,0.0,0.0,0.0,0.0,0.0,0.0,0.0,0.0,0.0,
0.9256,3.0683525237594145,3.0293935814923967,3.0951976437246143,0.0,0.0,0.0,3.0643145829921417,0.0,0.0,0.0,0.0,0.0,0.0,0.0,0.0,0.0,0.0,0.0,0.0,0.0,0.0,
0.9449,3.0690001935388027,3.0300333580536725,3.0958596962872096,0.0,0.0,0.0,3.064964415959895,0.0,0.0,0.0,0.0,0.0,0.0,0.0,0.0,0.0,0.0,0.0,0.0,0.0,0.0,
0.9642,3.0696619686020292,3.0306870834292656,3.096536150859889,0.0,0.0,0.0,3.065628400963728,0.0,0.0,0.0,0.0,0.0,0.0,0.0,0.0,0.0,0.0,0.0,0.0,0.0,0.0,
0.9835,3.070337896230663,3.031354805317514,3.097227054603514,0.0,0.0,0.0,3.066306585383897,0.0,0.0,0.0,0.0,0.0,0.0,0.0,0.0,0.0,0.0,0.0,0.0,0.0,0.0,
1.0028,3.0710280248680792,3.03203657258924,3.0979324558253634,0.0,0.0,0.0,3.066999017760894,0.0,0.0,0.0,0.0,0.0,0.0,0.0,0.0,0.0,0.0,0.0,0.0,0.0,0.0,
1.0221,3.07173240413316,3.0327324353016576,3.0986524039919483,0.0,0.0,0.0,3.067705747808922,0.0,0.0,0.0,0.0,0.0,0.0,0.0,0.0,0.0,0.0,0.0,0.0,0.0,0.0,
1.0414,3.072451084834475,3.0334424447124766,3.0993869497420845,0.0,0.0,0.0,3.068426826429679,0.0,0.0,0.0,0.0,0.0,0.0,0.0,0.0,0.0,0.0,0.0,0.0,0.0,0.0,
1.0606,3.0731802837971736,3.0341628642322664,3.100132225214655,0.0,0.0,0.0,3.0691584577480313,0.0,0.0,0.0,0.0,0.0,0.0,0.0,0.0,0.0,0.0,0.0,0.0,0.0,0.0,
1.0799,3.0739276498428696,3.034901251699409,3.1008960464882733,0.0,0.0,0.0,3.0699083160101837,0.0,0.0,0.0,0.0,0.0,0.0,0.0,0.0,0.0,0.0,0.0,0.0,0.0,0.0,
1.0992,3.074689476750341,3.0356539467022294,3.1016746241484565,0.0,0.0,0.0,3.070672682533676,0.0,0.0,0.0,0.0,0.0,0.0,0.0,0.0,0.0,0.0,0.0,0.0,0.0,0.0,
1.1185,3.0754658202299012,3.036421005445036,3.1024680136557645,0.0,0.0,0.0,3.071451613110234,0.0,0.0,0.0,0.0,0.0,0.0,0.0,0.0,0.0,0.0,0.0,0.0,0.0,0.0,
1.1378,3.076256737258593,3.0372024854102553,3.103276271714454,0.0,0.0,0.0,3.072245164794434,0.0,0.0,0.0,0.0,0.0,0.0,0.0,0.0,0.0,0.0,0.0,0.0,0.0,0.0,
1.1571,3.077062286096958,3.0379984453754503,3.104099456288101,0.0,0.0,0.0,3.0730533959201694,0.0,0.0,0.0,0.0,0.0,0.0,0.0,0.0,0.0,0.0,0.0,0.0,0.0,0.0,
1.1763,3.077878238390057,3.0388047083704324,3.104933245038908,0.0,0.0,0.0,3.0738720639331327,0.0,0.0,0.0,0.0,0.0,0.0,0.0,0.0,0.0,0.0,0.0,0.0,0.0,0.0,
1.1956,3.078713154255001,3.0396297341202665,3.1057863835324637,0.0,0.0,0.0,3.074709757302577,0.0,0.0,0.0,0.0,0.0,0.0,0.0,0.0,0.0,0.0,0.0,0.0,0.0,0.0,
1.2149,3.079562884262459,3.04046942382151,3.1066546298258135,0.0,0.0,0.0,3.075562312636594,0.0,0.0,0.0,0.0,0.0,0.0,0.0,0.0,0.0,0.0,0.0,0.0,0.0,0.0,
1.2342,3.0804274919784493,3.0413238416044117,3.10753804707731,0.0,0.0,0.0,3.0764297935533897,0.0,0.0,0.0,0.0,0.0,0.0,0.0,0.0,0.0,0.0,0.0,0.0,0.0,0.0,
1.2535,3.0813070423442888,3.042193052986576,3.1084366997891535,0.0,0.0,0.0,3.0773122650400064,0.0,0.0,0.0,0.0,0.0,0.0,0.0,0.0,0.0,0.0,0.0,0.0,0.0,0.0,
1.2728,3.082201601696593,3.04307712489307,3.1093506538257722,0.0,0.0,0.0,3.0782097934718116,0.0,0.0,0.0,0.0,0.0,0.0,0.0,0.0,0.0,0.0,0.0,0.0,0.0,0.0,
1.2921,3.083111237787896,3.043976125677012,3.110279976432759,0.0,0.0,0.0,3.0791224466325553,0.0,0.0,0.0,0.0,0.0,0.0,0.0,0.0,0.0,0.0,0.0,0.0,0.0,0.0,
1.3113,3.0840311890358665,3.044885350615563,3.111219801222612,0.0,0.0,0.0,3.080045446958014,0.0,0.0,0.0,0.0,0.0,0.0,0.0,0.0,0.0,0.0,0.0,0.0,0.0,0.0,
1.3306,3.0849711086060214,3.045814341764329,3.1121799877976666,0.0,0.0,0.0,3.080988479389339,0.0,0.0,0.0,0.0,0.0,0.0,0.0,0.0,0.0,0.0,0.0,0.0,0.0,0.0,
1.3499,3.0859263165057325,3.0467584752534576,3.113155752789528,0.0,0.0,0.0,3.081946848182906,0.0,0.0,0.0,0.0,0.0,0.0,0.0,0.0,0.0,0.0,0.0,0.0,0.0,0.0,
1.3692,3.0868968863615747,3.0477178253594794,3.114147169160586,0.0,0.0,0.0,3.082920626960547,0.0,0.0,0.0,0.0,0.0,0.0,0.0,0.0,0.0,0.0,0.0,0.0,0.0,0.0,
1.3885,3.0878828933283367,3.0486924678995395,3.115154311357055,0.0,0.0,0.0,3.083909890861644,0.0,0.0,0.0,0.0,0.0,0.0,0.0,0.0,0.0,0.0,0.0,0.0,0.0,0.0,
1.4078,3.088884414113404,3.049682480255887,3.1161772553313423,0.0,0.0,0.0,3.0849147165668778,0.0,0.0,0.0,0.0,0.0,0.0,0.0,0.0,0.0,0.0,0.0,0.0,0.0,0.0,
1.427,3.0898962166660633,3.0506826918050525,3.1172106550014944,0.0,0.0,0.0,3.0859298544908698,0.0,0.0,0.0,0.0,0.0,0.0,0.0,0.0,0.0,0.0,0.0,0.0,0.0,0.0,
1.4463,3.0909289201365397,3.0517036016543635,3.1182653536365805,0.0,0.0,0.0,3.0869659584758278,0.0,0.0,0.0,0.0,0.0,0.0,0.0,0.0,0.0,0.0,0.0,0.0,0.0,0.0,
1.4656,3.09197737669252,3.0527401226827937,3.1193360907543566,0.0,0.0,0.0,3.0880178633765567,0.0,0.0,0.0,0.0,0.0,0.0,0.0,0.0,0.0,0.0,0.0,0.0,0.0,0.0,
1.4849,3.093041669502827,3.053792338783821,3.1204229485593817,0.0,0.0,0.0,3.08908565228201,0.0,0.0,0.0,0.0,0.0,0.0,0.0,0.0,0.0,0.0,0.0,0.0,0.0,0.0,
1.5042,3.094121883422505,3.0548603355493924,3.1215260108835676,0.0,0.0,0.0,3.0901694099518213,0.0,0.0,0.0,0.0,0.0,0.0,0.0,0.0,0.0,0.0,0.0,0.0,0.0,0.0,
1.5235,3.095218105021824,3.0559442002990456,3.122645363212624,0.0,0.0,0.0,3.0912692228444976,0.0,0.0,0.0,0.0,0.0,0.0,0.0,0.0,0.0,0.0,0.0,0.0,0.0,0.0,
1.5427,3.0963246176757253,3.05703828227093,3.1237751657445822,0.0,0.0,0.0,3.092379355230413,0.0,0.0,0.0,0.0,0.0,0.0,0.0,0.0,0.0,0.0,0.0,0.0,0.0,0.0,
1.562,3.0974530372562423,3.0581540686209747,3.124927275743258,0.0,0.0,0.0,3.0935114605401584,0.0,0.0,0.0,0.0,0.0,0.0,0.0,0.0,0.0,0.0,0.0,0.0,0.0,0.0,
1.5813,3.098597734342655,3.059285995097741,3.1260959419271237,0.0,0.0,0.0,3.0946598904558402,0.0,0.0,0.0,0.0,0.0,0.0,0.0,0.0,0.0,0.0,0.0,0.0,0.0,0.0,
1.6006,3.099758802665936,3.060434156229454,3.127281256666439,0.0,0.0,0.0,3.09582473852061,0.0,0.0,0.0,0.0,0.0,0.0,0.0,0.0,0.0,0.0,0.0,0.0,0.0,0.0,
1.6199,3.1009363378314054,3.0615986484302735,3.128483314128567,0.0,0.0,0.0,3.097006100130082,0.0,0.0,0.0,0.0,0.0,0.0,0.0,0.0,0.0,0.0,0.0,0.0,0.0,0.0,
1.6392,3.1021304373536287,3.0627795700349694,3.129702210309055,0.0,0.0,0.0,3.0982040725658844,0.0,0.0,0.0,0.0,0.0,0.0,0.0,0.0,0.0,0.0,0.0,0.0,0.0,0.0,
1.6585,3.1033412006920873,3.063977021334449,3.130938043063878,0.0,0.0,0.0,3.099418755030138,0.0,0.0,0.0,0.0,0.0,0.0,0.0,0.0,0.0,0.0,0.0,0.0,0.0,0.0,
1.6777,3.104562325651804,3.0651847709828353,3.1321843765124373,0.0,0.0,0.0,3.100643824382359,0.0,0.0,0.0,0.0,0.0,0.0,0.0,0.0,0.0,0.0,0.0,0.0,0.0,0.0,
1.697,3.105806635294357,3.066415503564689,3.13345429452791,0.0,0.0,0.0,3.101892144462319,0.0,0.0,0.0,0.0,0.0,0.0,0.0,0.0,0.0,0.0,0.0,0.0,0.0,0.0,
1.7163,3.10706791862468,3.0676630782664125,3.134741453640668,0.0,0.0,0.0,3.103157483510587,0.0,0.0,0.0,0.0,0.0,0.0,0.0,0.0,0.0,0.0,0.0,0.0,0.0,0.0,
1.7356,3.1083462832522035,3.068927603570174,3.136045959477622,0.0,0.0,0.0,3.1044399487666663,0.0,0.0,0.0,0.0,0.0,0.0,0.0,0.0,0.0,0.0,0.0,0.0,0.0,0.0,
1.7549,3.109641838927506,3.070209190108646,3.1373679197009285,0.0,0.0,0.0,3.105739649579027,0.0,0.0,0.0,0.0,0.0,0.0,0.0,0.0,0.0,0.0,0.0,0.0,0.0,0.0,
1.7742,3.1109546975852695,3.071507950707528,3.1387074440460325,0.0,0.0,0.0,3.1070566974462768,0.0,0.0,0.0,0.0,0.0,0.0,0.0,0.0,0.0,0.0,0.0,0.0,0.0,0.0,
1.7934,3.1122780356811193,3.072817136760388,3.140057566485237,0.0,0.0,0.0,3.108384246308914,0.0,0.0,0.0,0.0,0.0,0.0,0.0,0.0,0.0,0.0,0.0,0.0,0.0,0.0,
1.8127,3.1136257539161862,3.074150502454371,3.1414324642977665,0.0,0.0,0.0,3.1097362402227744,0.0,0.0,0.0,0.0,0.0,0.0,0.0,0.0,0.0,0.0,0.0,0.0,0.0,0.0,
1.832,3.1149911238719628,3.0755013936627074,3.142825267669437,0.0,0.0,0.0,3.111105928401369,0.0,0.0,0.0,0.0,0.0,0.0,0.0,0.0,0.0,0.0,0.0,0.0,0.0,0.0,
1.8513,3.1163742666650873,3.0768699324225146,3.1442360950220274,0.0,0.0,0.0,3.112493431369876,0.0,0.0,0.0,0.0,0.0,0.0,0.0,0.0,0.0,0.0,0.0,0.0,0.0,0.0,
1.8706,3.1177753058323483,3.0782562431965785,3.1456650670588537,0.0,0.0,0.0,3.11389887202926,0.0,0.0,0.0,0.0,0.0,0.0,0.0,0.0,0.0,0.0,0.0,0.0,0.0,0.0,
1.8899,3.1191943673825446,3.0796604529244194,3.1471123068104028,0.0,0.0,0.0,3.115322375705789,0.0,0.0,0.0,0.0,0.0,0.0,0.0,0.0,0.0,0.0,0.0,0.0,0.0,0.0,
1.9092,3.1206315798500417,3.0810826910749034,3.148577939681145,0.0,0.0,0.0,3.1167640702020303,0.0,0.0,0.0,0.0,0.0,0.0,0.0,0.0,0.0,0.0,0.0,0.0,0.0,0.0,
1.9284,3.1220794855823555,3.082515579461413,3.1500543556264917,0.0,0.0,0.0,3.1182164735567532,0.0,0.0,0.0,0.0,0.0,0.0,0.0,0.0,0.0,0.0,0.0,0.0,0.0,0.0,
1.9477,3.1235533001002818,3.083974178108875,3.15155706370986,0.0,0.0,0.0,3.1196948473063393,0.0,0.0,0.0,0.0,0.0,0.0,0.0,0.0,0.0,0.0,0.0,0.0,0.0,0.0,
1.967,3.1250456661402075,3.085451208594183,3.153078555166476,0.0,0.0,0.0,3.1211918099669553,0.0,0.0,0.0,0.0,0.0,0.0,0.0,0.0,0.0,0.0,0.0,0.0,0.0,0.0,
1.9863,3.126556722895915,3.0869468110495406,3.154618965382357,0.0,0.0,0.0,3.1227074997759376,0.0,0.0,0.0,0.0,0.0,0.0,0.0,0.0,0.0,0.0,0.0,0.0,0.0,0.0,
2.0056,3.128086612381992,3.0884611284255117,3.1561784323745887,0.0,0.0,0.0,3.1242420577273644,0.0,0.0,0.0,0.0,0.0,0.0,0.0,0.0,0.0,0.0,0.0,0.0,0.0,0.0,
2.0249,3.1296354794987704,3.0899943065546647,3.1577570968477273,0.0,0.0,0.0,3.125795627633721,0.0,0.0,0.0,0.0,0.0,0.0,0.0,0.0,0.0,0.0,0.0,0.0,0.0,0.0,
2.0441,3.1311952982374724,3.0915384025429344,3.1593467723354474,0.0,0.0,0.0,3.1273601577052847,0.0,0.0,0.0,0.0,0.0,0.0,0.0,0.0,0.0,0.0,0.0,0.0,0.0,0.0,
2.0634,3.1327824669277065,3.093109651856623,3.1609641635752257,0.0,0.0,0.0,3.128952094119852,0.0,0.0,0.0,0.0,0.0,0.0,0.0,0.0,0.0,0.0,0.0,0.0,0.0,0.0,
2.0827,3.134389065144255,3.0947002165702377,3.162601190345771,0.0,0.0,0.0,3.1305634906867543,0.0,0.0,0.0,0.0,0.0,0.0,0.0,0.0,0.0,0.0,0.0,0.0,0.0,0.0,
2.102,3.136015250011501,3.0963102547066574,3.164258004687224,0.0,0.0,0.0,3.132194503135127,0.0,0.0,0.0,0.0,0.0,0.0,0.0,0.0,0.0,0.0,0.0,0.0,0.0,0.0,
2.1213,3.137661181900092,3.0979399275214266,3.165934761637331,0.0,0.0,0.0,3.1338452903529497,0.0,0.0,0.0,0.0,0.0,0.0,0.0,0.0,0.0,0.0,0.0,0.0,0.0,0.0,
2.1406,3.13932702450696,3.099589399580064,3.1676316192996103,0.0,0.0,0.0,3.135516014462212,0.0,0.0,0.0,0.0,0.0,0.0,0.0,0.0,0.0,0.0,0.0,0.0,0.0,0.0,
2.1598,3.1410041575625613,3.101250137141146,3.1693397894206203,0.0,0.0,0.0,3.1371980280414427,0.0,0.0,0.0,0.0,0.0,0.0,0.0,0.0,0.0,0.0,0.0,0.0,0.0,0.0,
2.1791,3.14271022105845,3.1029396102344022,3.1710772291705793,0.0,0.0,0.0,3.138909020154477,0.0,0.0,0.0,0.0,0.0,0.0,0.0,0.0,0.0,0.0,0.0,0.0,0.0,0.0,
2.1984,3.1444367062512857,3.1046493960271446,3.172835262178031,0.0,0.0,0.0,3.1406404548188203,0.0,0.0,0.0,0.0,0.0,0.0,0.0,0.0,0.0,0.0,0.0,0.0,0.0,0.0,
2.2177,3.1461837909814445,3.106379673134979,3.1746140595217356,0.0,0.0,0.0,3.142392507879386,0.0,0.0,0.0,0.0,0.0,0.0,0.0,0.0,0.0,0.0,0.0,0.0,0.0,0.0,
2.237,3.147951656859819,3.1081306239122215,3.176413795723273,0.0,0.0,0.0,3.144165358831771,0.0,0.0,0.0,0.0,0.0,0.0,0.0,0.0,0.0,0.0,0.0,0.0,0.0,0.0,
2.2563,3.1497404893667,3.1099024345470703,3.178234648830352,0.0,0.0,0.0,3.145959190914707,0.0,0.0,0.0,0.0,0.0,0.0,0.0,0.0,0.0,0.0,0.0,0.0,0.0,0.0,
2.2756,3.151550477954518,3.1116952951600365,3.180076800502968,0.0,0.0,0.0,3.147774191205841,0.0,0.0,0.0,0.0,0.0,0.0,0.0,0.0,0.0,0.0,0.0,0.0,0.0,0.0,
2.2948,3.1533722719950874,3.1134999453101178,3.181930724267899,0.0,0.0,0.0,3.1496009805243683,0.0,0.0,0.0,0.0,0.0,0.0,0.0,0.0,0.0,0.0,0.0,0.0,0.0,0.0,
2.3141,3.1552250453661133,3.11533538086521,3.183815920160923,0.0,0.0,0.0,3.151458782130749,0.0,0.0,0.0,0.0,0.0,0.0,0.0,0.0,0.0,0.0,0.0,0.0,0.0,0.0,
2.3334,3.1570995670356803,3.1171924603325722,3.1857229811721974,0.0,0.0,0.0,3.15333833618015,0.0,0.0,0.0,0.0,0.0,0.0,0.0,0.0,0.0,0.0,0.0,0.0,0.0,0.0,
2.3527,3.1589960434281976,3.119071390597531,3.187652104315409,0.0,0.0,0.0,3.1552398461137128,0.0,0.0,0.0,0.0,0.0,0.0,0.0,0.0,0.0,0.0,0.0,0.0,0.0,0.0,
2.372,3.160914685514679,3.120972383026241,3.189603490695512,0.0,0.0,0.0,3.1571635197454775,0.0,0.0,0.0,0.0,0.0,0.0,0.0,0.0,0.0,0.0,0.0,0.0,0.0,0.0,
2.3913,3.1628557089415406,3.1228956535879764,3.1915773456152112,0.0,0.0,0.0,3.159109569381576,0.0,0.0,0.0,0.0,0.0,0.0,0.0,0.0,0.0,0.0,0.0,0.0,0.0,0.0,
2.4105,3.164809101305968,3.1248312829058436,3.1935634751423527,0.0,0.0,0.0,3.1610679531180548,0.0,0.0,0.0,0.0,0.0,0.0,0.0,0.0,0.0,0.0,0.0,0.0,0.0,0.0,
2.4298,3.166795434864296,3.1267996583608983,3.195582781225109,0.0,0.0,0.0,3.163059291483435,0.0,0.0,0.0,0.0,0.0,0.0,0.0,0.0,0.0,0.0,0.0,0.0,0.0,0.0,
2.4491,3.168804824913586,3.1287909875622395,3.1976251969230667,0.0,0.0,0.0,3.165073669799631,0.0,0.0,0.0,0.0,0.0,0.0,0.0,0.0,0.0,0.0,0.0,0.0,0.0,0.0,
2.4684,3.170837507168968,3.1308055061843425,3.1996909454522062,0.0,0.0,0.0,3.1671113196018386,0.0,0.0,0.0,0.0,0.0,0.0,0.0,0.0,0.0,0.0,0.0,0.0,0.0,0.0,
2.4877,3.1728937227465326,3.1328434551900624,3.201780254820973,0.0,0.0,0.0,3.1691724775858563,0.0,0.0,0.0,0.0,0.0,0.0,0.0,0.0,0.0,0.0,0.0,0.0,0.0,0.0,
2.507,3.174973718326999,3.134905080984305,3.2038933579634956,0.0,0.0,0.0,3.1712573857582664,0.0,0.0,0.0,0.0,0.0,0.0,0.0,0.0,0.0,0.0,0.0,0.0,0.0,0.0,
