energies(eV),real_xx,real_yy,real_zz,real_xy,real_yz,real_xz,real_ave,imag_xx,imag_yy,imag_zz,imag_xy,imag_yz,imag_xz,imag_ave,absorption_xx,absorption_yy,absorption_zz,absorption_xy,absorption_yz,absorption_xz,absorption_ave,band_gap
0.0,3.0930344665757796,3.0930344665757796,3.066121159492347,0.0,0.0,0.0,3.084063364214636,0.0,0.0,0.0,0.0,0.0,0.0,0.0,0.0,0.0,0.0,0.0,0.0,0.0,0.0,6.170299999999999
0.0195,3.0930413312930014,3.0930413312930014,3.0661279205247127,0.0,0.0,0.0,3.084070194370238,0.0,0.0,0.0,0.0,0.0,0.0,0.0,0.0,0.0,0.0,0.0,0.0,0.0,0.0,
0.0389,3.0930617852065465,3.0930617852065465,3.0661480655053386,0.0,0.0,0.0,3.0840905453061436,0.0,0.0,0.0,0.0,0.0,0.0,0.0,0.0,0.0,0.0,0.0,0.0,0.0,0.0,
0.0584,3.093096040376852,3.093096040376852,3.0661818033022312,0.0,0.0,0.0,3.0841246280186447,0.0,0.0,0.0,0.0,0.0,0.0,0.0,0.0,0.0,0.0,0.0,0.0,0.0,0.0,
0.0779,3.0931440285771394,3.0931440285771394,3.066229066736704,0.0,0.0,0.0,3.0841723746303273,0.0,0.0,0.0,0.0,0.0,0.0,0.0,0.0,0.0,0.0,0.0,0.0,0.0,0.0,
0.0973,3.0932054010312573,3.0932054010312573,3.0662895123244707,0.0,0.0,0.0,3.084233438128995,0.0,0.0,0.0,0.0,0.0,0.0,0.0,0.0,0.0,0.0,0.0,0.0,0.0,0.0,
0.1168,3.093280794032923,3.093280794032923,3.0663637667812718,0.0,0.0,0.0,3.084308451615706,0.0,0.0,0.0,0.0,0.0,0.0,0.0,0.0,0.0,0.0,0.0,0.0,0.0,0.0,
0.1363,3.093369930856741,3.093369930856741,3.066451557599777,0.0,0.0,0.0,3.0843971397710863,0.0,0.0,0.0,0.0,0.0,0.0,0.0,0.0,0.0,0.0,0.0,0.0,0.0,0.0,
0.1557,3.0934722540088124,3.0934722540088124,3.066552335749266,0.0,0.0,0.0,3.084498947922297,0.0,0.0,0.0,0.0,0.0,0.0,0.0,0.0,0.0,0.0,0.0,0.0,0.0,0.0,
0.1752,3.0935888243532474,3.0935888243532474,3.0666671461282418,0.0,0.0,0.0,3.084614931611579,0.0,0.0,0.0,0.0,0.0,0.0,0.0,0.0,0.0,0.0,0.0,0.0,0.0,0.0,
0.1946,3.093718453037243,3.093718453037243,3.066794817892394,0.0,0.0,0.0,3.08474390798896,0.0,0.0,0.0,0.0,0.0,0.0,0.0,0.0,0.0,0.0,0.0,0.0,0.0,0.0,
0.2141,3.0938624840277114,3.0938624840277114,3.066936674786377,0.0,0.0,0.0,3.0848872142806,0.0,0.0,0.0,0.0,0.0,0.0,0.0,0.0,0.0,0.0,0.0,0.0,0.0,0.0,
0.2336,3.094020292856249,3.094020292856249,3.067092101843656,0.0,0.0,0.0,3.085044229185385,0.0,0.0,0.0,0.0,0.0,0.0,0.0,0.0,0.0,0.0,0.0,0.0,0.0,0.0,
0.253,3.0941909735949853,3.0941909735949853,3.0672602068877506,0.0,0.0,0.0,3.0852140513592405,0.0,0.0,0.0,0.0,0.0,0.0,0.0,0.0,0.0,0.0,0.0,0.0,0.0,0.0,
0.2725,3.0943762958439756,3.0943762958439756,3.0674427329022325,0.0,0.0,0.0,3.0853984415300615,0.0,0.0,0.0,0.0,0.0,0.0,0.0,0.0,0.0,0.0,0.0,0.0,0.0,0.0,
0.292,3.094575426024474,3.094575426024474,3.067638858984089,0.0,0.0,0.0,3.0855965703443453,0.0,0.0,0.0,0.0,0.0,0.0,0.0,0.0,0.0,0.0,0.0,0.0,0.0,0.0,
0.3114,3.0947872484869046,3.0947872484869046,3.0678474864129615,0.0,0.0,0.0,3.08580732779559,0.0,0.0,0.0,0.0,0.0,0.0,0.0,0.0,0.0,0.0,0.0,0.0,0.0,0.0,
0.3309,3.0950139594048007,3.0950139594048007,3.068070778345738,0.0,0.0,0.0,3.08603289905178,0.0,0.0,0.0,0.0,0.0,0.0,0.0,0.0,0.0,0.0,0.0,0.0,0.0,0.0,
0.3504,3.0952545156626763,3.0952545156626763,3.0683077075193697,0.0,0.0,0.0,3.086272246281574,0.0,0.0,0.0,0.0,0.0,0.0,0.0,0.0,0.0,0.0,0.0,0.0,0.0,0.0,
0.3698,3.0955075913144503,3.0955075913144503,3.0685569680984286,0.0,0.0,0.0,3.0865240502424434,0.0,0.0,0.0,0.0,0.0,0.0,0.0,0.0,0.0,0.0,0.0,0.0,0.0,0.0,
0.3893,3.0957758102759594,3.0957758102759594,3.0688211445747235,0.0,0.0,0.0,3.086790921708881,0.0,0.0,0.0,0.0,0.0,0.0,0.0,0.0,0.0,0.0,0.0,0.0,0.0,0.0,
0.4088,3.096057919360391,3.096057919360391,3.0690990027939926,0.0,0.0,0.0,3.0870716138382583,0.0,0.0,0.0,0.0,0.0,0.0,0.0,0.0,0.0,0.0,0.0,0.0,0.0,0.0,
0.4282,3.0963523816407665,3.0963523816407665,3.0693890291257158,0.0,0.0,0.0,3.087364597469083,0.0,0.0,0.0,0.0,0.0,0.0,0.0,0.0,0.0,0.0,0.0,0.0,0.0,0.0,
0.4477,3.0966622501746244,3.0966622501746244,3.069694230787331,0.0,0.0,0.0,3.08767291037886,0.0,0.0,0.0,0.0,0.0,0.0,0.0,0.0,0.0,0.0,0.0,0.0,0.0,0.0,
0.4672,3.0969860610601394,3.0969860610601394,3.070013166093804,0.0,0.0,0.0,3.0879950960713614,0.0,0.0,0.0,0.0,0.0,0.0,0.0,0.0,0.0,0.0,0.0,0.0,0.0,0.0,
0.4866,3.097322065594541,3.097322065594541,3.0703441128297313,0.0,0.0,0.0,3.0883294146729376,0.0,0.0,0.0,0.0,0.0,0.0,0.0,0.0,0.0,0.0,0.0,0.0,0.0,0.0,
0.5061,3.0976737476091945,3.0976737476091945,3.070690502560188,0.0,0.0,0.0,3.088679332592859,0.0,0.0,0.0,0.0,0.0,0.0,0.0,0.0,0.0,0.0,0.0,0.0,0.0,0.0,
0.5255,3.0980375206752186,3.0980375206752186,3.071048803007808,0.0,0.0,0.0,3.0890412814527486,0.0,0.0,0.0,0.0,0.0,0.0,0.0,0.0,0.0,0.0,0.0,0.0,0.0,0.0,
0.545,3.0984171565822884,3.0984171565822884,3.071422729409226,0.0,0.0,0.0,3.0894190141912676,0.0,0.0,0.0,0.0,0.0,0.0,0.0,0.0,0.0,0.0,0.0,0.0,0.0,0.0,
0.5645,3.098810838628267,3.098810838628267,3.071810492595359,0.0,0.0,0.0,3.0898107232839642,0.0,0.0,0.0,0.0,0.0,0.0,0.0,0.0,0.0,0.0,0.0,0.0,0.0,0.0,
0.5839,3.0992164632022594,3.0992164632022594,3.0722100207721854,0.0,0.0,0.0,3.090214315725568,0.0,0.0,0.0,0.0,0.0,0.0,0.0,0.0,0.0,0.0,0.0,0.0,0.0,0.0,
0.6034,3.0996382361113852,3.0996382361113852,3.072625456747534,0.0,0.0,0.0,3.090633976323435,0.0,0.0,0.0,0.0,0.0,0.0,0.0,0.0,0.0,0.0,0.0,0.0,0.0,0.0,
0.6229,3.1000741276812738,3.1000741276812738,3.073054801578725,0.0,0.0,0.0,3.0910676856470913,0.0,0.0,0.0,0.0,0.0,0.0,0.0,0.0,0.0,0.0,0.0,0.0,0.0,0.0,
0.6423,3.1005218198558926,3.1005218198558926,3.073495772234461,0.0,0.0,0.0,3.0915131373154154,0.0,0.0,0.0,0.0,0.0,0.0,0.0,0.0,0.0,0.0,0.0,0.0,0.0,0.0,
0.6618,3.100985954726683,3.100985954726683,3.0739529413466653,0.0,0.0,0.0,3.091974950266677,0.0,0.0,0.0,0.0,0.0,0.0,0.0,0.0,0.0,0.0,0.0,0.0,0.0,0.0,
0.6813,3.101464288593584,3.101464288593584,3.0744240991523584,0.0,0.0,0.0,3.0924508921131757,0.0,0.0,0.0,0.0,0.0,0.0,0.0,0.0,0.0,0.0,0.0,0.0,0.0,0.0,
0.7007,3.101954287743555,3.101954287743555,3.0749067501786493,0.0,0.0,0.0,3.0929384418885864,0.0,0.0,0.0,0.0,0.0,0.0,0.0,0.0,0.0,0.0,0.0,0.0,0.0,0.0,
0.7202,3.1024610330635927,3.1024610330635927,3.0754058993774698,0.0,0.0,0.0,3.0934426551682184,0.0,0.0,0.0,0.0,0.0,0.0,0.0,0.0,0.0,0.0,0.0,0.0,0.0,0.0,
0.7397,3.1029820656594502,3.1029820656594502,3.075919125004317,0.0,0.0,0.0,3.0939610854410726,0.0,0.0,0.0,0.0,0.0,0.0,0.0,0.0,0.0,0.0,0.0,0.0,0.0,0.0,
0.7591,3.1035146348313316,3.1035146348313316,3.076443717823445,0.0,0.0,0.0,3.094490995828703,0.0,0.0,0.0,0.0,0.0,0.0,0.0,0.0,0.0,0.0,0.0,0.0,0.0,0.0,
0.7786,3.1040642630216366,3.1040642630216366,3.0769851178496586,0.0,0.0,0.0,3.095037881297644,0.0,0.0,0.0,0.0,0.0,0.0,0.0,0.0,0.0,0.0,0.0,0.0,0.0,0.0,
0.7981,3.1046282748564447,3.1046282748564447,3.0775406900796614,0.0,0.0,0.0,3.09559907993085,0.0,0.0,0.0,0.0,0.0,0.0,0.0,0.0,0.0,0.0,0.0,0.0,0.0,0.0,
0.8175,3.1052037011995313,3.1052037011995313,3.0781075100741258,0.0,0.0,0.0,3.0961716374910626,0.0,0.0,0.0,0.0,0.0,0.0,0.0,0.0,0.0,0.0,0.0,0.0,0.0,0.0,
0.837,3.1057965090618858,3.1057965090618858,3.078691455905611,0.0,0.0,0.0,3.0967614913431274,0.0,0.0,0.0,0.0,0.0,0.0,0.0,0.0,0.0,0.0,0.0,0.0,0.0,0.0,
0.8565,3.1064038051854044,3.1064038051854044,3.079289677916252,0.0,0.0,0.0,3.097365762762353,0.0,0.0,0.0,0.0,0.0,0.0,0.0,0.0,0.0,0.0,0.0,0.0,0.0,0.0,
0.8759,3.1070224004255365,3.1070224004255365,3.0798990349011683,0.0,0.0,0.0,3.0979812785840806,0.0,0.0,0.0,0.0,0.0,0.0,0.0,0.0,0.0,0.0,0.0,0.0,0.0,0.0,
0.8954,3.1076587096333284,3.1076587096333284,3.0805258462421703,0.0,0.0,0.0,3.0986144218362757,0.0,0.0,0.0,0.0,0.0,0.0,0.0,0.0,0.0,0.0,0.0,0.0,0.0,0.0,
0.9148,3.108306244824049,3.108306244824049,3.0811637211352827,0.0,0.0,0.0,3.0992587369277937,0.0,0.0,0.0,0.0,0.0,0.0,0.0,0.0,0.0,0.0,0.0,0.0,0.0,0.0,
0.9343,3.1089717210983268,3.1089717210983268,3.0818192748500643,0.0,0.0,0.0,3.0999209056822394,0.0,0.0,0.0,0.0,0.0,0.0,0.0,0.0,0.0,0.0,0.0,0.0,0.0,0.0,
0.9538,3.1096518787325667,3.1096518787325667,3.082489296665517,0.0,0.0,0.0,3.1005976847102166,0.0,0.0,0.0,0.0,0.0,0.0,0.0,0.0,0.0,0.0,0.0,0.0,0.0,0.0,
0.9732,3.1103431581964998,3.1103431581964998,3.0831702804174657,0.0,0.0,0.0,3.1012855322701554,0.0,0.0,0.0,0.0,0.0,0.0,0.0,0.0,0.0,0.0,0.0,0.0,0.0,0.0,
0.9927,3.11105272847037,3.11105272847037,3.083869288687845,0.0,0.0,0.0,3.101991581876195,0.0,0.0,0.0,0.0,0.0,0.0,0.0,0.0,0.0,0.0,0.0,0.0,0.0,0.0,
1.0122,3.1117771076026592,3.1117771076026592,3.084582891784431,0.0,0.0,0.0,3.102712368996583,0.0,0.0,0.0,0.0,0.0,0.0,0.0,0.0,0.0,0.0,0.0,0.0,0.0,0.0,
1.0316,3.1125125112471115,3.1125125112471115,3.085307361999423,0.0,0.0,0.0,3.103444128164549,0.0,0.0,0.0,0.0,0.0,0.0,0.0,0.0,0.0,0.0,0.0,0.0,0.0,0.0,
1.0511,3.113266566252183,3.113266566252183,3.0860502131917023,0.0,0.0,0.0,3.1041944485653556,0.0,0.0,0.0,0.0,0.0,0.0,0.0,0.0,0.0,0.0,0.0,0.0,0.0,0.0,
1.0706,3.1140355665770394,3.1140355665770394,3.086807794847934,0.0,0.0,0.0,3.1049596426673376,0.0,0.0,0.0,0.0,0.0,0.0,0.0,0.0,0.0,0.0,0.0,0.0,0.0,0.0,
1.09,3.1148155010163228,3.1148155010163228,3.0875761556861274,0.0,0.0,0.0,3.105735719239591,0.0,0.0,0.0,0.0,0.0,0.0,0.0,0.0,0.0,0.0,0.0,0.0,0.0,0.0,
1.1095,3.1156144585564602,3.1156144585564602,3.0883632650862856,0.0,0.0,0.0,3.106530727399735,0.0,0.0,0.0,0.0,0.0,0.0,0.0,0.0,0.0,0.0,0.0,0.0,0.0,0.0,
1.129,3.116428507074825,3.116428507074825,3.0891652497336084,0.0,0.0,0.0,3.107340754627753,0.0,0.0,0.0,0.0,0.0,0.0,0.0,0.0,0.0,0.0,0.0,0.0,0.0,0.0,
1.1484,3.117253406327952,3.117253406327952,3.089977932606272,0.0,0.0,0.0,3.1081615817540587,0.0,0.0,0.0,0.0,0.0,0.0,0.0,0.0,0.0,0.0,0.0,0.0,0.0,0.0,
1.1679,3.118097711998548,3.118097711998548,3.090809743136484,0.0,0.0,0.0,3.10900172237786,0.0,0.0,0.0,0.0,0.0,0.0,0.0,0.0,0.0,0.0,0.0,0.0,0.0,0.0,
1.1874,3.1189572637552136,3.1189572637552136,3.0916565830940144,0.0,0.0,0.0,3.109857036868147,0.0,0.0,0.0,0.0,0.0,0.0,0.0,0.0,0.0,0.0,0.0,0.0,0.0,0.0,
1.2068,3.1198275899979584,3.1198275899979584,3.092514047412773,0.0,0.0,0.0,3.1107230758028965,0.0,0.0,0.0,0.0,0.0,0.0,0.0,0.0,0.0,0.0,0.0,0.0,0.0,0.0,
1.2263,3.120717717960751,3.120717717960751,3.0933910304033256,0.0,0.0,0.0,3.1116088221082756,0.0,0.0,0.0,0.0,0.0,0.0,0.0,0.0,0.0,0.0,0.0,0.0,0.0,0.0,
1.2457,3.1216185736401734,3.1216185736401734,3.094278592552501,0.0,0.0,0.0,3.112505246610949,0.0,0.0,0.0,0.0,0.0,0.0,0.0,0.0,0.0,0.0,0.0,0.0,0.0,0.0,
1.2652,3.1225395012126977,3.1225395012126977,3.095185940651785,0.0,0.0,0.0,3.1134216476923933,0.0,0.0,0.0,0.0,0.0,0.0,0.0,0.0,0.0,0.0,0.0,0.0,0.0,0.0,
1.2847,3.1234759550290887,3.1234759550290887,3.0961085966710318,0.0,0.0,0.0,3.1143535022430697,0.0,0.0,0.0,0.0,0.0,0.0,0.0,0.0,0.0,0.0,0.0,0.0,0.0,0.0,
1.3041,3.124423072486896,3.124423072486896,3.09704177009351,0.0,0.0,0.0,3.1152959716891004,0.0,0.0,0.0,0.0,0.0,0.0,0.0,0.0,0.0,0.0,0.0,0.0,0.0,0.0,
1.3236,3.1253906780854916,3.1253906780854916,3.0979951413088362,0.0,0.0,0.0,3.116258832493273,0.0,0.0,0.0,0.0,0.0,0.0,0.0,0.0,0.0,0.0,0.0,0.0,0.0,0.0,
1.3431,3.1263739916115605,3.1263739916115605,3.098964001054534,0.0,0.0,0.0,3.1172373280925516,0.0,0.0,0.0,0.0,0.0,0.0,0.0,0.0,0.0,0.0,0.0,0.0,0.0,0.0,
1.3625,3.1273679122126525,3.1273679122126525,3.099943323917386,0.0,0.0,0.0,3.1182263827808967,0.0,0.0,0.0,0.0,0.0,0.0,0.0,0.0,0.0,0.0,0.0,0.0,0.0,0.0,
1.382,3.1283827504011654,3.1283827504011654,3.1009432695418324,0.0,0.0,0.0,3.119236256781388,0.0,0.0,0.0,0.0,0.0,0.0,0.0,0.0,0.0,0.0,0.0,0.0,0.0,0.0,
1.4015,3.129413488747788,3.129413488747788,3.101958894796959,0.0,0.0,0.0,3.120261957430845,0.0,0.0,0.0,0.0,0.0,0.0,0.0,0.0,0.0,0.0,0.0,0.0,0.0,0.0,
1.4209,3.130454785284696,3.130454785284696,3.102984936524694,0.0,0.0,0.0,3.121298169031362,0.0,0.0,0.0,0.0,0.0,0.0,0.0,0.0,0.0,0.0,0.0,0.0,0.0,0.0,
1.4404,3.1315174425591947,3.1315174425591947,3.1040320396109484,0.0,0.0,0.0,3.122355641576446,0.0,0.0,0.0,0.0,0.0,0.0,0.0,0.0,0.0,0.0,0.0,0.0,0.0,0.0,
1.4599,3.132596203120952,3.132596203120952,3.105095024267945,0.0,0.0,0.0,3.1234291435032833,0.0,0.0,0.0,0.0,0.0,0.0,0.0,0.0,0.0,0.0,0.0,0.0,0.0,0.0,
1.4793,3.1336854808611068,3.1336854808611068,3.106168386584938,0.0,0.0,0.0,3.1245131161023836,0.0,0.0,0.0,0.0,0.0,0.0,0.0,0.0,0.0,0.0,0.0,0.0,0.0,0.0,
1.4988,3.1347965767268384,3.1347965767268384,3.107263263017113,0.0,0.0,0.0,3.1256188054902636,0.0,0.0,0.0,0.0,0.0,0.0,0.0,0.0,0.0,0.0,0.0,0.0,0.0,0.0,
1.5183,3.1359239902836835,3.1359239902836835,3.10837423417421,0.0,0.0,0.0,3.1267407382471926,0.0,0.0,0.0,0.0,0.0,0.0,0.0,0.0,0.0,0.0,0.0,0.0,0.0,0.0,
1.5377,3.1370618880906243,3.1370618880906243,3.1094955522203467,0.0,0.0,0.0,3.1278731094671985,0.0,0.0,0.0,0.0,0.0,0.0,0.0,0.0,0.0,0.0,0.0,0.0,0.0,0.0,
1.5572,3.138222076214698,3.138222076214698,3.110638851860925,0.0,0.0,0.0,3.1290276680967737,0.0,0.0,0.0,0.0,0.0,0.0,0.0,0.0,0.0,0.0,0.0,0.0,0.0,0.0,
1.5766,3.139392731254064,3.139392731254064,3.1117924824689056,0.0,0.0,0.0,3.130192648325678,0.0,0.0,0.0,0.0,0.0,0.0,0.0,0.0,0.0,0.0,0.0,0.0,0.0,0.0,
1.5961,3.1405859996438603,3.1405859996438603,3.112968414519258,0.0,0.0,0.0,3.1313801379356594,0.0,0.0,0.0,0.0,0.0,0.0,0.0,0.0,0.0,0.0,0.0,0.0,0.0,0.0,
1.6156,3.1417959690883106,3.1417959690883106,3.1141608224356747,0.0,0.0,0.0,3.132584253537432,0.0,0.0,0.0,0.0,0.0,0.0,0.0,0.0,0.0,0.0,0.0,0.0,0.0,0.0,
1.635,3.143016386511994,3.143016386511994,3.1153635444682566,0.0,0.0,0.0,3.1337987724974155,0.0,0.0,0.0,0.0,0.0,0.0,0.0,0.0,0.0,0.0,0.0,0.0,0.0,0.0,
1.6545,3.1442599154903697,3.1442599154903697,3.116589061292934,0.0,0.0,0.0,3.135036297424558,0.0,0.0,0.0,0.0,0.0,0.0,0.0,0.0,0.0,0.0,0.0,0.0,0.0,0.0,
1.674,3.1455203920306545,3.1455203920306545,3.1178312990688433,0.0,0.0,0.0,3.1362906943767173,0.0,0.0,0.0,0.0,0.0,0.0,0.0,0.0,0.0,0.0,0.0,0.0,0.0,0.0,
1.6934,3.146791306363488,3.146791306363488,3.1190838428133754,0.0,0.0,0.0,3.137555485180117,0.0,0.0,0.0,0.0,0.0,0.0,0.0,0.0,0.0,0.0,0.0,0.0,0.0,0.0,
1.7129,3.148085846936886,3.148085846936886,3.12035969109111,0.0,0.0,0.0,3.138843794988294,0.0,0.0,0.0,0.0,0.0,0.0,0.0,0.0,0.0,0.0,0.0,0.0,0.0,0.0,
1.7324,3.149397594471558,3.149397594471558,3.121652518227784,0.0,0.0,0.0,3.1401492357236336,0.0,0.0,0.0,0.0,0.0,0.0,0.0,0.0,0.0,0.0,0.0,0.0,0.0,0.0,
1.7518,3.1507197786540124,3.1507197786540124,3.1229556521799178,0.0,0.0,0.0,3.141465069829314,0.0,0.0,0.0,0.0,0.0,0.0,0.0,0.0,0.0,0.0,0.0,0.0,0.0,0.0,
1.7713,3.1520661209442933,3.1520661209442933,3.124282617493346,0.0,0.0,0.0,3.142804953127311,0.0,0.0,0.0,0.0,0.0,0.0,0.0,0.0,0.0,0.0,0.0,0.0,0.0,0.0,
1.7908,3.1534299430014525,3.1534299430014525,3.1256268329068653,0.0,0.0,0.0,3.14416223963659,0.0,0.0,0.0,0.0,0.0,0.0,0.0,0.0,0.0,0.0,0.0,0.0,0.0,0.0,
1.8102,3.1548042099221036,3.1548042099221036,3.126981365293442,0.0,0.0,0.0,3.1455299283792164,0.0,0.0,0.0,0.0,0.0,0.0,0.0,0.0,0.0,0.0,0.0,0.0,0.0,0.0,
1.8297,3.1562031847412526,3.1562031847412526,3.1283602736937715,0.0,0.0,0.0,3.146922214392092,0.0,0.0,0.0,0.0,0.0,0.0,0.0,0.0,0.0,0.0,0.0,0.0,0.0,0.0,
1.8492,3.1576199260887683,3.1576199260887683,3.129756717314805,0.0,0.0,0.0,3.1483321898307803,0.0,0.0,0.0,0.0,0.0,0.0,0.0,0.0,0.0,0.0,0.0,0.0,0.0,0.0,
1.8686,3.1590471302219885,3.1590471302219885,3.131163497720661,0.0,0.0,0.0,3.149752586054879,0.0,0.0,0.0,0.0,0.0,0.0,0.0,0.0,0.0,0.0,0.0,0.0,0.0,0.0,
1.8881,3.1604996107552084,3.1604996107552084,3.132595217399506,0.0,0.0,0.0,3.1511981463033076,0.0,0.0,0.0,0.0,0.0,0.0,0.0,0.0,0.0,0.0,0.0,0.0,0.0,0.0,
1.9076,3.161970159121539,3.161970159121539,3.1340447718823237,0.0,0.0,0.0,3.152661696708467,0.0,0.0,0.0,0.0,0.0,0.0,0.0,0.0,0.0,0.0,0.0,0.0,0.0,0.0,
1.927,3.1634511982779703,3.1634511982779703,3.135504692988575,0.0,0.0,0.0,3.154135696514839,0.0,0.0,0.0,0.0,0.0,0.0,0.0,0.0,0.0,0.0,0.0,0.0,0.0,0.0,
1.9465,3.164958101882568,3.164958101882568,3.136990136063907,0.0,0.0,0.0,3.155635446609681,0.0,0.0,0.0,0.0,0.0,0.0,0.0,0.0,0.0,0.0,0.0,0.0,0.0,0.0,
1.9659,3.1664755207248576,3.1664755207248576,3.1384859713995996,0.0,0.0,0.0,3.1571456709497716,0.0,0.0,0.0,0.0,0.0,0.0,0.0,0.0,0.0,0.0,0.0,0.0,0.0,0.0,
1.9854,3.168019206993592,3.168019206993592,3.1400077280536522,0.0,0.0,0.0,3.1586820473469452,0.0,0.0,0.0,0.0,0.0,0.0,0.0,0.0,0.0,0.0,0.0,0.0,0.0,0.0,
2.0049,3.16958149712191,3.16958149712191,3.1415478524784093,0.0,0.0,0.0,3.1602369489074094,0.0,0.0,0.0,0.0,0.0,0.0,0.0,0.0,0.0,0.0,0.0,0.0,0.0,0.0,
2.0243,3.1711543482115006,3.1711543482115006,3.1430984166209908,0.0,0.0,0.0,3.161802371014664,0.0,0.0,0.0,0.0,0.0,0.0,0.0,0.0,0.0,0.0,0.0,0.0,0.0,0.0,
2.0438,3.1727540893414132,3.1727540893414132,3.144675519146425,0.0,0.0,0.0,3.163394565943084,0.0,0.0,0.0,0.0,0.0,0.0,0.0,0.0,0.0,0.0,0.0,0.0,0.0,0.0,
2.0633,3.174372777596892,3.174372777596892,3.1462713307480903,0.0,0.0,0.0,3.1650056286472914,0.0,0.0,0.0,0.0,0.0,0.0,0.0,0.0,0.0,0.0,0.0,0.0,0.0,0.0,
2.0827,3.1760020837821146,3.1760020837821146,3.147877640704031,0.0,0.0,0.0,3.166627269422753,0.0,0.0,0.0,0.0,0.0,0.0,0.0,0.0,0.0,0.0,0.0,0.0,0.0,0.0,
2.1022,3.1776589246608062,3.1776589246608062,3.1495111280182537,0.0,0.0,0.0,3.168276325779955,0.0,0.0,0.0,0.0,0.0,0.0,0.0,0.0,0.0,0.0,0.0,0.0,0.0,0.0,
2.1217,3.179335072996978,3.179335072996978,3.1511636826794494,0.0,0.0,0.0,3.169944609557801,0.0,0.0,0.0,0.0,0.0,0.0,0.0,0.0,0.0,0.0,0.0,0.0,0.0,0.0,
2.1411,3.181021907980024,3.181021907980024,3.1528268060088935,0.0,0.0,0.0,3.1716235406563142,0.0,0.0,0.0,0.0,0.0,0.0,0.0,0.0,0.0,0.0,0.0,0.0,0.0,0.0,
2.1606,3.182736945394551,3.182736945394551,3.1545177686200176,0.0,0.0,0.0,3.1733305531363727,0.0,0.0,0.0,0.0,0.0,0.0,0.0,0.0,0.0,0.0,0.0,0.0,0.0,0.0,
2.1801,3.184471668467718,3.184471668467718,3.1562281746101255,0.0,0.0,0.0,3.175057170515187,0.0,0.0,0.0,0.0,0.0,0.0,0.0,0.0,0.0,0.0,0.0,0.0,0.0,0.0,
2.1995,3.1862171591988,3.1862171591988,3.1579492317992504,0.0,0.0,0.0,3.1767945167322833,0.0,0.0,0.0,0.0,0.0,0.0,0.0,0.0,0.0,0.0,0.0,0.0,0.0,0.0,
2.219,3.1879915442971303,3.1879915442971303,3.1596988142448366,0.0,0.0,0.0,3.1785606342796995,0.0,0.0,0.0,0.0,0.0,0.0,0.0,0.0,0.0,0.0,0.0,0.0,0.0,0.0,
2.2385,3.189786011984529,3.189786011984529,3.1614682347143765,0.0,0.0,0.0,3.180346752894478,0.0,0.0,0.0,0.0,0.0,0.0,0.0,0.0,0.0,0.0,0.0,0.0,0.0,0.0,
2.2579,3.1915913412246586,3.1915913412246586,3.1632484017136555,0.0,0.0,0.0,3.1821436947209905,0.0,0.0,0.0,0.0,0.0,0.0,0.0,0.0,0.0,0.0,0.0,0.0,0.0,0.0,
2.2774,3.1934262821511967,3.1934262821511967,3.1650578051702896,0.0,0.0,0.0,3.183970123157561,0.0,0.0,0.0,0.0,0.0,0.0,0.0,0.0,0.0,0.0,0.0,0.0,0.0,0.0,
2.2968,3.1952721546351124,3.1952721546351124,3.1668780260673777,0.0,0.0,0.0,3.185807445112534,0.0,0.0,0.0,0.0,0.0,0.0,0.0,0.0,0.0,0.0,0.0,0.0,0.0,0.0,
2.3163,3.197148131313581,3.197148131313581,3.1687279717614802,0.0,0.0,0.0,3.187674744796214,0.0,0.0,0.0,0.0,0.0,0.0,0.0,0.0,0.0,0.0,0.0,0.0,0.0,0.0,
2.3358,3.199044896032324,3.199044896032324,3.1705984568385692,0.0,0.0,0.0,3.189562749634406,0.0,0.0,0.0,0.0,0.0,0.0,0.0,0.0,0.0,0.0,0.0,0.0,0.0,0.0,
2.3552,3.200952709112001,3.200952709112001,3.1724798774378162,0.0,0.0,0.0,3.191461765220606,0.0,0.0,0.0,0.0,0.0,0.0,0.0,0.0,0.0,0.0,0.0,0.0,0.0,0.0,
2.3747,3.202891388844864,3.202891388844864,3.17439177888481,0.0,0.0,0.0,3.193391518858179,0.0,0.0,0.0,0.0,0.0,0.0,0.0,0.0,0.0,0.0,0.0,0.0,0.0,0.0,
2.3942,3.204851308165222,3.204851308165222,3.1763246686170223,0.0,0.0,0.0,3.195342428315822,0.0,0.0,0.0,0.0,0.0,0.0,0.0,0.0,0.0,0.0,0.0,0.0,0.0,0.0,
2.4136,3.206822407353914,3.206822407353914,3.1782686265494484,0.0,0.0,0.0,3.197304480419092,0.0,0.0,0.0,0.0,0.0,0.0,0.0,0.0,0.0,0.0,0.0,0.0,0.0,0.0,
2.4331,3.208825164598081,3.208825164598081,3.1802438501308896,0.0,0.0,0.0,3.1992980597756837,0.0,0.0,0.0,0.0,0.0,0.0,0.0,0.0,0.0,0.0,0.0,0.0,0.0,0.0,
2.4526,3.210849635420059,3.210849635420059,3.1822405331853783,0.0,0.0,0.0,3.2013132680084984,0.0,0.0,0.0,0.0,0.0,0.0,0.0,0.0,0.0,0.0,0.0,0.0,0.0,0.0,
2.472,3.212885433109318,3.212885433109318,3.184248432490825,0.0,0.0,0.0,3.2033397662364873,0.0,0.0,0.0,0.0,0.0,0.0,0.0,0.0,0.0,0.0,0.0,0.0,0.0,0.0,
2.4915,3.2149537107044046,3.2149537107044046,3.186288412484679,0.0,0.0,0.0,3.2053986112978294,0.0,0.0,0.0,0.0,0.0,0.0,0.0,0.0,0.0,0.0,0.0,0.0,0.0,0.0,
2.511,3.217044199501101,3.217044199501101,3.1883503466003376,0.0,0.0,0.0,3.2074795818675135,0.0,0.0,0.0,0.0,0.0,0.0,0.0,0.0,0.0,0.0,0.0,0.0,0.0,0.0,
2.5304,3.219146178508536,3.219146178508536,3.1904236612303745,0.0,0.0,0.0,3.2095720060824817,0.0,0.0,0.0,0.0,0.0,0.0,0.0,0.0,0.0,0.0,0.0,0.0,0.0,0.0,
